4000.000000	96.916870 
3999.000000	96.915291 
3998.000000	96.912687 
3997.000000	96.910044 
3996.000000	96.908230 
3995.000000	96.907511 
3994.000000	96.907692 
3993.000000	96.908288 
3992.000000	96.908717 
3991.000000	96.908532 
3990.000000	96.907728 
3989.000000	96.906791 
3988.000000	96.906220 
3987.000000	96.906118 
3986.000000	96.906362 
3985.000000	96.906921 
3984.000000	96.907678 
3983.000000	96.908210 
3982.000000	96.908231 
3981.000000	96.907993 
3980.000000	96.907770 
3979.000000	96.907255 
3978.000000	96.906048 
3977.000000	96.904538 
3976.000000	96.903652 
3975.000000	96.903640 
3974.000000	96.903733 
3973.000000	96.903117 
3972.000000	96.901704 
3971.000000	96.899937 
3970.000000	96.898296 
3969.000000	96.897277 
3968.000000	96.897334 
3967.000000	96.898349 
3966.000000	96.899469 
3965.000000	96.899719 
3964.000000	96.898592 
3963.000000	96.896232 
3962.000000	96.893408 
3961.000000	96.891176 
3960.000000	96.890128 
3959.000000	96.890074 
3958.000000	96.890401 
3957.000000	96.890702 
3956.000000	96.890804 
3955.000000	96.890263 
3954.000000	96.888632 
3953.000000	96.885990 
3952.000000	96.883025 
3951.000000	96.880454 
3950.000000	96.878461 
3949.000000	96.876906 
3948.000000	96.875530 
3947.000000	96.874156 
3946.000000	96.873020 
3945.000000	96.872785 
3944.000000	96.873799 
3943.000000	96.875231 
3942.000000	96.875993 
3941.000000	96.876004 
3940.000000	96.875876 
3939.000000	96.875929 
3938.000000	96.875773 
3937.000000	96.874900 
3936.000000	96.873288 
3935.000000	96.871095 
3934.000000	96.868674 
3933.000000	96.866652 
3932.000000	96.865675 
3931.000000	96.865518 
3930.000000	96.865253 
3929.000000	96.864781 
3928.000000	96.865014 
3927.000000	96.866452 
3926.000000	96.868037 
3925.000000	96.867943 
3924.000000	96.865717 
3923.000000	96.862488 
3922.000000	96.859309 
3921.000000	96.856637 
3920.000000	96.854976 
3919.000000	96.854941 
3918.000000	96.856259 
3917.000000	96.857628 
3916.000000	96.858155 
3915.000000	96.858129 
3914.000000	96.858168 
3913.000000	96.858348 
3912.000000	96.858366 
3911.000000	96.858199 
3910.000000	96.857793 
3909.000000	96.856920 
3908.000000	96.855623 
3907.000000	96.854016 
3906.000000	96.852034 
3905.000000	96.848949 
3904.000000	96.844249 
3903.000000	96.838990 
3902.000000	96.835279 
3901.000000	96.834358 
3900.000000	96.835770 
3899.000000	96.837915 
3898.000000	96.839590 
3897.000000	96.840428 
3896.000000	96.840360 
3895.000000	96.839698 
3894.000000	96.839065 
3893.000000	96.838893 
3892.000000	96.838714 
3891.000000	96.837552 
3890.000000	96.835272 
3889.000000	96.832635 
3888.000000	96.830621 
3887.000000	96.829671 
3886.000000	96.829550 
3885.000000	96.829592 
3884.000000	96.829187 
3883.000000	96.828123 
3882.000000	96.826772 
3881.000000	96.825827 
3880.000000	96.825580 
3879.000000	96.825538 
3878.000000	96.825085 
3877.000000	96.824262 
3876.000000	96.823619 
3875.000000	96.823332 
3874.000000	96.822908 
3873.000000	96.821924 
3872.000000	96.820583 
3871.000000	96.819315 
3870.000000	96.818278 
3869.000000	96.817574 
3868.000000	96.817210 
3867.000000	96.816894 
3866.000000	96.816372 
3865.000000	96.815874 
3864.000000	96.815907 
3863.000000	96.816419 
3862.000000	96.816628 
3861.000000	96.816319 
3860.000000	96.816166 
3859.000000	96.816605 
3858.000000	96.817143 
3857.000000	96.816981 
3856.000000	96.816039 
3855.000000	96.814866 
3854.000000	96.813265 
3853.000000	96.811046 
3852.000000	96.809317 
3851.000000	96.808907 
3850.000000	96.809361 
3849.000000	96.810286 
3848.000000	96.811741 
3847.000000	96.813742 
3846.000000	96.815489 
3845.000000	96.816007 
3844.000000	96.815239 
3843.000000	96.813766 
3842.000000	96.811967 
3841.000000	96.810213 
3840.000000	96.808945 
3839.000000	96.808678 
3838.000000	96.809616 
3837.000000	96.810956 
3836.000000	96.811748 
3835.000000	96.811899 
3834.000000	96.812051 
3833.000000	96.812876 
3832.000000	96.814331 
3831.000000	96.815833 
3830.000000	96.816953 
3829.000000	96.817774 
3828.000000	96.818905 
3827.000000	96.820660 
3826.000000	96.822148 
3825.000000	96.822217 
3824.000000	96.820701 
3823.000000	96.818901 
3822.000000	96.818315 
3821.000000	96.818644 
3820.000000	96.818593 
3819.000000	96.817547 
3818.000000	96.816137 
3817.000000	96.815974 
3816.000000	96.818318 
3815.000000	96.822745 
3814.000000	96.827156 
3813.000000	96.829579 
3812.000000	96.829859 
3811.000000	96.829749 
3810.000000	96.830821 
3809.000000	96.832762 
3808.000000	96.833885 
3807.000000	96.832970 
3806.000000	96.830174 
3805.000000	96.826267 
3804.000000	96.821952 
3803.000000	96.819404 
3802.000000	96.820521 
3801.000000	96.823945 
3800.000000	96.826600 
3799.000000	96.826450 
3798.000000	96.824572 
3797.000000	96.824795 
3796.000000	96.829695 
3795.000000	96.837565 
3794.000000	96.844022 
3793.000000	96.846801 
3792.000000	96.847623 
3791.000000	96.849704 
3790.000000	96.853232 
3789.000000	96.855232 
3788.000000	96.854073 
3787.000000	96.851556 
3786.000000	96.850162 
3785.000000	96.849743 
3784.000000	96.848167 
3783.000000	96.844553 
3782.000000	96.840059 
3781.000000	96.836792 
3780.000000	96.836407 
3779.000000	96.839238 
3778.000000	96.843662 
3777.000000	96.847149 
3776.000000	96.848042 
3775.000000	96.846438 
3774.000000	96.843544 
3773.000000	96.840446 
3772.000000	96.837720 
3771.000000	96.835028 
3770.000000	96.831568 
3769.000000	96.827605 
3768.000000	96.824204 
3767.000000	96.821945 
3766.000000	96.821259 
3765.000000	96.821831 
3764.000000	96.822672 
3763.000000	96.822346 
3762.000000	96.819705 
3761.000000	96.815616 
3760.000000	96.812410 
3759.000000	96.811665 
3758.000000	96.810243 
3757.000000	96.803443 
3756.000000	96.791550 
3755.000000	96.778109 
3754.000000	96.765458 
3753.000000	96.753883 
3752.000000	96.744882 
3751.000000	96.740326 
3750.000000	96.736984 
3749.000000	96.729945 
3748.000000	96.720594 
3747.000000	96.715510 
3746.000000	96.720450 
3745.000000	96.732412 
3744.000000	96.745135 
3743.000000	96.754894 
3742.000000	96.756682 
3741.000000	96.747452 
3740.000000	96.732661 
3739.000000	96.723836 
3738.000000	96.726973 
3737.000000	96.735133 
3736.000000	96.739403 
3735.000000	96.740823 
3734.000000	96.745369 
3733.000000	96.752596 
3732.000000	96.758396 
3731.000000	96.762495 
3730.000000	96.765658 
3729.000000	96.766697 
3728.000000	96.765782 
3727.000000	96.765424 
3726.000000	96.767377 
3725.000000	96.769800 
3724.000000	96.770083 
3723.000000	96.769110 
3722.000000	96.770005 
3721.000000	96.773874 
3720.000000	96.777207 
3719.000000	96.777616 
3718.000000	96.776238 
3717.000000	96.773846 
3716.000000	96.769958 
3715.000000	96.762909 
3714.000000	96.752555 
3713.000000	96.742358 
3712.000000	96.735496 
3711.000000	96.731712 
3710.000000	96.728542 
3709.000000	96.725070 
3708.000000	96.722102 
3707.000000	96.718759 
3706.000000	96.713602 
3705.000000	96.707058 
3704.000000	96.701416 
3703.000000	96.698057 
3702.000000	96.693967 
3701.000000	96.684473 
3700.000000	96.668901 
3699.000000	96.651918 
3698.000000	96.639685 
3697.000000	96.634190 
3696.000000	96.632854 
3695.000000	96.631504 
3694.000000	96.626776 
3693.000000	96.618556 
3692.000000	96.609793 
3691.000000	96.603195 
3690.000000	96.596871 
3689.000000	96.587867 
3688.000000	96.578440 
3687.000000	96.572177 
3686.000000	96.568701 
3685.000000	96.565269 
3684.000000	96.560769 
3683.000000	96.557161 
3682.000000	96.555907 
3681.000000	96.553029 
3680.000000	96.541884 
3679.000000	96.519714 
3678.000000	96.491529 
3677.000000	96.465993 
3676.000000	96.446094 
3675.000000	96.430261 
3674.000000	96.415981 
3673.000000	96.400639 
3672.000000	96.384335 
3671.000000	96.373044 
3670.000000	96.370166 
3669.000000	96.370922 
3668.000000	96.368383 
3667.000000	96.360858 
3666.000000	96.353003 
3665.000000	96.349171 
3664.000000	96.347721 
3663.000000	96.344131 
3662.000000	96.335471 
3661.000000	96.320997 
3660.000000	96.301907 
3659.000000	96.280078 
3658.000000	96.258402 
3657.000000	96.238339 
3656.000000	96.219051 
3655.000000	96.200040 
3654.000000	96.180467 
3653.000000	96.159351 
3652.000000	96.136190 
3651.000000	96.110647 
3650.000000	96.081666 
3649.000000	96.050760 
3648.000000	96.025288 
3647.000000	96.012573 
3646.000000	96.013725 
3645.000000	96.024250 
3644.000000	96.037861 
3643.000000	96.049780 
3642.000000	96.056868 
3641.000000	96.056796 
3640.000000	96.049229 
3639.000000	96.035905 
3638.000000	96.020231 
3637.000000	96.005003 
3636.000000	95.990717 
3635.000000	95.975786 
3634.000000	95.958763 
3633.000000	95.940346 
3632.000000	95.921322 
3631.000000	95.900301 
3630.000000	95.874543 
3629.000000	95.844634 
3628.000000	95.818791 
3627.000000	95.805459 
3626.000000	95.804303 
3625.000000	95.812144 
3624.000000	95.827209 
3623.000000	95.846040 
3622.000000	95.861978 
3621.000000	95.868001 
3620.000000	95.860837 
3619.000000	95.843900 
3618.000000	95.825762 
3617.000000	95.814616 
3616.000000	95.815465 
3615.000000	95.829056 
3614.000000	95.850249 
3613.000000	95.870583 
3612.000000	95.884179 
3611.000000	95.890238 
3610.000000	95.892058 
3609.000000	95.894457 
3608.000000	95.900083 
3607.000000	95.908614 
3606.000000	95.918758 
3605.000000	95.930733 
3604.000000	95.946018 
3603.000000	95.964032 
3602.000000	95.980869 
3601.000000	95.991792 
3600.000000	95.994914 
3599.000000	95.992392 
3598.000000	95.988525 
3597.000000	95.986748 
3596.000000	95.989148 
3595.000000	95.994823 
3594.000000	96.000192 
3593.000000	96.002925 
3592.000000	96.002866 
3591.000000	96.000674 
3590.000000	95.997614 
3589.000000	95.995311 
3588.000000	95.994618 
3587.000000	95.995251 
3586.000000	95.997337 
3585.000000	96.001887 
3584.000000	96.010414 
3583.000000	96.023036 
3582.000000	96.037637 
3581.000000	96.050131 
3580.000000	96.057067 
3579.000000	96.057959 
3578.000000	96.055166 
3577.000000	96.052123 
3576.000000	96.050849 
3575.000000	96.051417 
3574.000000	96.052200 
3573.000000	96.051397 
3572.000000	96.047757 
3571.000000	96.040604 
3570.000000	96.030080 
3569.000000	96.017809 
3568.000000	96.006674 
3567.000000	95.999357 
3566.000000	95.996881 
3565.000000	95.998541 
3564.000000	96.003125 
3563.000000	96.010078 
3562.000000	96.018658 
3561.000000	96.027071 
3560.000000	96.032960 
3559.000000	96.035005 
3558.000000	96.033888 
3557.000000	96.031731 
3556.000000	96.030406 
3555.000000	96.030401 
3554.000000	96.030931 
3553.000000	96.030644 
3552.000000	96.028748 
3551.000000	96.025340 
3550.000000	96.021168 
3549.000000	96.017457 
3548.000000	96.015449 
3547.000000	96.015071 
3546.000000	96.014656 
3545.000000	96.012761 
3544.000000	96.010282 
3543.000000	96.009594 
3542.000000	96.011783 
3541.000000	96.015740 
3540.000000	96.019570 
3539.000000	96.021983 
3538.000000	96.022554 
3537.000000	96.021341 
3536.000000	96.018960 
3535.000000	96.016277 
3534.000000	96.013955 
3533.000000	96.012362 
3532.000000	96.011727 
3531.000000	96.012040 
3530.000000	96.012606 
3529.000000	96.012226 
3528.000000	96.010138 
3527.000000	96.006717 
3526.000000	96.003244 
3525.000000	96.000992 
3524.000000	96.000467 
3523.000000	96.001318 
3522.000000	96.002660 
3521.000000	96.003674 
3520.000000	96.004152 
3519.000000	96.004325 
3518.000000	96.004361 
3517.000000	96.004047 
3516.000000	96.003110 
3515.000000	96.001710 
3514.000000	96.000455 
3513.000000	95.999878 
3512.000000	95.999852 
3511.000000	95.999600 
3510.000000	95.998411 
3509.000000	95.996347 
3508.000000	95.994189 
3507.000000	95.992663 
3506.000000	95.991813 
3505.000000	95.991138 
3504.000000	95.990152 
3503.000000	95.988762 
3502.000000	95.987202 
3501.000000	95.985757 
3500.000000	95.984610 
3499.000000	95.983809 
3498.000000	95.983193 
3497.000000	95.982442 
3496.000000	95.981282 
3495.000000	95.979743 
3494.000000	95.978222 
3493.000000	95.977197 
3492.000000	95.976811 
3491.000000	95.976694 
3490.000000	95.976290 
3489.000000	95.975403 
3488.000000	95.974189 
3487.000000	95.972711 
3486.000000	95.970861 
3485.000000	95.968824 
3484.000000	95.967161 
3483.000000	95.966177 
3482.000000	95.965515 
3481.000000	95.964601 
3480.000000	95.963363 
3479.000000	95.962158 
3478.000000	95.961123 
3477.000000	95.959942 
3476.000000	95.958239 
3475.000000	95.955988 
3474.000000	95.953518 
3473.000000	95.951260 
3472.000000	95.949481 
3471.000000	95.948145 
3470.000000	95.946953 
3469.000000	95.945621 
3468.000000	95.944114 
3467.000000	95.942588 
3466.000000	95.941210 
3465.000000	95.939993 
3464.000000	95.938723 
3463.000000	95.937043 
3462.000000	95.934732 
3461.000000	95.931996 
3460.000000	95.929331 
3459.000000	95.927012 
3458.000000	95.924826 
3457.000000	95.922368 
3456.000000	95.919603 
3455.000000	95.916973 
3454.000000	95.915038 
3453.000000	95.914053 
3452.000000	95.913866 
3451.000000	95.914058 
3450.000000	95.914063 
3449.000000	95.913306 
3448.000000	95.911384 
3447.000000	95.908280 
3446.000000	95.904451 
3445.000000	95.900673 
3444.000000	95.897684 
3443.000000	95.895817 
3442.000000	95.894848 
3441.000000	95.894140 
3440.000000	95.893125 
3439.000000	95.891656 
3438.000000	95.889875 
3437.000000	95.887913 
3436.000000	95.885915 
3435.000000	95.884181 
3434.000000	95.883033 
3433.000000	95.882420 
3432.000000	95.881861 
3431.000000	95.880947 
3430.000000	95.879715 
3429.000000	95.878460 
3428.000000	95.877289 
3427.000000	95.876046 
3426.000000	95.874677 
3425.000000	95.873436 
3424.000000	95.872598 
3423.000000	95.872030 
3422.000000	95.871253 
3421.000000	95.870010 
3420.000000	95.868600 
3419.000000	95.867522 
3418.000000	95.866882 
3417.000000	95.866410 
3416.000000	95.865928 
3415.000000	95.865518 
3414.000000	95.865178 
3413.000000	95.864596 
3412.000000	95.863494 
3411.000000	95.862072 
3410.000000	95.860958 
3409.000000	95.860642 
3408.000000	95.861086 
3407.000000	95.861815 
3406.000000	95.862291 
3405.000000	95.862274 
3404.000000	95.861889 
3403.000000	95.861416 
3402.000000	95.861006 
3401.000000	95.860610 
3400.000000	95.860179 
3399.000000	95.859799 
3398.000000	95.859595 
3397.000000	95.859613 
3396.000000	95.859865 
3395.000000	95.860399 
3394.000000	95.861205 
3393.000000	95.862089 
3392.000000	95.862754 
3391.000000	95.863041 
3390.000000	95.863088 
3389.000000	95.863272 
3388.000000	95.863965 
3387.000000	95.865275 
3386.000000	95.866930 
3385.000000	95.868351 
3384.000000	95.869020 
3383.000000	95.868861 
3382.000000	95.868440 
3381.000000	95.868643 
3380.000000	95.869877 
3379.000000	95.871703 
3378.000000	95.873269 
3377.000000	95.874309 
3376.000000	95.875354 
3375.000000	95.876894 
3374.000000	95.878710 
3373.000000	95.880223 
3372.000000	95.881302 
3371.000000	95.882431 
3370.000000	95.884117 
3369.000000	95.886365 
3368.000000	95.888721 
3367.000000	95.890624 
3366.000000	95.891782 
3365.000000	95.892423 
3364.000000	95.893214 
3363.000000	95.894699 
3362.000000	95.896758 
3361.000000	95.898755 
3360.000000	95.900258 
3359.000000	95.901456 
3358.000000	95.902837 
3357.000000	95.904701 
3356.000000	95.907052 
3355.000000	95.909767 
3354.000000	95.912724 
3353.000000	95.915858 
3352.000000	95.919144 
3351.000000	95.922481 
3350.000000	95.925564 
3349.000000	95.927983 
3348.000000	95.929655 
3347.000000	95.931030 
3346.000000	95.932733 
3345.000000	95.934999 
3344.000000	95.937481 
3343.000000	95.939663 
3342.000000	95.941387 
3341.000000	95.942976 
3340.000000	95.944793 
3339.000000	95.946770 
3338.000000	95.948595 
3337.000000	95.950204 
3336.000000	95.951855 
3335.000000	95.953755 
3334.000000	95.955842 
3333.000000	95.957915 
3332.000000	95.959880 
3331.000000	95.961781 
3330.000000	95.963686 
3329.000000	95.965618 
3328.000000	95.967577 
3327.000000	95.969560 
3326.000000	95.971558 
3325.000000	95.973545 
3324.000000	95.975512 
3323.000000	95.977463 
3322.000000	95.979403 
3321.000000	95.981331 
3320.000000	95.983253 
3319.000000	95.985171 
3318.000000	95.987086 
3317.000000	95.988995 
3316.000000	95.990890 
3315.000000	95.992766 
3314.000000	95.994617 
3313.000000	95.996444 
3312.000000	95.998257 
3311.000000	96.000068 
3310.000000	96.001885 
3309.000000	96.003712 
3308.000000	96.005545 
3307.000000	96.007377 
3306.000000	96.009208 
3305.000000	96.011043 
3304.000000	96.012894 
3303.000000	96.014772 
3302.000000	96.016682 
3301.000000	96.018619 
3300.000000	96.020576 
3299.000000	96.022541 
3298.000000	96.024510 
3297.000000	96.026484 
3296.000000	96.028473 
3295.000000	96.030486 
3294.000000	96.032523 
3293.000000	96.034580 
3292.000000	96.036651 
3291.000000	96.038729 
3290.000000	96.040810 
3289.000000	96.042892 
3288.000000	96.044968 
3287.000000	96.047034 
3286.000000	96.049090 
3285.000000	96.051134 
3284.000000	96.053165 
3283.000000	96.055185 
3282.000000	96.057211 
3281.000000	96.059273 
3280.000000	96.061382 
3279.000000	96.063513 
3278.000000	96.065628 
3277.000000	96.067730 
3276.000000	96.069855 
3275.000000	96.072015 
3274.000000	96.074177 
3273.000000	96.076338 
3272.000000	96.078559 
3271.000000	96.080903 
3270.000000	96.083356 
3269.000000	96.085818 
3268.000000	96.088177 
3267.000000	96.090387 
3266.000000	96.092507 
3265.000000	96.094666 
3264.000000	96.096957 
3263.000000	96.099357 
3262.000000	96.101756 
3261.000000	96.104087 
3260.000000	96.106371 
3259.000000	96.108636 
3258.000000	96.110845 
3257.000000	96.112970 
3256.000000	96.115085 
3255.000000	96.117298 
3254.000000	96.119607 
3253.000000	96.121924 
3252.000000	96.124208 
3251.000000	96.126496 
3250.000000	96.128813 
3249.000000	96.131115 
3248.000000	96.133346 
3247.000000	96.135530 
3246.000000	96.137769 
3245.000000	96.140137 
3244.000000	96.142610 
3243.000000	96.145095 
3242.000000	96.147528 
3241.000000	96.149914 
3240.000000	96.152283 
3239.000000	96.154661 
3238.000000	96.157063 
3237.000000	96.159511 
3236.000000	96.162019 
3235.000000	96.164559 
3234.000000	96.167058 
3233.000000	96.169461 
3232.000000	96.171766 
3231.000000	96.174038 
3230.000000	96.176346 
3229.000000	96.178712 
3228.000000	96.181109 
3227.000000	96.183494 
3226.000000	96.185863 
3225.000000	96.188257 
3224.000000	96.190702 
3223.000000	96.193180 
3222.000000	96.195655 
3221.000000	96.198119 
3220.000000	96.200587 
3219.000000	96.203061 
3218.000000	96.205514 
3217.000000	96.207938 
3216.000000	96.210351 
3215.000000	96.212779 
3214.000000	96.215237 
3213.000000	96.217727 
3212.000000	96.220234 
3211.000000	96.222732 
3210.000000	96.225202 
3209.000000	96.227659 
3208.000000	96.230144 
3207.000000	96.232675 
3206.000000	96.235224 
3205.000000	96.237749 
3204.000000	96.240266 
3203.000000	96.242851 
3202.000000	96.245545 
3201.000000	96.248286 
3200.000000	96.250950 
3199.000000	96.253469 
3198.000000	96.255917 
3197.000000	96.258440 
3196.000000	96.261085 
3195.000000	96.263758 
3194.000000	96.266389 
3193.000000	96.269066 
3192.000000	96.271902 
3191.000000	96.274810 
3190.000000	96.277515 
3189.000000	96.279855 
3188.000000	96.282002 
3187.000000	96.284374 
3186.000000	96.287252 
3185.000000	96.290589 
3184.000000	96.294015 
3183.000000	96.297138 
3182.000000	96.299858 
3181.000000	96.302360 
3180.000000	96.304853 
3179.000000	96.307361 
3178.000000	96.309860 
3177.000000	96.312483 
3176.000000	96.315408 
3175.000000	96.318607 
3174.000000	96.321864 
3173.000000	96.325018 
3172.000000	96.328020 
3171.000000	96.330826 
3170.000000	96.333427 
3169.000000	96.336000 
3168.000000	96.338764 
3167.000000	96.341673 
3166.000000	96.344437 
3165.000000	96.346867 
3164.000000	96.348989 
3163.000000	96.350881 
3162.000000	96.352612 
3161.000000	96.354371 
3160.000000	96.356400 
3159.000000	96.358788 
3158.000000	96.361469 
3157.000000	96.364420 
3156.000000	96.367634 
3155.000000	96.370912 
3154.000000	96.373911 
3153.000000	96.376471 
3152.000000	96.378723 
3151.000000	96.380820 
3150.000000	96.382725 
3149.000000	96.384366 
3148.000000	96.385878 
3147.000000	96.387626 
3146.000000	96.389996 
3145.000000	96.393142 
3144.000000	96.396792 
3143.000000	96.400235 
3142.000000	96.402861 
3141.000000	96.404670 
3140.000000	96.406209 
3139.000000	96.408005 
3138.000000	96.410101 
3137.000000	96.412260 
3136.000000	96.414310 
3135.000000	96.416152 
3134.000000	96.417719 
3133.000000	96.419133 
3132.000000	96.420728 
3131.000000	96.422749 
3130.000000	96.425156 
3129.000000	96.427793 
3128.000000	96.430578 
3127.000000	96.433441 
3126.000000	96.436273 
3125.000000	96.439033 
3124.000000	96.441732 
3123.000000	96.444205 
3122.000000	96.446121 
3121.000000	96.447395 
3120.000000	96.448460 
3119.000000	96.449910 
3118.000000	96.451961 
3117.000000	96.454445 
3116.000000	96.457113 
3115.000000	96.459745 
3114.000000	96.462111 
3113.000000	96.464120 
3112.000000	96.466046 
3111.000000	96.468354 
3110.000000	96.471180 
3109.000000	96.474096 
3108.000000	96.476515 
3107.000000	96.478303 
3106.000000	96.479852 
3105.000000	96.481532 
3104.000000	96.483214 
3103.000000	96.484460 
3102.000000	96.485063 
3101.000000	96.485206 
3100.000000	96.485202 
3099.000000	96.485374 
3098.000000	96.486236 
3097.000000	96.488449 
3096.000000	96.492215 
3095.000000	96.496730 
3094.000000	96.500685 
3093.000000	96.503415 
3092.000000	96.505234 
3091.000000	96.506714 
3090.000000	96.507991 
3089.000000	96.508884 
3088.000000	96.509359 
3087.000000	96.509700 
3086.000000	96.510382 
3085.000000	96.511789 
3084.000000	96.513801 
3083.000000	96.515741 
3082.000000	96.517039 
3081.000000	96.517935 
3080.000000	96.519221 
3079.000000	96.521207 
3078.000000	96.523408 
3077.000000	96.525387 
3076.000000	96.527347 
3075.000000	96.529464 
3074.000000	96.531246 
3073.000000	96.532244 
3072.000000	96.532912 
3071.000000	96.534057 
3070.000000	96.535688 
3069.000000	96.537187 
3068.000000	96.538416 
3067.000000	96.539763 
3066.000000	96.541103 
3065.000000	96.541620 
3064.000000	96.540909 
3063.000000	96.539544 
3062.000000	96.538354 
3061.000000	96.537674 
3060.000000	96.537509 
3059.000000	96.537953 
3058.000000	96.539302 
3057.000000	96.541898 
3056.000000	96.545684 
3055.000000	96.549503 
3054.000000	96.551371 
3053.000000	96.550331 
3052.000000	96.547980 
3051.000000	96.547352 
3050.000000	96.549871 
3049.000000	96.554058 
3048.000000	96.557283 
3047.000000	96.558120 
3046.000000	96.556697 
3045.000000	96.553859 
3044.000000	96.550844 
3043.000000	96.549301 
3042.000000	96.550542 
3041.000000	96.554253 
3040.000000	96.558182 
3039.000000	96.559639 
3038.000000	96.557620 
3037.000000	96.553412 
3036.000000	96.549117 
3035.000000	96.545625 
3034.000000	96.542456 
3033.000000	96.539364 
3032.000000	96.537090 
3031.000000	96.536242 
3030.000000	96.536286 
3029.000000	96.536199 
3028.000000	96.535311 
3027.000000	96.532933 
3026.000000	96.528133 
3025.000000	96.521077 
3024.000000	96.514055 
3023.000000	96.509720 
3022.000000	96.508316 
3021.000000	96.507914 
3020.000000	96.507192 
3019.000000	96.506475 
3018.000000	96.505766 
3017.000000	96.503472 
3016.000000	96.498223 
3015.000000	96.490976 
3014.000000	96.484359 
3013.000000	96.480275 
3012.000000	96.478527 
3011.000000	96.477162 
3010.000000	96.473767 
3009.000000	96.467175 
3008.000000	96.458482 
3007.000000	96.450142 
3006.000000	96.443694 
3005.000000	96.438729 
3004.000000	96.434086 
3003.000000	96.429294 
3002.000000	96.424671 
3001.000000	96.420828 
3000.000000	96.418310 
2999.000000	96.416895 
2998.000000	96.414953 
2997.000000	96.410472 
2996.000000	96.403279 
2995.000000	96.395446 
2994.000000	96.388871 
2993.000000	96.383133 
2992.000000	96.376380 
2991.000000	96.367843 
2990.000000	96.358831 
2989.000000	96.351562 
2988.000000	96.347634 
2987.000000	96.347404 
2986.000000	96.350214 
2985.000000	96.355015 
2984.000000	96.360793 
2983.000000	96.366480 
2982.000000	96.370934 
2981.000000	96.373540 
2980.000000	96.374628 
2979.000000	96.374656 
2978.000000	96.373244 
2977.000000	96.369871 
2976.000000	96.365515 
2975.000000	96.362535 
2974.000000	96.362601 
2973.000000	96.365512 
2972.000000	96.370230 
2971.000000	96.376008 
2970.000000	96.382011 
2969.000000	96.386906 
2968.000000	96.389881 
2967.000000	96.391637 
2966.000000	96.393613 
2965.000000	96.396541 
2964.000000	96.400267 
2963.000000	96.404460 
2962.000000	96.408846 
2961.000000	96.412992 
2960.000000	96.416601 
2959.000000	96.420053 
2958.000000	96.424243 
2957.000000	96.429754 
2956.000000	96.436172 
2955.000000	96.442051 
2954.000000	96.445784 
2953.000000	96.447211 
2952.000000	96.448418 
2951.000000	96.452104 
2950.000000	96.458597 
2949.000000	96.465161 
2948.000000	96.468808 
2947.000000	96.469059 
2946.000000	96.467540 
2945.000000	96.465785 
2944.000000	96.464383 
2943.000000	96.463634 
2942.000000	96.463535 
2941.000000	96.463124 
2940.000000	96.461271 
2939.000000	96.458489 
2938.000000	96.456871 
2937.000000	96.457628 
2936.000000	96.459495 
2935.000000	96.460138 
2934.000000	96.458462 
2933.000000	96.454989 
2932.000000	96.450709 
2931.000000	96.446510 
2930.000000	96.443403 
2929.000000	96.442288 
2928.000000	96.443103 
2927.000000	96.444613 
2926.000000	96.445378 
2925.000000	96.444997 
2924.000000	96.444314 
2923.000000	96.444423 
2922.000000	96.445406 
2921.000000	96.446161 
2920.000000	96.445806 
2919.000000	96.445217 
2918.000000	96.446475 
2917.000000	96.450348 
2916.000000	96.454863 
2915.000000	96.457187 
2914.000000	96.456881 
2913.000000	96.456373 
2912.000000	96.458023 
2911.000000	96.461482 
2910.000000	96.464508 
2909.000000	96.465877 
2908.000000	96.466714 
2907.000000	96.468812 
2906.000000	96.472320 
2905.000000	96.475334 
2904.000000	96.475808 
2903.000000	96.473526 
2902.000000	96.471069 
2901.000000	96.471482 
2900.000000	96.475780 
2899.000000	96.482559 
2898.000000	96.489558 
2897.000000	96.495761 
2896.000000	96.501257 
2895.000000	96.505810 
2894.000000	96.508796 
2893.000000	96.510668 
2892.000000	96.513185 
2891.000000	96.517416 
2890.000000	96.522305 
2889.000000	96.526143 
2888.000000	96.528859 
2887.000000	96.531688 
2886.000000	96.534891 
2885.000000	96.537289 
2884.000000	96.538424 
2883.000000	96.539823 
2882.000000	96.543173 
2881.000000	96.548140 
2880.000000	96.553054 
2879.000000	96.557320 
2878.000000	96.561930 
2877.000000	96.567544 
2876.000000	96.573277 
2875.000000	96.577893 
2874.000000	96.581329 
2873.000000	96.584341 
2872.000000	96.587274 
2871.000000	96.589917 
2870.000000	96.592304 
2869.000000	96.594886 
2868.000000	96.597877 
2867.000000	96.601007 
2866.000000	96.604041 
2865.000000	96.607087 
2864.000000	96.610300 
2863.000000	96.613769 
2862.000000	96.617790 
2861.000000	96.622659 
2860.000000	96.627908 
2859.000000	96.632344 
2858.000000	96.635330 
2857.000000	96.637684 
2856.000000	96.640863 
2855.000000	96.645302 
2854.000000	96.649981 
2853.000000	96.653583 
2852.000000	96.655756 
2851.000000	96.657246 
2850.000000	96.659174 
2849.000000	96.662244 
2848.000000	96.666410 
2847.000000	96.671122 
2846.000000	96.675957 
2845.000000	96.680958 
2844.000000	96.686303 
2843.000000	96.691824 
2842.000000	96.697068 
2841.000000	96.701643 
2840.000000	96.705244 
2839.000000	96.707615 
2838.000000	96.708913 
2837.000000	96.709988 
2836.000000	96.711889 
2835.000000	96.715048 
2834.000000	96.719242 
2833.000000	96.724185 
2832.000000	96.729624 
2831.000000	96.734818 
2830.000000	96.738523 
2829.000000	96.739951 
2828.000000	96.739624 
2827.000000	96.739181 
2826.000000	96.740268 
2825.000000	96.743469 
2824.000000	96.747987 
2823.000000	96.752139 
2822.000000	96.754536 
2821.000000	96.755026 
2820.000000	96.754568 
2819.000000	96.754278 
2818.000000	96.754671 
2817.000000	96.755799 
2816.000000	96.757656 
2815.000000	96.760166 
2814.000000	96.762912 
2813.000000	96.765153 
2812.000000	96.766249 
2811.000000	96.766132 
2810.000000	96.765448 
2809.000000	96.765202 
2808.000000	96.766066 
2807.000000	96.768023 
2806.000000	96.770641 
2805.000000	96.773466 
2804.000000	96.776060 
2803.000000	96.777938 
2802.000000	96.778903 
2801.000000	96.779436 
2800.000000	96.780363 
2799.000000	96.781934 
2798.000000	96.783532 
2797.000000	96.784453 
2796.000000	96.784727 
2795.000000	96.785017 
2794.000000	96.785866 
2793.000000	96.787253 
2792.000000	96.788819 
2791.000000	96.790251 
2790.000000	96.791438 
2789.000000	96.792409 
2788.000000	96.793275 
2787.000000	96.794197 
2786.000000	96.795310 
2785.000000	96.796631 
2784.000000	96.798038 
2783.000000	96.799358 
2782.000000	96.800510 
2781.000000	96.801558 
2780.000000	96.802619 
2779.000000	96.803764 
2778.000000	96.804994 
2777.000000	96.806263 
2776.000000	96.807485 
2775.000000	96.808584 
2774.000000	96.809550 
2773.000000	96.810451 
2772.000000	96.811364 
2771.000000	96.812304 
2770.000000	96.813254 
2769.000000	96.814252 
2768.000000	96.815360 
2767.000000	96.816556 
2766.000000	96.817705 
2765.000000	96.818701 
2764.000000	96.819570 
2763.000000	96.820398 
2762.000000	96.821192 
2761.000000	96.821913 
2760.000000	96.822586 
2759.000000	96.823318 
2758.000000	96.824176 
2757.000000	96.825068 
2756.000000	96.825807 
2755.000000	96.826321 
2754.000000	96.826793 
2753.000000	96.827511 
2752.000000	96.828553 
2751.000000	96.829710 
2750.000000	96.830754 
2749.000000	96.831702 
2748.000000	96.832633 
2747.000000	96.833361 
2746.000000	96.833606 
2745.000000	96.833418 
2744.000000	96.833257 
2743.000000	96.833520 
2742.000000	96.834188 
2741.000000	96.834974 
2740.000000	96.835655 
2739.000000	96.836219 
2738.000000	96.836713 
2737.000000	96.837150 
2736.000000	96.837585 
2735.000000	96.838128 
2734.000000	96.838822 
2733.000000	96.839604 
2732.000000	96.840371 
2731.000000	96.841069 
2730.000000	96.841714 
2729.000000	96.842353 
2728.000000	96.843005 
2727.000000	96.843634 
2726.000000	96.844188 
2725.000000	96.844671 
2724.000000	96.845144 
2723.000000	96.845658 
2722.000000	96.846213 
2721.000000	96.846782 
2720.000000	96.847353 
2719.000000	96.847927 
2718.000000	96.848509 
2717.000000	96.849092 
2716.000000	96.849669 
2715.000000	96.850238 
2714.000000	96.850808 
2713.000000	96.851389 
2712.000000	96.851979 
2711.000000	96.852558 
2710.000000	96.853110 
2709.000000	96.853641 
2708.000000	96.854171 
2707.000000	96.854726 
2706.000000	96.855320 
2705.000000	96.855951 
2704.000000	96.856601 
2703.000000	96.857224 
2702.000000	96.857776 
2701.000000	96.858263 
2700.000000	96.858767 
2699.000000	96.859372 
2698.000000	96.860076 
2697.000000	96.860747 
2696.000000	96.861239 
2695.000000	96.861525 
2694.000000	96.861737 
2693.000000	96.862047 
2692.000000	96.862505 
2691.000000	96.862994 
2690.000000	96.863319 
2689.000000	96.863383 
2688.000000	96.863251 
2687.000000	96.863080 
2686.000000	96.863009 
2685.000000	96.863131 
2684.000000	96.863479 
2683.000000	96.863936 
2682.000000	96.864268 
2681.000000	96.864366 
2680.000000	96.864432 
2679.000000	96.864759 
2678.000000	96.865336 
2677.000000	96.865806 
2676.000000	96.865864 
2675.000000	96.865499 
2674.000000	96.864850 
2673.000000	96.864098 
2672.000000	96.863486 
2671.000000	96.863154 
2670.000000	96.862927 
2669.000000	96.862496 
2668.000000	96.861869 
2667.000000	96.861366 
2666.000000	96.861080 
2665.000000	96.860658 
2664.000000	96.859821 
2663.000000	96.858861 
2662.000000	96.858326 
2661.000000	96.858311 
2660.000000	96.858330 
2659.000000	96.857885 
2658.000000	96.856961 
2657.000000	96.855927 
2656.000000	96.855123 
2655.000000	96.854572 
2654.000000	96.853985 
2653.000000	96.853050 
2652.000000	96.851802 
2651.000000	96.850696 
2650.000000	96.850178 
2649.000000	96.850217 
2648.000000	96.850350 
2647.000000	96.850156 
2646.000000	96.849530 
2645.000000	96.848559 
2644.000000	96.847386 
2643.000000	96.846267 
2642.000000	96.845504 
2641.000000	96.845172 
2640.000000	96.845026 
2639.000000	96.844787 
2638.000000	96.844430 
2637.000000	96.844095 
2636.000000	96.843869 
2635.000000	96.843807 
2634.000000	96.844006 
2633.000000	96.844443 
2632.000000	96.844802 
2631.000000	96.844669 
2630.000000	96.843961 
2629.000000	96.843008 
2628.000000	96.842240 
2627.000000	96.841815 
2626.000000	96.841665 
2625.000000	96.841728 
2624.000000	96.841999 
2623.000000	96.842402 
2622.000000	96.842735 
2621.000000	96.842750 
2620.000000	96.842277 
2619.000000	96.841309 
2618.000000	96.840105 
2617.000000	96.839144 
2616.000000	96.838794 
2615.000000	96.839046 
2614.000000	96.839550 
2613.000000	96.839939 
2612.000000	96.840087 
2611.000000	96.840112 
2610.000000	96.840246 
2609.000000	96.840650 
2608.000000	96.841217 
2607.000000	96.841601 
2606.000000	96.841586 
2605.000000	96.841381 
2604.000000	96.841381 
2603.000000	96.841665 
2602.000000	96.842013 
2601.000000	96.842371 
2600.000000	96.842918 
2599.000000	96.843548 
2598.000000	96.843748 
2597.000000	96.843220 
2596.000000	96.842267 
2595.000000	96.841309 
2594.000000	96.840358 
2593.000000	96.839473 
2592.000000	96.839340 
2591.000000	96.840589 
2590.000000	96.842654 
2589.000000	96.843997 
2588.000000	96.843878 
2587.000000	96.843183 
2586.000000	96.843227 
2585.000000	96.844216 
2584.000000	96.845336 
2583.000000	96.845970 
2582.000000	96.846319 
2581.000000	96.846925 
2580.000000	96.847991 
2579.000000	96.849260 
2578.000000	96.850329 
2577.000000	96.850917 
2576.000000	96.850851 
2575.000000	96.849949 
2574.000000	96.848208 
2573.000000	96.846123 
2572.000000	96.844483 
2571.000000	96.843572 
2570.000000	96.842846 
2569.000000	96.841727 
2568.000000	96.840587 
2567.000000	96.840409 
2566.000000	96.841485 
2565.000000	96.843018 
2564.000000	96.844110 
2563.000000	96.844698 
2562.000000	96.845260 
2561.000000	96.846117 
2560.000000	96.847447 
2559.000000	96.849565 
2558.000000	96.852536 
2557.000000	96.855582 
2556.000000	96.857513 
2555.000000	96.857827 
2554.000000	96.856979 
2553.000000	96.855643 
2552.000000	96.854160 
2551.000000	96.852962 
2550.000000	96.852807 
2549.000000	96.853907 
2548.000000	96.855187 
2547.000000	96.855186 
2546.000000	96.853717 
2545.000000	96.852050 
2544.000000	96.851408 
2543.000000	96.851716 
2542.000000	96.852160 
2541.000000	96.852400 
2540.000000	96.852749 
2539.000000	96.853373 
2538.000000	96.853947 
2537.000000	96.854194 
2536.000000	96.854318 
2535.000000	96.854675 
2534.000000	96.855251 
2533.000000	96.855697 
2532.000000	96.855810 
2531.000000	96.855749 
2530.000000	96.855763 
2529.000000	96.855874 
2528.000000	96.855935 
2527.000000	96.855923 
2526.000000	96.856005 
2525.000000	96.856309 
2524.000000	96.856766 
2523.000000	96.857189 
2522.000000	96.857465 
2521.000000	96.857610 
2520.000000	96.857700 
2519.000000	96.857801 
2518.000000	96.857957 
2517.000000	96.858175 
2516.000000	96.858372 
2515.000000	96.858413 
2514.000000	96.858266 
2513.000000	96.858133 
2512.000000	96.858299 
2511.000000	96.858859 
2510.000000	96.859683 
2509.000000	96.860548 
2508.000000	96.861263 
2507.000000	96.861710 
2506.000000	96.861939 
2505.000000	96.862236 
2504.000000	96.862907 
2503.000000	96.863911 
2502.000000	96.864811 
2501.000000	96.865224 
2500.000000	96.865175 
2499.000000	96.864970 
2498.000000	96.864822 
2497.000000	96.864753 
2496.000000	96.864813 
2495.000000	96.865135 
2494.000000	96.865731 
2493.000000	96.866386 
2492.000000	96.866889 
2491.000000	96.867300 
2490.000000	96.867859 
2489.000000	96.868623 
2488.000000	96.869249 
2487.000000	96.869285 
2486.000000	96.868684 
2485.000000	96.867979 
2484.000000	96.867815 
2483.000000	96.868363 
2482.000000	96.869335 
2481.000000	96.870459 
2480.000000	96.871683 
2479.000000	96.872845 
2478.000000	96.873557 
2477.000000	96.873642 
2476.000000	96.873392 
2475.000000	96.873165 
2474.000000	96.872874 
2473.000000	96.872146 
2472.000000	96.870817 
2471.000000	96.869146 
2470.000000	96.867722 
2469.000000	96.867225 
2468.000000	96.867906 
2467.000000	96.869104 
2466.000000	96.869649 
2465.000000	96.869009 
2464.000000	96.867916 
2463.000000	96.867640 
2462.000000	96.868851 
2461.000000	96.871253 
2460.000000	96.873937 
2459.000000	96.875834 
2458.000000	96.876076 
2457.000000	96.874390 
2456.000000	96.871253 
2455.000000	96.867717 
2454.000000	96.864943 
2453.000000	96.863486 
2452.000000	96.862831 
2451.000000	96.861870 
2450.000000	96.860295 
2449.000000	96.859181 
2448.000000	96.859599 
2447.000000	96.861132 
2446.000000	96.862429 
2445.000000	96.862990 
2444.000000	96.863442 
2443.000000	96.864142 
2442.000000	96.864620 
2441.000000	96.864524 
2440.000000	96.864199 
2439.000000	96.864157 
2438.000000	96.864723 
2437.000000	96.866271 
2436.000000	96.868946 
2435.000000	96.871944 
2434.000000	96.873876 
2433.000000	96.874224 
2432.000000	96.873892 
2431.000000	96.874155 
2430.000000	96.875486 
2429.000000	96.877534 
2428.000000	96.879594 
2427.000000	96.880875 
2426.000000	96.880876 
2425.000000	96.879853 
2424.000000	96.878663 
2423.000000	96.877988 
2422.000000	96.878021 
2421.000000	96.878867 
2420.000000	96.880669 
2419.000000	96.883174 
2418.000000	96.885545 
2417.000000	96.887153 
2416.000000	96.888253 
2415.000000	96.889461 
2414.000000	96.890891 
2413.000000	96.892489 
2412.000000	96.894624 
2411.000000	96.897289 
2410.000000	96.899317 
2409.000000	96.899695 
2408.000000	96.899330 
2407.000000	96.900142 
2406.000000	96.902506 
2405.000000	96.904767 
2404.000000	96.905333 
2403.000000	96.904255 
2402.000000	96.902772 
2401.000000	96.902237 
2400.000000	96.903549 
2399.000000	96.906775 
2398.000000	96.911056 
2397.000000	96.915353 
2396.000000	96.919097 
2395.000000	96.921783 
2394.000000	96.922634 
2393.000000	96.921704 
2392.000000	96.920821 
2391.000000	96.922031 
2390.000000	96.925160 
2389.000000	96.928059 
2388.000000	96.929249 
2387.000000	96.929202 
2386.000000	96.929090 
2385.000000	96.929606 
2384.000000	96.931224 
2383.000000	96.934325 
2382.000000	96.938573 
2381.000000	96.943236 
2380.000000	96.948515 
2379.000000	96.955265 
2378.000000	96.962504 
2377.000000	96.966627 
2376.000000	96.964789 
2375.000000	96.958237 
2374.000000	96.950927 
2373.000000	96.944917 
2372.000000	96.939257 
2371.000000	96.933747 
2370.000000	96.930982 
2369.000000	96.932887 
2368.000000	96.936792 
2367.000000	96.937484 
2366.000000	96.933353 
2365.000000	96.928240 
2364.000000	96.926539 
2363.000000	96.928119 
2362.000000	96.929739 
2361.000000	96.929516 
2360.000000	96.928166 
2359.000000	96.926657 
2358.000000	96.925393 
2357.000000	96.925584 
2356.000000	96.928303 
2355.000000	96.931656 
2354.000000	96.931120 
2353.000000	96.925289 
2352.000000	96.917813 
2351.000000	96.911731 
2350.000000	96.906986 
2349.000000	96.903509 
2348.000000	96.901555 
2347.000000	96.898279 
2346.000000	96.890926 
2345.000000	96.882883 
2344.000000	96.878526 
2343.000000	96.877416 
2342.000000	96.878103 
2341.000000	96.881630 
2340.000000	96.888022 
2339.000000	96.893650 
2338.000000	96.894634 
2337.000000	96.891746 
2336.000000	96.889288 
2335.000000	96.888871 
2334.000000	96.886361 
2333.000000	96.877643 
2332.000000	96.864869 
2331.000000	96.853376 
2330.000000	96.844278 
2329.000000	96.834064 
2328.000000	96.821876 
2327.000000	96.810545 
2326.000000	96.801269 
2325.000000	96.792835 
2324.000000	96.785978 
2323.000000	96.783945 
2322.000000	96.786161 
2321.000000	96.787582 
2320.000000	96.786185 
2319.000000	96.786246 
2318.000000	96.791192 
2317.000000	96.797978 
2316.000000	96.801302 
2315.000000	96.799364 
2314.000000	96.793556 
2313.000000	96.785362 
2312.000000	96.776662 
2311.000000	96.770302 
2310.000000	96.767397 
2309.000000	96.765651 
2308.000000	96.762861 
2307.000000	96.760448 
2306.000000	96.760907 
2305.000000	96.763719 
2304.000000	96.766230 
2303.000000	96.767641 
2302.000000	96.769404 
2301.000000	96.772276 
2300.000000	96.775120 
2299.000000	96.776310 
2298.000000	96.774840 
2297.000000	96.770297 
2296.000000	96.763804 
2295.000000	96.758461 
2294.000000	96.757182 
2293.000000	96.759651 
2292.000000	96.762792 
2291.000000	96.764327 
2290.000000	96.764787 
2289.000000	96.765934 
2288.000000	96.768197 
2287.000000	96.770353 
2286.000000	96.771194 
2285.000000	96.771073 
2284.000000	96.771494 
2283.000000	96.773218 
2282.000000	96.775153 
2281.000000	96.775547 
2280.000000	96.773938 
2279.000000	96.771434 
2278.000000	96.769358 
2277.000000	96.768226 
2276.000000	96.767965 
2275.000000	96.768305 
2274.000000	96.768846 
2273.000000	96.769472 
2272.000000	96.770760 
2271.000000	96.773156 
2270.000000	96.775785 
2269.000000	96.777080 
2268.000000	96.776725 
2267.000000	96.775944 
2266.000000	96.775603 
2265.000000	96.775171 
2264.000000	96.773954 
2263.000000	96.772127 
2262.000000	96.770081 
2261.000000	96.767765 
2260.000000	96.765251 
2259.000000	96.763089 
2258.000000	96.761580 
2257.000000	96.760430 
2256.000000	96.759576 
2255.000000	96.759614 
2254.000000	96.760795 
2253.000000	96.762074 
2252.000000	96.761901 
2251.000000	96.759744 
2250.000000	96.756168 
2249.000000	96.752048 
2248.000000	96.748227 
2247.000000	96.745457 
2246.000000	96.743963 
2245.000000	96.743156 
2244.000000	96.742016 
2243.000000	96.740087 
2242.000000	96.737751 
2241.000000	96.735633 
2240.000000	96.734007 
2239.000000	96.732751 
2238.000000	96.731558 
2237.000000	96.730123 
2236.000000	96.728327 
2235.000000	96.726279 
2234.000000	96.724159 
2233.000000	96.722058 
2232.000000	96.720043 
2231.000000	96.718192 
2230.000000	96.716429 
2229.000000	96.714458 
2228.000000	96.712103 
2227.000000	96.709563 
2226.000000	96.707193 
2225.000000	96.705077 
2224.000000	96.702982 
2223.000000	96.700692 
2222.000000	96.698281 
2221.000000	96.695971 
2220.000000	96.693803 
2219.000000	96.691640 
2218.000000	96.689399 
2217.000000	96.687157 
2216.000000	96.685047 
2215.000000	96.683103 
2214.000000	96.681231 
2213.000000	96.679314 
2212.000000	96.677347 
2211.000000	96.675441 
2210.000000	96.673674 
2209.000000	96.672017 
2208.000000	96.670396 
2207.000000	96.668757 
2206.000000	96.667064 
2205.000000	96.665330 
2204.000000	96.663659 
2203.000000	96.662241 
2202.000000	96.661173 
2201.000000	96.660085 
2200.000000	96.658088 
2199.000000	96.654491 
2198.000000	96.649608 
2197.000000	96.644877 
2196.000000	96.641893 
2195.000000	96.641199 
2194.000000	96.641838 
2193.000000	96.642241 
2192.000000	96.641675 
2191.000000	96.640366 
2190.000000	96.638444 
2189.000000	96.635806 
2188.000000	96.633123 
2187.000000	96.631387 
2186.000000	96.629685 
2185.000000	96.625427 
2184.000000	96.618782 
2183.000000	96.615074 
2182.000000	96.619416 
2181.000000	96.629942 
2180.000000	96.638470 
2179.000000	96.639425 
2178.000000	96.634807 
2177.000000	96.630324 
2176.000000	96.629056 
2175.000000	96.630094 
2174.000000	96.631386 
2173.000000	96.631851 
2172.000000	96.631858 
2171.000000	96.632793 
2170.000000	96.634946 
2169.000000	96.635421 
2168.000000	96.630478 
2167.000000	96.620984 
2166.000000	96.612719 
2165.000000	96.609073 
2164.000000	96.606353 
2163.000000	96.599830 
2162.000000	96.592804 
2161.000000	96.594741 
2160.000000	96.610514 
2159.000000	96.635117 
2158.000000	96.659065 
2157.000000	96.677180 
2156.000000	96.689787 
2155.000000	96.698119 
2154.000000	96.702396 
2153.000000	96.703786 
2152.000000	96.705058 
2151.000000	96.707674 
2150.000000	96.709767 
2149.000000	96.709104 
2148.000000	96.707420 
2147.000000	96.709260 
2146.000000	96.716203 
2145.000000	96.724910 
2144.000000	96.731961 
2143.000000	96.737844 
2142.000000	96.744253 
2141.000000	96.750364 
2140.000000	96.754928 
2139.000000	96.760202 
2138.000000	96.770047 
2137.000000	96.784231 
2136.000000	96.797308 
2135.000000	96.803453 
2134.000000	96.800711 
2133.000000	96.792081 
2132.000000	96.784358 
2131.000000	96.783860 
2130.000000	96.791016 
2129.000000	96.799727 
2128.000000	96.803803 
2127.000000	96.803318 
2126.000000	96.802898 
2125.000000	96.804979 
2124.000000	96.807419 
2123.000000	96.807359 
2122.000000	96.804471 
2121.000000	96.799883 
2120.000000	96.794175 
2119.000000	96.787546 
2118.000000	96.780751 
2117.000000	96.774923 
2116.000000	96.770599 
2115.000000	96.767131 
2114.000000	96.762985 
2113.000000	96.757329 
2112.000000	96.752030 
2111.000000	96.750924 
2110.000000	96.755878 
2109.000000	96.764322 
2108.000000	96.771572 
2107.000000	96.775070 
2106.000000	96.775348 
2105.000000	96.774137 
2104.000000	96.773129 
2103.000000	96.773309 
2102.000000	96.773518 
2101.000000	96.770635 
2100.000000	96.763393 
2099.000000	96.755567 
2098.000000	96.753057 
2097.000000	96.757721 
2096.000000	96.765963 
2095.000000	96.772754 
2094.000000	96.775885 
2093.000000	96.775775 
2092.000000	96.773367 
2091.000000	96.769720 
2090.000000	96.766368 
2089.000000	96.764615 
2088.000000	96.764487 
2087.000000	96.764801 
2086.000000	96.764130 
2085.000000	96.761644 
2084.000000	96.757564 
2083.000000	96.753054 
2082.000000	96.749345 
2081.000000	96.746905 
2080.000000	96.745691 
2079.000000	96.745767 
2078.000000	96.746849 
2077.000000	96.747508 
2076.000000	96.746175 
2075.000000	96.743134 
2074.000000	96.740165 
2073.000000	96.737704 
2072.000000	96.734107 
2071.000000	96.728411 
2070.000000	96.722201 
2069.000000	96.717869 
2068.000000	96.715998 
2067.000000	96.715164 
2066.000000	96.713565 
2065.000000	96.710151 
2064.000000	96.704933 
2063.000000	96.699161 
2062.000000	96.694929 
2061.000000	96.693617 
2060.000000	96.694684 
2059.000000	96.696286 
2058.000000	96.696799 
2057.000000	96.695529 
2056.000000	96.692287 
2055.000000	96.687015 
2054.000000	96.680264 
2053.000000	96.673532 
2052.000000	96.668531 
2051.000000	96.665799 
2050.000000	96.664291 
2049.000000	96.662516 
2048.000000	96.660209 
2047.000000	96.658387 
2046.000000	96.657744 
2045.000000	96.657726 
2044.000000	96.657379 
2043.000000	96.656484 
2042.000000	96.655415 
2041.000000	96.654400 
2040.000000	96.653484 
2039.000000	96.652992 
2038.000000	96.653236 
2037.000000	96.653682 
2036.000000	96.653205 
2035.000000	96.651470 
2034.000000	96.649590 
2033.000000	96.649096 
2032.000000	96.650399 
2031.000000	96.652365 
2030.000000	96.653099 
2029.000000	96.651410 
2028.000000	96.647740 
2027.000000	96.644031 
2026.000000	96.641997 
2025.000000	96.641733 
2024.000000	96.642347 
2023.000000	96.643633 
2022.000000	96.646264 
2021.000000	96.650075 
2020.000000	96.653087 
2019.000000	96.653047 
2018.000000	96.649415 
2017.000000	96.643797 
2016.000000	96.638741 
2015.000000	96.636007 
2014.000000	96.635488 
2013.000000	96.635122 
2012.000000	96.633078 
2011.000000	96.630686 
2010.000000	96.631502 
2009.000000	96.636709 
2008.000000	96.643057 
2007.000000	96.646750 
2006.000000	96.647885 
2005.000000	96.648866 
2004.000000	96.650371 
2003.000000	96.651505 
2002.000000	96.652717 
2001.000000	96.655142 
2000.000000	96.657345 
1999.000000	96.655589 
1998.000000	96.647845 
1997.000000	96.636214 
1996.000000	96.625393 
1995.000000	96.619171 
1994.000000	96.618391 
1993.000000	96.620956 
1992.000000	96.623225 
1991.000000	96.623223 
1990.000000	96.622583 
1989.000000	96.624126 
1988.000000	96.627819 
1987.000000	96.630187 
1986.000000	96.628081 
1985.000000	96.622200 
1984.000000	96.616153 
1983.000000	96.612546 
1982.000000	96.610880 
1981.000000	96.609267 
1980.000000	96.607625 
1979.000000	96.608162 
1978.000000	96.612264 
1977.000000	96.618176 
1976.000000	96.622643 
1975.000000	96.624486 
1974.000000	96.625569 
1973.000000	96.628575 
1972.000000	96.634472 
1971.000000	96.641756 
1970.000000	96.647489 
1969.000000	96.649302 
1968.000000	96.647021 
1967.000000	96.642969 
1966.000000	96.640651 
1965.000000	96.642163 
1964.000000	96.647207 
1963.000000	96.654138 
1962.000000	96.661374 
1961.000000	96.667727 
1960.000000	96.672048 
1959.000000	96.673593 
1958.000000	96.673133 
1957.000000	96.673107 
1956.000000	96.675603 
1955.000000	96.680326 
1954.000000	96.685069 
1953.000000	96.688150 
1952.000000	96.689686 
1951.000000	96.690613 
1950.000000	96.691693 
1949.000000	96.693672 
1948.000000	96.697254 
1947.000000	96.702130 
1946.000000	96.706600 
1945.000000	96.709144 
1944.000000	96.709905 
1943.000000	96.710168 
1942.000000	96.710795 
1941.000000	96.711787 
1940.000000	96.713144 
1939.000000	96.715080 
1938.000000	96.717484 
1937.000000	96.720082 
1936.000000	96.723038 
1935.000000	96.726547 
1934.000000	96.729984 
1933.000000	96.732539 
1932.000000	96.734614 
1931.000000	96.737591 
1930.000000	96.741920 
1929.000000	96.746146 
1928.000000	96.748886 
1927.000000	96.750608 
1926.000000	96.752431 
1925.000000	96.754240 
1924.000000	96.754994 
1923.000000	96.754582 
1922.000000	96.753858 
1921.000000	96.753130 
1920.000000	96.752343 
1919.000000	96.752039 
1918.000000	96.752529 
1917.000000	96.752804 
1916.000000	96.752022 
1915.000000	96.751569 
1914.000000	96.753096 
1913.000000	96.755667 
1912.000000	96.756916 
1911.000000	96.756529 
1910.000000	96.756390 
1909.000000	96.757507 
1908.000000	96.759140 
1907.000000	96.760568 
1906.000000	96.761687 
1905.000000	96.761991 
1904.000000	96.760849 
1903.000000	96.759200 
1902.000000	96.758871 
1901.000000	96.759999 
1900.000000	96.761145 
1899.000000	96.761496 
1898.000000	96.761587 
1897.000000	96.761960 
1896.000000	96.762249 
1895.000000	96.762028 
1894.000000	96.761489 
1893.000000	96.760923 
1892.000000	96.760413 
1891.000000	96.760196 
1890.000000	96.760613 
1889.000000	96.761539 
1888.000000	96.762438 
1887.000000	96.763041 
1886.000000	96.763487 
1885.000000	96.763849 
1884.000000	96.764079 
1883.000000	96.764230 
1882.000000	96.764476 
1881.000000	96.764936 
1880.000000	96.765588 
1879.000000	96.766325 
1878.000000	96.767054 
1877.000000	96.767789 
1876.000000	96.768610 
1875.000000	96.769561 
1874.000000	96.770627 
1873.000000	96.771725 
1872.000000	96.772760 
1871.000000	96.773695 
1870.000000	96.774569 
1869.000000	96.775447 
1868.000000	96.776382 
1867.000000	96.777438 
1866.000000	96.778654 
1865.000000	96.779933 
1864.000000	96.781143 
1863.000000	96.782337 
1862.000000	96.783706 
1861.000000	96.785294 
1860.000000	96.786951 
1859.000000	96.788563 
1858.000000	96.790175 
1857.000000	96.791830 
1856.000000	96.793500 
1855.000000	96.795158 
1854.000000	96.796820 
1853.000000	96.798502 
1852.000000	96.800221 
1851.000000	96.801983 
1850.000000	96.803774 
1849.000000	96.805558 
1848.000000	96.807301 
1847.000000	96.808996 
1846.000000	96.810664 
1845.000000	96.812339 
1844.000000	96.814019 
1843.000000	96.815678 
1842.000000	96.817304 
1841.000000	96.818913 
1840.000000	96.820533 
1839.000000	96.822195 
1838.000000	96.823871 
1837.000000	96.825443 
1836.000000	96.826803 
1835.000000	96.827983 
1834.000000	96.829164 
1833.000000	96.830431 
1832.000000	96.831735 
1831.000000	96.832960 
1830.000000	96.834007 
1829.000000	96.834939 
1828.000000	96.835889 
1827.000000	96.836915 
1826.000000	96.838057 
1825.000000	96.839278 
1824.000000	96.840364 
1823.000000	96.841104 
1822.000000	96.841708 
1821.000000	96.842583 
1820.000000	96.843643 
1819.000000	96.844384 
1818.000000	96.844972 
1817.000000	96.846176 
1816.000000	96.847666 
1815.000000	96.848424 
1814.000000	96.848603 
1813.000000	96.849534 
1812.000000	96.851370 
1811.000000	96.852100 
1810.000000	96.851053 
1809.000000	96.850027 
1808.000000	96.849819 
1807.000000	96.849587 
1806.000000	96.849430 
1805.000000	96.850158 
1804.000000	96.850899 
1803.000000	96.849775 
1802.000000	96.846672 
1801.000000	96.844111 
1800.000000	96.843764 
1799.000000	96.844578 
1798.000000	96.845968 
1797.000000	96.847920 
1796.000000	96.848888 
1795.000000	96.847719 
1794.000000	96.845777 
1793.000000	96.845554 
1792.000000	96.846720 
1791.000000	96.846863 
1790.000000	96.846553 
1789.000000	96.848037 
1788.000000	96.851227 
1787.000000	96.854098 
1786.000000	96.855744 
1785.000000	96.856884 
1784.000000	96.857797 
1783.000000	96.858409 
1782.000000	96.858793 
1781.000000	96.859182 
1780.000000	96.859913 
1779.000000	96.861164 
1778.000000	96.863390 
1777.000000	96.866261 
1776.000000	96.868507 
1775.000000	96.869485 
1774.000000	96.869572 
1773.000000	96.869902 
1772.000000	96.871177 
1771.000000	96.872259 
1770.000000	96.872098 
1769.000000	96.871792 
1768.000000	96.872837 
1767.000000	96.874916 
1766.000000	96.876596 
1765.000000	96.877613 
1764.000000	96.878992 
1763.000000	96.880981 
1762.000000	96.882502 
1761.000000	96.883191 
1760.000000	96.883666 
1759.000000	96.884043 
1758.000000	96.884043 
1757.000000	96.883670 
1756.000000	96.883944 
1755.000000	96.884774 
1754.000000	96.884467 
1753.000000	96.882273 
1752.000000	96.879844 
1751.000000	96.879731 
1750.000000	96.882074 
1749.000000	96.884618 
1748.000000	96.886128 
1747.000000	96.887321 
1746.000000	96.888254 
1745.000000	96.888759 
1744.000000	96.889675 
1743.000000	96.891097 
1742.000000	96.891760 
1741.000000	96.891478 
1740.000000	96.891820 
1739.000000	96.893463 
1738.000000	96.894392 
1737.000000	96.893331 
1736.000000	96.891345 
1735.000000	96.890001 
1734.000000	96.889686 
1733.000000	96.889438 
1732.000000	96.888828 
1731.000000	96.889424 
1730.000000	96.892468 
1729.000000	96.895785 
1728.000000	96.897312 
1727.000000	96.897103 
1726.000000	96.896226 
1725.000000	96.895155 
1724.000000	96.893957 
1723.000000	96.892639 
1722.000000	96.891459 
1721.000000	96.890294 
1720.000000	96.889038 
1719.000000	96.887341 
1718.000000	96.885011 
1717.000000	96.883071 
1716.000000	96.880682 
1715.000000	96.876863 
1714.000000	96.873880 
1713.000000	96.872817 
1712.000000	96.871934 
1711.000000	96.870212 
1710.000000	96.868292 
1709.000000	96.866433 
1708.000000	96.864118 
1707.000000	96.861369 
1706.000000	96.858995 
1705.000000	96.857031 
1704.000000	96.853690 
1703.000000	96.848500 
1702.000000	96.842794 
1701.000000	96.838583 
1700.000000	96.835812 
1699.000000	96.832289 
1698.000000	96.828011 
1697.000000	96.824407 
1696.000000	96.821496 
1695.000000	96.818336 
1694.000000	96.814537 
1693.000000	96.810407 
1692.000000	96.806245 
1691.000000	96.802000 
1690.000000	96.797599 
1689.000000	96.793067 
1688.000000	96.788482 
1687.000000	96.783902 
1686.000000	96.779407 
1685.000000	96.775107 
1684.000000	96.770640 
1683.000000	96.765783 
1682.000000	96.760713 
1681.000000	96.755349 
1680.000000	96.750370 
1679.000000	96.745989 
1678.000000	96.741778 
1677.000000	96.736916 
1676.000000	96.731812 
1675.000000	96.727205 
1674.000000	96.721554 
1673.000000	96.713311 
1672.000000	96.704795 
1671.000000	96.699446 
1670.000000	96.696996 
1669.000000	96.693473 
1668.000000	96.688861 
1667.000000	96.685938 
1666.000000	96.683555 
1665.000000	96.679921 
1664.000000	96.675665 
1663.000000	96.672456 
1662.000000	96.669043 
1661.000000	96.661073 
1660.000000	96.650551 
1659.000000	96.643549 
1658.000000	96.642395 
1657.000000	96.641229 
1656.000000	96.638494 
1655.000000	96.636438 
1654.000000	96.633291 
1653.000000	96.624089 
1652.000000	96.612440 
1651.000000	96.598718 
1650.000000	96.580381 
1649.000000	96.568615 
1648.000000	96.561409 
1647.000000	96.555365 
1646.000000	96.549639 
1645.000000	96.548578 
1644.000000	96.546843 
1643.000000	96.544036 
1642.000000	96.542741 
1641.000000	96.543767 
1640.000000	96.544857 
1639.000000	96.543377 
1638.000000	96.539982 
1637.000000	96.535665 
1636.000000	96.530328 
1635.000000	96.530211 
1634.000000	96.536735 
1633.000000	96.541220 
1632.000000	96.540599 
1631.000000	96.539326 
1630.000000	96.542375 
1629.000000	96.548215 
1628.000000	96.552202 
1627.000000	96.554887 
1626.000000	96.559046 
1625.000000	96.564065 
1624.000000	96.568435 
1623.000000	96.574033 
1622.000000	96.582374 
1621.000000	96.588596 
1620.000000	96.591058 
1619.000000	96.595066 
1618.000000	96.603886 
1617.000000	96.610643 
1616.000000	96.608455 
1615.000000	96.604034 
1614.000000	96.603717 
1613.000000	96.605711 
1612.000000	96.607105 
1611.000000	96.609824 
1610.000000	96.616678 
1609.000000	96.625568 
1608.000000	96.633991 
1607.000000	96.643341 
1606.000000	96.652981 
1605.000000	96.659217 
1604.000000	96.662888 
1603.000000	96.668049 
1602.000000	96.675030 
1601.000000	96.680483 
1600.000000	96.684139 
1599.000000	96.689371 
1598.000000	96.696494 
1597.000000	96.702181 
1596.000000	96.705024 
1595.000000	96.707796 
1594.000000	96.712957 
1593.000000	96.718806 
1592.000000	96.723138 
1591.000000	96.727016 
1590.000000	96.731827 
1589.000000	96.736070 
1588.000000	96.738874 
1587.000000	96.742842 
1586.000000	96.749442 
1585.000000	96.755035 
1584.000000	96.757296 
1583.000000	96.759581 
1582.000000	96.764264 
1581.000000	96.768795 
1580.000000	96.771239 
1579.000000	96.774677 
1578.000000	96.782331 
1577.000000	96.791502 
1576.000000	96.796717 
1575.000000	96.798910 
1574.000000	96.799297 
1573.000000	96.797263 
1572.000000	96.796587 
1571.000000	96.800485 
1570.000000	96.805677 
1569.000000	96.803544 
1568.000000	96.795669 
1567.000000	96.789901 
1566.000000	96.788909 
1565.000000	96.789186 
1564.000000	96.789753 
1563.000000	96.790027 
1562.000000	96.788919 
1561.000000	96.782886 
1560.000000	96.775462 
1559.000000	96.771858 
1558.000000	96.775725 
1557.000000	96.781458 
1556.000000	96.778727 
1555.000000	96.778904 
1554.000000	96.780100 
1553.000000	96.781372 
1552.000000	96.779804 
1551.000000	96.776667 
1550.000000	96.771451 
1549.000000	96.765413 
1548.000000	96.760586 
1547.000000	96.758440 
1546.000000	96.757735 
1545.000000	96.756127 
1544.000000	96.753172 
1543.000000	96.750366 
1542.000000	96.750439 
1541.000000	96.753765 
1540.000000	96.751558 
1539.000000	96.743370 
1538.000000	96.734216 
1537.000000	96.721444 
1536.000000	96.707562 
1535.000000	96.697059 
1534.000000	96.692242 
1533.000000	96.690686 
1532.000000	96.688277 
1531.000000	96.681337 
1530.000000	96.672020 
1529.000000	96.663844 
1528.000000	96.656137 
1527.000000	96.647028 
1526.000000	96.637023 
1525.000000	96.628495 
1524.000000	96.622503 
1523.000000	96.618026 
1522.000000	96.612836 
1521.000000	96.605126 
1520.000000	96.594062 
1519.000000	96.579575 
1518.000000	96.563841 
1517.000000	96.549717 
1516.000000	96.538185 
1515.000000	96.529185 
1514.000000	96.521794 
1513.000000	96.516301 
1512.000000	96.511554 
1511.000000	96.503537 
1510.000000	96.490703 
1509.000000	96.476358 
1508.000000	96.464246 
1507.000000	96.451593 
1506.000000	96.441147 
1505.000000	96.435818 
1504.000000	96.428614 
1503.000000	96.418536 
1502.000000	96.406978 
1501.000000	96.396035 
1500.000000	96.386640 
1499.000000	96.377552 
1498.000000	96.365655 
1497.000000	96.352295 
1496.000000	96.341883 
1495.000000	96.334644 
1494.000000	96.328208 
1493.000000	96.322317 
1492.000000	96.317821 
1491.000000	96.313499 
1490.000000	96.306748 
1489.000000	96.298452 
1488.000000	96.289674 
1487.000000	96.278972 
1486.000000	96.268042 
1485.000000	96.257452 
1484.000000	96.246385 
1483.000000	96.235581 
1482.000000	96.225857 
1481.000000	96.217488 
1480.000000	96.209072 
1479.000000	96.199257 
1478.000000	96.188420 
1477.000000	96.178216 
1476.000000	96.167862 
1475.000000	96.154656 
1474.000000	96.138274 
1473.000000	96.122981 
1472.000000	96.114647 
1471.000000	96.112120 
1470.000000	96.109964 
1469.000000	96.106205 
1468.000000	96.100773 
1467.000000	96.092734 
1466.000000	96.082539 
1465.000000	96.072956 
1464.000000	96.066788 
1463.000000	96.061381 
1462.000000	96.053323 
1461.000000	96.044892 
1460.000000	96.040062 
1459.000000	96.037957 
1458.000000	96.027140 
1457.000000	96.004555 
1456.000000	95.988684 
1455.000000	95.984168 
1454.000000	95.979258 
1453.000000	95.974212 
1452.000000	95.973001 
1451.000000	95.976110 
1450.000000	95.979735 
1449.000000	95.983198 
1448.000000	95.986715 
1447.000000	95.988316 
1446.000000	95.986075 
1445.000000	95.982309 
1444.000000	95.981540 
1443.000000	95.982759 
1442.000000	95.982478 
1441.000000	95.980649 
1440.000000	95.980060 
1439.000000	95.979741 
1438.000000	95.973648 
1437.000000	95.960825 
1436.000000	95.951536 
1435.000000	95.950829 
1434.000000	95.952680 
1433.000000	95.955866 
1432.000000	95.962272 
1431.000000	95.970080 
1430.000000	95.974304 
1429.000000	95.975121 
1428.000000	95.977114 
1427.000000	95.981829 
1426.000000	95.986638 
1425.000000	95.989235 
1424.000000	95.993327 
1423.000000	96.000716 
1422.000000	96.007342 
1421.000000	96.011370 
1420.000000	96.016060 
1419.000000	96.019105 
1418.000000	96.013847 
1417.000000	96.007272 
1416.000000	96.012176 
1415.000000	96.029447 
1414.000000	96.047042 
1413.000000	96.055652 
1412.000000	96.058804 
1411.000000	96.063735 
1410.000000	96.070420 
1409.000000	96.077487 
1408.000000	96.086803 
1407.000000	96.099110 
1406.000000	96.111176 
1405.000000	96.121282 
1404.000000	96.134782 
1403.000000	96.152763 
1402.000000	96.168638 
1401.000000	96.180470 
1400.000000	96.193993 
1399.000000	96.212685 
1398.000000	96.230674 
1397.000000	96.242182 
1396.000000	96.250417 
1395.000000	96.262919 
1394.000000	96.280644 
1393.000000	96.300021 
1392.000000	96.322039 
1391.000000	96.347548 
1390.000000	96.372423 
1389.000000	96.391226 
1388.000000	96.402442 
1387.000000	96.409544 
1386.000000	96.417184 
1385.000000	96.427984 
1384.000000	96.443445 
1383.000000	96.462417 
1382.000000	96.480364 
1381.000000	96.493981 
1380.000000	96.503867 
1379.000000	96.513871 
1378.000000	96.527194 
1377.000000	96.543584 
1376.000000	96.560217 
1375.000000	96.574460 
1374.000000	96.585662 
1373.000000	96.596207 
1372.000000	96.608794 
1371.000000	96.623991 
1370.000000	96.640288 
1369.000000	96.654286 
1368.000000	96.666112 
1367.000000	96.678686 
1366.000000	96.692927 
1365.000000	96.707148 
1364.000000	96.718423 
1363.000000	96.724602 
1362.000000	96.727705 
1361.000000	96.732261 
1360.000000	96.740345 
1359.000000	96.751726 
1358.000000	96.765250 
1357.000000	96.778754 
1356.000000	96.790158 
1355.000000	96.798586 
1354.000000	96.804858 
1353.000000	96.811555 
1352.000000	96.819668 
1351.000000	96.828982 
1350.000000	96.839841 
1349.000000	96.850025 
1348.000000	96.857244 
1347.000000	96.861750 
1346.000000	96.866163 
1345.000000	96.871807 
1344.000000	96.877755 
1343.000000	96.883067 
1342.000000	96.888319 
1341.000000	96.893332 
1340.000000	96.896071 
1339.000000	96.895819 
1338.000000	96.894687 
1337.000000	96.895037 
1336.000000	96.897313 
1335.000000	96.900225 
1334.000000	96.902573 
1333.000000	96.904429 
1332.000000	96.906350 
1331.000000	96.908752 
1330.000000	96.911614 
1329.000000	96.914316 
1328.000000	96.916160 
1327.000000	96.917546 
1326.000000	96.919082 
1325.000000	96.919400 
1324.000000	96.917549 
1323.000000	96.914374 
1322.000000	96.911247 
1321.000000	96.908801 
1320.000000	96.907623 
1319.000000	96.908333 
1318.000000	96.910539 
1317.000000	96.912898 
1316.000000	96.914107 
1315.000000	96.913277 
1314.000000	96.910166 
1313.000000	96.906664 
1312.000000	96.906277 
1311.000000	96.910237 
1310.000000	96.915179 
1309.000000	96.916953 
1308.000000	96.915418 
1307.000000	96.914011 
1306.000000	96.915139 
1305.000000	96.917604 
1304.000000	96.919757 
1303.000000	96.920965 
1302.000000	96.920513 
1301.000000	96.917747 
1300.000000	96.914324 
1299.000000	96.913453 
1298.000000	96.915880 
1297.000000	96.918478 
1296.000000	96.917951 
1295.000000	96.914747 
1294.000000	96.911966 
1293.000000	96.911857 
1292.000000	96.914237 
1291.000000	96.917259 
1290.000000	96.918985 
1289.000000	96.918797 
1288.000000	96.917639 
1287.000000	96.916655 
1286.000000	96.915773 
1285.000000	96.914585 
1284.000000	96.914006 
1283.000000	96.915131 
1282.000000	96.916895 
1281.000000	96.916704 
1280.000000	96.913795 
1279.000000	96.910588 
1278.000000	96.909875 
1277.000000	96.912103 
1276.000000	96.915682 
1275.000000	96.918869 
1274.000000	96.920398 
1273.000000	96.919817 
1272.000000	96.918190 
1271.000000	96.917410 
1270.000000	96.917893 
1269.000000	96.917979 
1268.000000	96.916406 
1267.000000	96.913754 
1266.000000	96.910777 
1265.000000	96.907753 
1264.000000	96.905908 
1263.000000	96.906978 
1262.000000	96.910474 
1261.000000	96.913366 
1260.000000	96.914115 
1259.000000	96.915143 
1258.000000	96.918820 
1257.000000	96.923160 
1256.000000	96.923719 
1255.000000	96.919386 
1254.000000	96.914283 
1253.000000	96.913257 
1252.000000	96.916275 
1251.000000	96.918617 
1250.000000	96.916596 
1249.000000	96.912125 
1248.000000	96.910582 
1247.000000	96.914162 
1246.000000	96.918848 
1245.000000	96.919439 
1244.000000	96.915679 
1243.000000	96.911736 
1242.000000	96.911163 
1241.000000	96.914399 
1240.000000	96.919832 
1239.000000	96.924700 
1238.000000	96.925759 
1237.000000	96.921644 
1236.000000	96.914498 
1235.000000	96.907581 
1234.000000	96.901699 
1233.000000	96.895600 
1232.000000	96.888839 
1231.000000	96.881844 
1230.000000	96.874108 
1229.000000	96.864959 
1228.000000	96.855220 
1227.000000	96.845462 
1226.000000	96.833375 
1225.000000	96.815765 
1224.000000	96.792867 
1223.000000	96.767988 
1222.000000	96.742960 
1221.000000	96.716595 
1220.000000	96.687837 
1219.000000	96.657562 
1218.000000	96.626412 
1217.000000	96.593166 
1216.000000	96.555954 
1215.000000	96.513541 
1214.000000	96.465775 
1213.000000	96.414982 
1212.000000	96.366123 
1211.000000	96.322169 
1210.000000	96.279648 
1209.000000	96.232287 
1208.000000	96.179168 
1207.000000	96.125788 
1206.000000	96.076558 
1205.000000	96.029512 
1204.000000	95.979641 
1203.000000	95.924627 
1202.000000	95.866041 
1201.000000	95.806971 
1200.000000	95.749566 
1199.000000	95.693525 
1198.000000	95.636349 
1197.000000	95.576460 
1196.000000	95.515545 
1195.000000	95.456155 
1194.000000	95.397861 
1193.000000	95.337899 
1192.000000	95.274935 
1191.000000	95.209654 
1190.000000	95.142378 
1189.000000	95.072870 
1188.000000	95.001965 
1187.000000	94.930749 
1186.000000	94.858773 
1185.000000	94.785556 
1184.000000	94.712461 
1183.000000	94.640167 
1182.000000	94.566039 
1181.000000	94.487557 
1180.000000	94.406625 
1179.000000	94.326299 
1178.000000	94.244632 
1177.000000	94.156593 
1176.000000	94.061217 
1175.000000	93.962109 
1174.000000	93.861848 
1173.000000	93.761015 
1172.000000	93.662039 
1171.000000	93.567670 
1170.000000	93.475468 
1169.000000	93.380301 
1168.000000	93.283391 
1167.000000	93.193071 
1166.000000	93.116101 
1165.000000	93.054973 
1164.000000	93.014438 
1163.000000	93.002277 
1162.000000	93.019734 
1161.000000	93.056159 
1160.000000	93.095662 
1159.000000	93.125100 
1158.000000	93.134906 
1157.000000	93.118940 
1156.000000	93.077346 
1155.000000	93.016135 
1154.000000	92.941820 
1153.000000	92.859220 
1152.000000	92.774571 
1151.000000	92.695123 
1150.000000	92.623320 
1149.000000	92.555800 
1148.000000	92.489692 
1147.000000	92.425006 
1146.000000	92.359700 
1145.000000	92.288451 
1144.000000	92.209136 
1143.000000	92.125852 
1142.000000	92.043032 
1141.000000	91.960819 
1140.000000	91.878203 
1139.000000	91.795948 
1138.000000	91.714239 
1137.000000	91.631818 
1136.000000	91.549177 
1135.000000	91.468278 
1134.000000	91.387881 
1133.000000	91.303900 
1132.000000	91.215456 
1131.000000	91.125584 
1130.000000	91.035232 
1129.000000	90.942068 
1128.000000	90.846117 
1127.000000	90.750523 
1126.000000	90.655424 
1125.000000	90.557106 
1124.000000	90.454743 
1123.000000	90.352126 
1122.000000	90.251316 
1121.000000	90.150662 
1120.000000	90.050413 
1119.000000	89.953610 
1118.000000	89.859976 
1117.000000	89.765969 
1116.000000	89.672390 
1115.000000	89.584853 
1114.000000	89.505118 
1113.000000	89.429019 
1112.000000	89.354033 
1111.000000	89.281327 
1110.000000	89.209210 
1109.000000	89.132959 
1108.000000	89.052512 
1107.000000	88.971887 
1106.000000	88.890935 
1105.000000	88.806000 
1104.000000	88.718722 
1103.000000	88.635289 
1102.000000	88.555745 
1101.000000	88.474655 
1100.000000	88.392534 
1099.000000	88.315313 
1098.000000	88.244933 
1097.000000	88.176695 
1096.000000	88.108274 
1095.000000	88.040156 
1094.000000	87.967718 
1093.000000	87.884485 
1092.000000	87.794745 
1091.000000	87.711589 
1090.000000	87.640340 
1089.000000	87.574258 
1088.000000	87.507485 
1087.000000	87.440721 
1086.000000	87.373185 
1085.000000	87.301329 
1084.000000	87.227577 
1083.000000	87.158579 
1082.000000	87.092869 
1081.000000	87.022066 
1080.000000	86.945929 
1079.000000	86.873690 
1078.000000	86.808102 
1077.000000	86.740414 
1076.000000	86.663566 
1075.000000	86.577984 
1074.000000	86.482420 
1073.000000	86.372073 
1072.000000	86.248058 
1071.000000	86.115684 
1070.000000	85.970685 
1069.000000	85.800943 
1068.000000	85.605887 
1067.000000	85.401661 
1066.000000	85.203031 
1065.000000	85.011879 
1064.000000	84.826589 
1063.000000	84.647749 
1062.000000	84.468998 
1061.000000	84.276691 
1060.000000	84.066388 
1059.000000	83.849092 
1058.000000	83.635797 
1057.000000	83.426059 
1056.000000	83.215593 
1055.000000	83.002986 
1054.000000	82.784354 
1053.000000	82.553436 
1052.000000	82.312429 
1051.000000	82.071549 
1050.000000	81.833721 
1049.000000	81.592511 
1048.000000	81.347769 
1047.000000	81.107833 
1046.000000	80.874269 
1045.000000	80.640077 
1044.000000	80.404151 
1043.000000	80.172497 
1042.000000	79.944405 
1041.000000	79.712831 
1040.000000	79.479943 
1039.000000	79.256924 
1038.000000	79.047055 
1037.000000	78.844743 
1036.000000	78.651726 
1035.000000	78.476933 
1034.000000	78.319594 
1033.000000	78.170591 
1032.000000	78.031111 
1031.000000	77.910709 
1030.000000	77.806380 
1029.000000	77.704530 
1028.000000	77.605704 
1027.000000	77.525587 
1026.000000	77.467970 
1025.000000	77.417829 
1024.000000	77.365116 
1023.000000	77.314551 
1022.000000	77.267264 
1021.000000	77.213995 
1020.000000	77.152520 
1019.000000	77.092683 
1018.000000	77.038781 
1017.000000	76.984860 
1016.000000	76.930996 
1015.000000	76.885296 
1014.000000	76.846127 
1013.000000	76.801788 
1012.000000	76.751712 
1011.000000	76.708931 
1010.000000	76.678102 
1009.000000	76.650689 
1008.000000	76.625283 
1007.000000	76.612637 
1006.000000	76.616537 
1005.000000	76.629280 
1004.000000	76.649518 
1003.000000	76.684394 
1002.000000	76.730284 
1001.000000	76.772324 
1000.000000	76.808186 
999.000000	 76.852370 
998.000000	 76.911812 
997.000000	 76.976785 
996.000000	 77.040739 
995.000000	 77.109956 
994.000000	 77.188239 
993.000000	 77.270460 
992.000000	 77.355964 
991.000000	 77.450269 
990.000000	 77.549595 
989.000000	 77.642298 
988.000000	 77.729656 
987.000000	 77.826683 
986.000000	 77.939031 
985.000000	 78.058325 
984.000000	 78.183351 
983.000000	 78.324961 
982.000000	 78.484750 
981.000000	 78.649026 
980.000000	 78.810191 
979.000000	 78.975571 
978.000000	 79.149261 
977.000000	 79.324310 
976.000000	 79.499400 
975.000000	 79.684948 
974.000000	 79.885108 
973.000000	 80.090046 
972.000000	 80.292775 
971.000000	 80.498338 
970.000000	 80.710318 
969.000000	 80.923248 
968.000000	 81.133904 
967.000000	 81.345785 
966.000000	 81.557745 
965.000000	 81.762647 
964.000000	 81.961599 
963.000000	 82.164972 
962.000000	 82.375075 
961.000000	 82.582055 
960.000000	 82.780739 
959.000000	 82.976527 
958.000000	 83.170424 
957.000000	 83.353534 
956.000000	 83.522269 
955.000000	 83.685574 
954.000000	 83.851536 
953.000000	 84.018441 
952.000000	 84.182964 
951.000000	 84.344474 
950.000000	 84.497636 
949.000000	 84.634010 
948.000000	 84.755187 
947.000000	 84.872307 
946.000000	 84.988880 
945.000000	 85.096394 
944.000000	 85.190539 
943.000000	 85.278906 
942.000000	 85.368372 
941.000000	 85.457048 
940.000000	 85.543453 
939.000000	 85.631793 
938.000000	 85.723330 
937.000000	 85.813380 
936.000000	 85.900904 
935.000000	 85.990569 
934.000000	 86.082377 
933.000000	 86.170556 
932.000000	 86.255704 
931.000000	 86.346326 
930.000000	 86.444665 
929.000000	 86.542110 
928.000000	 86.632297 
927.000000	 86.718075 
926.000000	 86.802198 
925.000000	 86.881336 
924.000000	 86.952586 
923.000000	 87.016676 
922.000000	 87.072796 
921.000000	 87.119734 
920.000000	 87.163193 
919.000000	 87.211656 
918.000000	 87.263932 
917.000000	 87.311282 
916.000000	 87.352874 
915.000000	 87.398540 
914.000000	 87.455733 
913.000000	 87.524898 
912.000000	 87.607892 
911.000000	 87.708930 
910.000000	 87.826395 
909.000000	 87.955636 
908.000000	 88.099940 
907.000000	 88.266476 
906.000000	 88.452062 
905.000000	 88.645768 
904.000000	 88.844556 
903.000000	 89.052510 
902.000000	 89.265951 
901.000000	 89.474693 
900.000000	 89.678094 
899.000000	 89.884971 
898.000000	 90.097002 
897.000000	 90.305602 
896.000000	 90.505604 
895.000000	 90.698165 
894.000000	 90.880515 
893.000000	 91.047441 
892.000000	 91.203854 
891.000000	 91.361877 
890.000000	 91.523440 
889.000000	 91.677911 
888.000000	 91.817514 
887.000000	 91.942735 
886.000000	 92.053267 
885.000000	 92.147335 
884.000000	 92.229963 
883.000000	 92.307853 
882.000000	 92.376342 
881.000000	 92.427068 
880.000000	 92.468863 
879.000000	 92.523453 
878.000000	 92.597750 
877.000000	 92.678445 
876.000000	 92.757670 
875.000000	 92.845420 
874.000000	 92.951797 
873.000000	 93.075817 
872.000000	 93.217787 
871.000000	 93.384187 
870.000000	 93.572066 
869.000000	 93.763910 
868.000000	 93.945724 
867.000000	 94.117992 
866.000000	 94.284303 
865.000000	 94.442625 
864.000000	 94.593400 
863.000000	 94.743699 
862.000000	 94.896292 
861.000000	 95.044294 
860.000000	 95.181979 
859.000000	 95.311553 
858.000000	 95.435193 
857.000000	 95.550081 
856.000000	 95.655474 
855.000000	 95.755125 
854.000000	 95.848381 
853.000000	 95.928149 
852.000000	 95.992188 
851.000000	 96.048262 
850.000000	 96.104729 
849.000000	 96.163735 
848.000000	 96.225436 
847.000000	 96.289235 
846.000000	 96.348460 
845.000000	 96.393934 
844.000000	 96.425677 
843.000000	 96.452008 
842.000000	 96.475518 
841.000000	 96.489831 
840.000000	 96.491354 
839.000000	 96.482910 
838.000000	 96.464601 
837.000000	 96.434014 
836.000000	 96.398469 
835.000000	 96.373817 
834.000000	 96.365469 
833.000000	 96.362289 
832.000000	 96.354829 
831.000000	 96.347868 
830.000000	 96.349064 
829.000000	 96.357562 
828.000000	 96.372119 
827.000000	 96.398743 
826.000000	 96.439841 
825.000000	 96.485617 
824.000000	 96.526408 
823.000000	 96.564577 
822.000000	 96.605952 
821.000000	 96.649433 
820.000000	 96.691767 
819.000000	 96.731712 
818.000000	 96.763122 
817.000000	 96.773478 
816.000000	 96.755574 
815.000000	 96.713995 
814.000000	 96.655224 
813.000000	 96.577077 
812.000000	 96.471515 
811.000000	 96.331021 
810.000000	 96.147851 
809.000000	 95.913646 
808.000000	 95.625556 
807.000000	 95.289606 
806.000000	 94.916597 
805.000000	 94.520154 
804.000000	 94.119805 
803.000000	 93.737291 
802.000000	 93.386611 
801.000000	 93.076179 
800.000000	 92.821381 
799.000000	 92.641837 
798.000000	 92.542224 
797.000000	 92.507528 
796.000000	 92.519637 
795.000000	 92.566013 
794.000000	 92.631587 
793.000000	 92.699185 
792.000000	 92.762642 
791.000000	 92.825628 
790.000000	 92.884114 
789.000000	 92.923330 
788.000000	 92.934215 
787.000000	 92.918423 
786.000000	 92.874492 
785.000000	 92.793897 
784.000000	 92.675460 
783.000000	 92.531126 
782.000000	 92.374901 
781.000000	 92.220156 
780.000000	 92.089192 
779.000000	 92.006933 
778.000000	 91.979005 
777.000000	 91.991842 
776.000000	 92.038788 
775.000000	 92.127931 
774.000000	 92.258116 
773.000000	 92.406499 
772.000000	 92.549429 
771.000000	 92.680302 
770.000000	 92.799090 
769.000000	 92.900773 
768.000000	 92.983452 
767.000000	 93.053236 
766.000000	 93.111638 
765.000000	 93.151450 
764.000000	 93.173941 
763.000000	 93.196391 
762.000000	 93.232434 
761.000000	 93.276898 
760.000000	 93.319710 
759.000000	 93.363008 
758.000000	 93.414698 
757.000000	 93.476488 
756.000000	 93.548473 
755.000000	 93.634741 
754.000000	 93.733041 
753.000000	 93.826912 
752.000000	 93.898695 
751.000000	 93.946018 
750.000000	 93.980652 
749.000000	 94.017940 
748.000000	 94.070930 
747.000000	 94.144779 
746.000000	 94.230235 
745.000000	 94.310791 
744.000000	 94.381902 
743.000000	 94.455680 
742.000000	 94.543197 
741.000000	 94.641909 
740.000000	 94.744575 
739.000000	 94.849789 
738.000000	 94.957721 
737.000000	 95.064201 
736.000000	 95.164772 
735.000000	 95.257813 
734.000000	 95.340530 
733.000000	 95.409600 
732.000000	 95.467908 
731.000000	 95.522011 
730.000000	 95.570855 
729.000000	 95.606083 
728.000000	 95.626152 
727.000000	 95.640396 
726.000000	 95.658436 
725.000000	 95.686425 
724.000000	 95.731417 
723.000000	 95.794912 
722.000000	 95.861782 
721.000000	 95.911419 
720.000000	 95.943241 
719.000000	 95.975726 
718.000000	 96.017824 
717.000000	 96.060316 
716.000000	 96.096838 
715.000000	 96.132872 
714.000000	 96.169704 
713.000000	 96.198972 
712.000000	 96.221281 
711.000000	 96.251617 
710.000000	 96.296858 
709.000000	 96.343045 
708.000000	 96.375451 
707.000000	 96.395445 
706.000000	 96.406405 
705.000000	 96.400220 
704.000000	 96.369570 
703.000000	 96.318856 
702.000000	 96.250705 
701.000000	 96.152835 
700.000000	 96.010147 
699.000000	 95.823208 
698.000000	 95.607837 
697.000000	 95.388918 
696.000000	 95.201183 
695.000000	 95.080549 
694.000000	 95.043846 
693.000000	 95.081441 
692.000000	 95.171818 
691.000000	 95.293635 
690.000000	 95.422269 
689.000000	 95.534122 
688.000000	 95.623520 
687.000000	 95.701674 
686.000000	 95.774476 
685.000000	 95.836939 
684.000000	 95.891336 
683.000000	 95.949549 
682.000000	 96.011825 
681.000000	 96.064089 
680.000000	 96.102687 
679.000000	 96.143221 
678.000000	 96.195059 
677.000000	 96.250294 
676.000000	 96.307305 
675.000000	 96.374355 
674.000000	 96.446659 
673.000000	 96.505725 
672.000000	 96.553211 
671.000000	 96.616724 
670.000000	 96.716366 
669.000000	 96.809359 
668.000000	 96.823469 
667.000000	 96.790691 
666.000000	 96.785055 
665.000000	 96.795950 
664.000000	 96.800940 
663.000000	 96.804305 
662.000000	 96.824320 
661.000000	 96.857455 
660.000000	 96.892222 
659.000000	 96.931639 
658.000000	 96.976589 
657.000000	 97.006524 
656.000000	 97.006244 
655.000000	 96.985225 
654.000000	 96.955065 
653.000000	 96.911123 
652.000000	 96.859437 
651.000000	 96.835612 
650.000000	 96.862873 

