4000.000000	96.735203 
3999.000000	96.733980 
3998.000000	96.730884 
3997.000000	96.727334 
3996.000000	96.724605 
3995.000000	96.722937 
3994.000000	96.722068 
3993.000000	96.721925 
3992.000000	96.722522 
3991.000000	96.723480 
3990.000000	96.724161 
3989.000000	96.724282 
3988.000000	96.724078 
3987.000000	96.724031 
3986.000000	96.724608 
3985.000000	96.725951 
3984.000000	96.727489 
3983.000000	96.728210 
3982.000000	96.727827 
3981.000000	96.727264 
3980.000000	96.727411 
3979.000000	96.727814 
3978.000000	96.727397 
3977.000000	96.726141 
3976.000000	96.725202 
3975.000000	96.725244 
3974.000000	96.725511 
3973.000000	96.724841 
3972.000000	96.722891 
3971.000000	96.720269 
3970.000000	96.717925 
3969.000000	96.716752 
3968.000000	96.717275 
3967.000000	96.719148 
3966.000000	96.721245 
3965.000000	96.722487 
3964.000000	96.722349 
3963.000000	96.720821 
3962.000000	96.718367 
3961.000000	96.715828 
3960.000000	96.713865 
3959.000000	96.712574 
3958.000000	96.711754 
3957.000000	96.711435 
3956.000000	96.711672 
3955.000000	96.711779 
3954.000000	96.710783 
3953.000000	96.708390 
3952.000000	96.705239 
3951.000000	96.702182 
3950.000000	96.699509 
3949.000000	96.697225 
3948.000000	96.695320 
3947.000000	96.693866 
3946.000000	96.693199 
3945.000000	96.693861 
3944.000000	96.695928 
3943.000000	96.698215 
3942.000000	96.699504 
3941.000000	96.699940 
3940.000000	96.700422 
3939.000000	96.701272 
3938.000000	96.701801 
3937.000000	96.701165 
3936.000000	96.699213 
3935.000000	96.696157 
3934.000000	96.692575 
3933.000000	96.689468 
3932.000000	96.687802 
3931.000000	96.687327 
3930.000000	96.686827 
3929.000000	96.686054 
3928.000000	96.686027 
3927.000000	96.687440 
3926.000000	96.689357 
3925.000000	96.689865 
3924.000000	96.688331 
3923.000000	96.685724 
3922.000000	96.682917 
3921.000000	96.680246 
3920.000000	96.678263 
3919.000000	96.677843 
3918.000000	96.679000 
3917.000000	96.680509 
3916.000000	96.681325 
3915.000000	96.681530 
3914.000000	96.681678 
3913.000000	96.681893 
3912.000000	96.681925 
3911.000000	96.681740 
3910.000000	96.681192 
3909.000000	96.679974 
3908.000000	96.678165 
3907.000000	96.676053 
3906.000000	96.673846 
3905.000000	96.671018 
3904.000000	96.666990 
3903.000000	96.662506 
3902.000000	96.659373 
3901.000000	96.658727 
3900.000000	96.660118 
3899.000000	96.662006 
3898.000000	96.663283 
3897.000000	96.663735 
3896.000000	96.663456 
3895.000000	96.662836 
3894.000000	96.662455 
3893.000000	96.662620 
3892.000000	96.662776 
3891.000000	96.661906 
3890.000000	96.659857 
3889.000000	96.657356 
3888.000000	96.655343 
3887.000000	96.654280 
3886.000000	96.654033 
3885.000000	96.654029 
3884.000000	96.653671 
3883.000000	96.652721 
3882.000000	96.651500 
3881.000000	96.650648 
3880.000000	96.650422 
3879.000000	96.650336 
3878.000000	96.649841 
3877.000000	96.649017 
3876.000000	96.648406 
3875.000000	96.648200 
3874.000000	96.647931 
3873.000000	96.647133 
3872.000000	96.645931 
3871.000000	96.644752 
3870.000000	96.643822 
3869.000000	96.643263 
3868.000000	96.643069 
3867.000000	96.642961 
3866.000000	96.642695 
3865.000000	96.642449 
3864.000000	96.642633 
3863.000000	96.643158 
3862.000000	96.643366 
3861.000000	96.643182 
3860.000000	96.643288 
3859.000000	96.644094 
3858.000000	96.645159 
3857.000000	96.645642 
3856.000000	96.645241 
3855.000000	96.644262 
3854.000000	96.642721 
3853.000000	96.640671 
3852.000000	96.639010 
3851.000000	96.638425 
3850.000000	96.638606 
3849.000000	96.639224 
3848.000000	96.640277 
3847.000000	96.641774 
3846.000000	96.643138 
3845.000000	96.643658 
3844.000000	96.643289 
3843.000000	96.642465 
3842.000000	96.641485 
3841.000000	96.640657 
3840.000000	96.640260 
3839.000000	96.640462 
3838.000000	96.641195 
3837.000000	96.641857 
3836.000000	96.641973 
3835.000000	96.641668 
3834.000000	96.641488 
3833.000000	96.642001 
3832.000000	96.643265 
3831.000000	96.644799 
3830.000000	96.646066 
3829.000000	96.646884 
3828.000000	96.647750 
3827.000000	96.649255 
3826.000000	96.650900 
3825.000000	96.651482 
3824.000000	96.650312 
3823.000000	96.648186 
3822.000000	96.646897 
3821.000000	96.646962 
3820.000000	96.647284 
3819.000000	96.646689 
3818.000000	96.645193 
3817.000000	96.644367 
3816.000000	96.645998 
3815.000000	96.650068 
3814.000000	96.654464 
3813.000000	96.656990 
3812.000000	96.657368 
3811.000000	96.657428 
3810.000000	96.658700 
3809.000000	96.660550 
3808.000000	96.661154 
3807.000000	96.659685 
3806.000000	96.656781 
3805.000000	96.653172 
3804.000000	96.648925 
3803.000000	96.645974 
3802.000000	96.646821 
3801.000000	96.650517 
3800.000000	96.653744 
3799.000000	96.654011 
3798.000000	96.652214 
3797.000000	96.652548 
3796.000000	96.658048 
3795.000000	96.666951 
3794.000000	96.674393 
3793.000000	96.677796 
3792.000000	96.678920 
3791.000000	96.681151 
3790.000000	96.684695 
3789.000000	96.686522 
3788.000000	96.685203 
3787.000000	96.682892 
3786.000000	96.682215 
3785.000000	96.682763 
3784.000000	96.681895 
3783.000000	96.678315 
3782.000000	96.673082 
3781.000000	96.668619 
3780.000000	96.667326 
3779.000000	96.670172 
3778.000000	96.675455 
3777.000000	96.679970 
3776.000000	96.681379 
3775.000000	96.679447 
3774.000000	96.675402 
3773.000000	96.670544 
3772.000000	96.666004 
3771.000000	96.662290 
3770.000000	96.659020 
3769.000000	96.655892 
3768.000000	96.652949 
3767.000000	96.650281 
3766.000000	96.648855 
3765.000000	96.649319 
3764.000000	96.651134 
3763.000000	96.652443 
3762.000000	96.651291 
3761.000000	96.648143 
3760.000000	96.645476 
3759.000000	96.645264 
3758.000000	96.644476 
3757.000000	96.638070 
3756.000000	96.626111 
3755.000000	96.612013 
3754.000000	96.597975 
3753.000000	96.584360 
3752.000000	96.573401 
3751.000000	96.568221 
3750.000000	96.566121 
3749.000000	96.561798 
3748.000000	96.555464 
3747.000000	96.551906 
3746.000000	96.555819 
3745.000000	96.564556 
3744.000000	96.573357 
3743.000000	96.580131 
3742.000000	96.580263 
3741.000000	96.569742 
3740.000000	96.553140 
3739.000000	96.542146 
3738.000000	96.543580 
3737.000000	96.550934 
3736.000000	96.555446 
3735.000000	96.557512 
3734.000000	96.562014 
3733.000000	96.568248 
3732.000000	96.573196 
3731.000000	96.578164 
3730.000000	96.584036 
3729.000000	96.588091 
3728.000000	96.589319 
3727.000000	96.590619 
3726.000000	96.594874 
3725.000000	96.600475 
3724.000000	96.603999 
3723.000000	96.605444 
3722.000000	96.607617 
3721.000000	96.611928 
3720.000000	96.614963 
3719.000000	96.614463 
3718.000000	96.612063 
3717.000000	96.608835 
3716.000000	96.604191 
3715.000000	96.595882 
3714.000000	96.583403 
3713.000000	96.570978 
3712.000000	96.563057 
3711.000000	96.559114 
3710.000000	96.554996 
3709.000000	96.548903 
3708.000000	96.542598 
3707.000000	96.536651 
3706.000000	96.530319 
3705.000000	96.523563 
3704.000000	96.517531 
3703.000000	96.513054 
3702.000000	96.507543 
3701.000000	96.497391 
3700.000000	96.482475 
3699.000000	96.467092 
3698.000000	96.456581 
3697.000000	96.452405 
3696.000000	96.451950 
3695.000000	96.451354 
3694.000000	96.447416 
3693.000000	96.439872 
3692.000000	96.431542 
3691.000000	96.425108 
3690.000000	96.418679 
3689.000000	96.409239 
3688.000000	96.399725 
3687.000000	96.394676 
3686.000000	96.393723 
3685.000000	96.393099 
3684.000000	96.390606 
3683.000000	96.387883 
3682.000000	96.386827 
3681.000000	96.384234 
3680.000000	96.373916 
3679.000000	96.352696 
3678.000000	96.324642 
3677.000000	96.298403 
3676.000000	96.278127 
3675.000000	96.262793 
3674.000000	96.249203 
3673.000000	96.233656 
3672.000000	96.215405 
3671.000000	96.201199 
3670.000000	96.196223 
3669.000000	96.195927 
3668.000000	96.192357 
3667.000000	96.183108 
3666.000000	96.172955 
3665.000000	96.166974 
3664.000000	96.164269 
3663.000000	96.160693 
3662.000000	96.153043 
3661.000000	96.139617 
3660.000000	96.120630 
3659.000000	96.097586 
3658.000000	96.073899 
3657.000000	96.051885 
3656.000000	96.030681 
3655.000000	96.009143 
3654.000000	95.986011 
3653.000000	95.960316 
3652.000000	95.932280 
3651.000000	95.903531 
3650.000000	95.874983 
3649.000000	95.847436 
3648.000000	95.825761 
3647.000000	95.816028 
3646.000000	95.819419 
3645.000000	95.831455 
3644.000000	95.845573 
3643.000000	95.857038 
3642.000000	95.863266 
3641.000000	95.862519 
3640.000000	95.854685 
3639.000000	95.841109 
3638.000000	95.824435 
3637.000000	95.807002 
3636.000000	95.789912 
3635.000000	95.773061 
3634.000000	95.755883 
3633.000000	95.738346 
3632.000000	95.719543 
3631.000000	95.697384 
3630.000000	95.670636 
3629.000000	95.641157 
3628.000000	95.615220 
3627.000000	95.599914 
3626.000000	95.596124 
3625.000000	95.602097 
3624.000000	95.616473 
3623.000000	95.635214 
3622.000000	95.650779 
3621.000000	95.656027 
3620.000000	95.648664 
3619.000000	95.633126 
3618.000000	95.617855 
3617.000000	95.609936 
3616.000000	95.613206 
3615.000000	95.628088 
3614.000000	95.650193 
3613.000000	95.671971 
3612.000000	95.687331 
3611.000000	95.694316 
3610.000000	95.695651 
3609.000000	95.697065 
3608.000000	95.702503 
3607.000000	95.711779 
3606.000000	95.722862 
3605.000000	95.735706 
3604.000000	95.752332 
3603.000000	95.772627 
3602.000000	95.792366 
3601.000000	95.806267 
3600.000000	95.812320 
3599.000000	95.813086 
3598.000000	95.813000 
3597.000000	95.814964 
3596.000000	95.820464 
3595.000000	95.828311 
3594.000000	95.834518 
3593.000000	95.836425 
3592.000000	95.834325 
3591.000000	95.830198 
3590.000000	95.826911 
3589.000000	95.826875 
3588.000000	95.829897 
3587.000000	95.833256 
3586.000000	95.835987 
3585.000000	95.840437 
3584.000000	95.849807 
3583.000000	95.864458 
3582.000000	95.881250 
3581.000000	95.895050 
3580.000000	95.902202 
3579.000000	95.902847 
3578.000000	95.900013 
3577.000000	95.897187 
3576.000000	95.895908 
3575.000000	95.896017 
3574.000000	95.896343 
3573.000000	95.895771 
3572.000000	95.893241 
3571.000000	95.887473 
3570.000000	95.877968 
3569.000000	95.866598 
3568.000000	95.857393 
3567.000000	95.853440 
3566.000000	95.854564 
3565.000000	95.858569 
3564.000000	95.863620 
3563.000000	95.869264 
3562.000000	95.875300 
3561.000000	95.880856 
3560.000000	95.884776 
3559.000000	95.886715 
3558.000000	95.887591 
3557.000000	95.888837 
3556.000000	95.891087 
3555.000000	95.893719 
3554.000000	95.895499 
3553.000000	95.895219 
3552.000000	95.892465 
3551.000000	95.887623 
3550.000000	95.881712 
3549.000000	95.876439 
3548.000000	95.873768 
3547.000000	95.874182 
3546.000000	95.875819 
3545.000000	95.876261 
3544.000000	95.875453 
3543.000000	95.875476 
3542.000000	95.877723 
3541.000000	95.881668 
3540.000000	95.886082 
3539.000000	95.890094 
3538.000000	95.893108 
3537.000000	95.894454 
3536.000000	95.894015 
3535.000000	95.892289 
3534.000000	95.889950 
3533.000000	95.887680 
3532.000000	95.886270 
3531.000000	95.886310 
3530.000000	95.887195 
3529.000000	95.887145 
3528.000000	95.884761 
3527.000000	95.880534 
3526.000000	95.876558 
3525.000000	95.874856 
3524.000000	95.876118 
3523.000000	95.879608 
3522.000000	95.883875 
3521.000000	95.887773 
3520.000000	95.891113 
3519.000000	95.894107 
3518.000000	95.896549 
3517.000000	95.897693 
3516.000000	95.897136 
3515.000000	95.895442 
3514.000000	95.893766 
3513.000000	95.892946 
3512.000000	95.892913 
3511.000000	95.892921 
3510.000000	95.892280 
3509.000000	95.891011 
3508.000000	95.889779 
3507.000000	95.889192 
3506.000000	95.889232 
3505.000000	95.889346 
3504.000000	95.889061 
3503.000000	95.888352 
3502.000000	95.887554 
3501.000000	95.887079 
3500.000000	95.887314 
3499.000000	95.888506 
3498.000000	95.890387 
3497.000000	95.892002 
3496.000000	95.892222 
3495.000000	95.890734 
3494.000000	95.888499 
3493.000000	95.887044 
3492.000000	95.887080 
3491.000000	95.887960 
3490.000000	95.888563 
3489.000000	95.888475 
3488.000000	95.887897 
3487.000000	95.886773 
3486.000000	95.884807 
3485.000000	95.882395 
3484.000000	95.880716 
3483.000000	95.880494 
3482.000000	95.881144 
3481.000000	95.881488 
3480.000000	95.881031 
3479.000000	95.880038 
3478.000000	95.878747 
3477.000000	95.877066 
3476.000000	95.874914 
3475.000000	95.872452 
3474.000000	95.869991 
3473.000000	95.867898 
3472.000000	95.866522 
3471.000000	95.865940 
3470.000000	95.865763 
3469.000000	95.865441 
3468.000000	95.864704 
3467.000000	95.863590 
3466.000000	95.862189 
3465.000000	95.860483 
3464.000000	95.858361 
3463.000000	95.855672 
3462.000000	95.852371 
3461.000000	95.848799 
3460.000000	95.845645 
3459.000000	95.843379 
3458.000000	95.841773 
3457.000000	95.840089 
3456.000000	95.837851 
3455.000000	95.835294 
3454.000000	95.833112 
3453.000000	95.831821 
3452.000000	95.831377 
3451.000000	95.831294 
3450.000000	95.830909 
3449.000000	95.829681 
3448.000000	95.827371 
3447.000000	95.824118 
3446.000000	95.820399 
3445.000000	95.816894 
3444.000000	95.814236 
3443.000000	95.812691 
3442.000000	95.811951 
3441.000000	95.811254 
3440.000000	95.809950 
3439.000000	95.807947 
3438.000000	95.805573 
3437.000000	95.803185 
3436.000000	95.801055 
3435.000000	95.799425 
3434.000000	95.798433 
3433.000000	95.797871 
3432.000000	95.797250 
3431.000000	95.796283 
3430.000000	95.795068 
3429.000000	95.793809 
3428.000000	95.792493 
3427.000000	95.790977 
3426.000000	95.789329 
3425.000000	95.787868 
3424.000000	95.786823 
3423.000000	95.786069 
3422.000000	95.785230 
3421.000000	95.784069 
3420.000000	95.782710 
3419.000000	95.781485 
3418.000000	95.780576 
3417.000000	95.779902 
3416.000000	95.779305 
3415.000000	95.778696 
3414.000000	95.778003 
3413.000000	95.777123 
3412.000000	95.776035 
3411.000000	95.774904 
3410.000000	95.773990 
3409.000000	95.773473 
3408.000000	95.773355 
3407.000000	95.773436 
3406.000000	95.773384 
3405.000000	95.772960 
3404.000000	95.772237 
3403.000000	95.771520 
3402.000000	95.771006 
3401.000000	95.770640 
3400.000000	95.770327 
3399.000000	95.770127 
3398.000000	95.770082 
3397.000000	95.770034 
3396.000000	95.769844 
3395.000000	95.769715 
3394.000000	95.770002 
3393.000000	95.770695 
3392.000000	95.771273 
3391.000000	95.771198 
3390.000000	95.770489 
3389.000000	95.769796 
3388.000000	95.769862 
3387.000000	95.770916 
3386.000000	95.772547 
3385.000000	95.773959 
3384.000000	95.774510 
3383.000000	95.774102 
3382.000000	95.773314 
3381.000000	95.773084 
3380.000000	95.773922 
3379.000000	95.775526 
3378.000000	95.777220 
3377.000000	95.778860 
3376.000000	95.780886 
3375.000000	95.783409 
3374.000000	95.785686 
3373.000000	95.786878 
3372.000000	95.787063 
3371.000000	95.787215 
3370.000000	95.788172 
3369.000000	95.789890 
3368.000000	95.791748 
3367.000000	95.793212 
3366.000000	95.794104 
3365.000000	95.794530 
3364.000000	95.794783 
3363.000000	95.795209 
3362.000000	95.795944 
3361.000000	95.796852 
3360.000000	95.797851 
3359.000000	95.799176 
3358.000000	95.801126 
3357.000000	95.803636 
3356.000000	95.806262 
3355.000000	95.808649 
3354.000000	95.810896 
3353.000000	95.813442 
3352.000000	95.816605 
3351.000000	95.820239 
3350.000000	95.823758 
3349.000000	95.826511 
3348.000000	95.828266 
3347.000000	95.829426 
3346.000000	95.830687 
3345.000000	95.832401 
3344.000000	95.834240 
3343.000000	95.835551 
3342.000000	95.836102 
3341.000000	95.836510 
3340.000000	95.837655 
3339.000000	95.839650 
3338.000000	95.841771 
3337.000000	95.843296 
3336.000000	95.844218 
3335.000000	95.845067 
3334.000000	95.846308 
3333.000000	95.848005 
3332.000000	95.849941 
3331.000000	95.851873 
3330.000000	95.853650 
3329.000000	95.855239 
3328.000000	95.856725 
3327.000000	95.858259 
3326.000000	95.859932 
3325.000000	95.861686 
3324.000000	95.863373 
3323.000000	95.864897 
3322.000000	95.866302 
3321.000000	95.867720 
3320.000000	95.869260 
3319.000000	95.870927 
3318.000000	95.872662 
3317.000000	95.874400 
3316.000000	95.876100 
3315.000000	95.877738 
3314.000000	95.879302 
3313.000000	95.880803 
3312.000000	95.882278 
3311.000000	95.883771 
3310.000000	95.885306 
3309.000000	95.886881 
3308.000000	95.888468 
3307.000000	95.890023 
3306.000000	95.891519 
3305.000000	95.892973 
3304.000000	95.894424 
3303.000000	95.895919 
3302.000000	95.897485 
3301.000000	95.899122 
3300.000000	95.900793 
3299.000000	95.902432 
3298.000000	95.903990 
3297.000000	95.905468 
3296.000000	95.906943 
3295.000000	95.908521 
3294.000000	95.910246 
3293.000000	95.912082 
3292.000000	95.913946 
3291.000000	95.915774 
3290.000000	95.917546 
3289.000000	95.919290 
3288.000000	95.921062 
3287.000000	95.922888 
3286.000000	95.924712 
3285.000000	95.926426 
3284.000000	95.927954 
3283.000000	95.929346 
3282.000000	95.930786 
3281.000000	95.932453 
3280.000000	95.934371 
3279.000000	95.936376 
3278.000000	95.938289 
3277.000000	95.940119 
3276.000000	95.942011 
3275.000000	95.944028 
3274.000000	95.946083 
3273.000000	95.948081 
3272.000000	95.950065 
3271.000000	95.952161 
3270.000000	95.954408 
3269.000000	95.956686 
3268.000000	95.958793 
3267.000000	95.960615 
3266.000000	95.962238 
3265.000000	95.963905 
3264.000000	95.965798 
3263.000000	95.967884 
3262.000000	95.969971 
3261.000000	95.971935 
3260.000000	95.973814 
3259.000000	95.975677 
3258.000000	95.977527 
3257.000000	95.979386 
3256.000000	95.981355 
3255.000000	95.983455 
3254.000000	95.985537 
3253.000000	95.987479 
3252.000000	95.989364 
3251.000000	95.991366 
3250.000000	95.993524 
3249.000000	95.995718 
3248.000000	95.997804 
3247.000000	95.999778 
3246.000000	96.001735 
3245.000000	96.003753 
3244.000000	96.005824 
3243.000000	96.007897 
3242.000000	96.009950 
3241.000000	96.012009 
3240.000000	96.014095 
3239.000000	96.016197 
3238.000000	96.018303 
3237.000000	96.020426 
3236.000000	96.022581 
3235.000000	96.024754 
3234.000000	96.026884 
3233.000000	96.028923 
3232.000000	96.030878 
3231.000000	96.032833 
3230.000000	96.034867 
3229.000000	96.036985 
3228.000000	96.039132 
3227.000000	96.041253 
3226.000000	96.043364 
3225.000000	96.045529 
3224.000000	96.047776 
3223.000000	96.050053 
3222.000000	96.052283 
3221.000000	96.054441 
3220.000000	96.056559 
3219.000000	96.058648 
3218.000000	96.060689 
3217.000000	96.062695 
3216.000000	96.064734 
3215.000000	96.066875 
3214.000000	96.069142 
3213.000000	96.071515 
3212.000000	96.073938 
3211.000000	96.076334 
3210.000000	96.078633 
3209.000000	96.080820 
3208.000000	96.082927 
3207.000000	96.084991 
3206.000000	96.087035 
3205.000000	96.089098 
3204.000000	96.091247 
3203.000000	96.093535 
3202.000000	96.095964 
3201.000000	96.098470 
3200.000000	96.100956 
3199.000000	96.103360 
3198.000000	96.105695 
3197.000000	96.108013 
3196.000000	96.110335 
3195.000000	96.112636 
3194.000000	96.114922 
3193.000000	96.117265 
3192.000000	96.119727 
3191.000000	96.122271 
3190.000000	96.124778 
3189.000000	96.127163 
3188.000000	96.129439 
3187.000000	96.131705 
3186.000000	96.134069 
3185.000000	96.136566 
3184.000000	96.139154 
3183.000000	96.141747 
3182.000000	96.144288 
3181.000000	96.146774 
3180.000000	96.149219 
3179.000000	96.151629 
3178.000000	96.154011 
3177.000000	96.156398 
3176.000000	96.158826 
3175.000000	96.161311 
3174.000000	96.163843 
3173.000000	96.166395 
3172.000000	96.168917 
3171.000000	96.171352 
3170.000000	96.173684 
3169.000000	96.175961 
3168.000000	96.178248 
3167.000000	96.180563 
3166.000000	96.182890 
3165.000000	96.185215 
3164.000000	96.187533 
3163.000000	96.189841 
3162.000000	96.192136 
3161.000000	96.194415 
3160.000000	96.196679 
3159.000000	96.198928 
3158.000000	96.201167 
3157.000000	96.203399 
3156.000000	96.205623 
3155.000000	96.207838 
3154.000000	96.210040 
3153.000000	96.212230 
3152.000000	96.214410 
3151.000000	96.216580 
3150.000000	96.218735 
3149.000000	96.220872 
3148.000000	96.222996 
3147.000000	96.225115 
3146.000000	96.227237 
3145.000000	96.229361 
3144.000000	96.231478 
3143.000000	96.233574 
3142.000000	96.235639 
3141.000000	96.237673 
3140.000000	96.239683 
3139.000000	96.241678 
3138.000000	96.243665 
3137.000000	96.245648 
3136.000000	96.247625 
3135.000000	96.249594 
3134.000000	96.251556 
3133.000000	96.253511 
3132.000000	96.255461 
3131.000000	96.257407 
3130.000000	96.259347 
3129.000000	96.261282 
3128.000000	96.263214 
3127.000000	96.265146 
3126.000000	96.267075 
3125.000000	96.268999 
3124.000000	96.270917 
3123.000000	96.272825 
3122.000000	96.274716 
3121.000000	96.276578 
3120.000000	96.278410 
3119.000000	96.280231 
3118.000000	96.282063 
3117.000000	96.283920 
3116.000000	96.285812 
3115.000000	96.287739 
3114.000000	96.289669 
3113.000000	96.291565 
3112.000000	96.293476 
3111.000000	96.295540 
3110.000000	96.297827 
3109.000000	96.300154 
3108.000000	96.302209 
3107.000000	96.303895 
3106.000000	96.305475 
3105.000000	96.307242 
3104.000000	96.309083 
3103.000000	96.310614 
3102.000000	96.311710 
3101.000000	96.312643 
3100.000000	96.313645 
3099.000000	96.314632 
3098.000000	96.315595 
3097.000000	96.316986 
3096.000000	96.319275 
3095.000000	96.322192 
3094.000000	96.324883 
3093.000000	96.326781 
3092.000000	96.328029 
3091.000000	96.329034 
3090.000000	96.329997 
3089.000000	96.330970 
3088.000000	96.332002 
3087.000000	96.333139 
3086.000000	96.334488 
3085.000000	96.336216 
3084.000000	96.338188 
3083.000000	96.339765 
3082.000000	96.340476 
3081.000000	96.340865 
3080.000000	96.342160 
3079.000000	96.344805 
3078.000000	96.347833 
3077.000000	96.350106 
3076.000000	96.351700 
3075.000000	96.353329 
3074.000000	96.354994 
3073.000000	96.356166 
3072.000000	96.356923 
3071.000000	96.357829 
3070.000000	96.358842 
3069.000000	96.359377 
3068.000000	96.359411 
3067.000000	96.359519 
3066.000000	96.359752 
3065.000000	96.359506 
3064.000000	96.358657 
3063.000000	96.357874 
3062.000000	96.357526 
3061.000000	96.357130 
3060.000000	96.356288 
3059.000000	96.355558 
3058.000000	96.356073 
3057.000000	96.358576 
3056.000000	96.362709 
3055.000000	96.366669 
3054.000000	96.367957 
3053.000000	96.365536 
3052.000000	96.361483 
3051.000000	96.359648 
3050.000000	96.361946 
3049.000000	96.366642 
3048.000000	96.370384 
3047.000000	96.371202 
3046.000000	96.369089 
3045.000000	96.365011 
3044.000000	96.360542 
3043.000000	96.357860 
3042.000000	96.358597 
3041.000000	96.362146 
3040.000000	96.365651 
3039.000000	96.366331 
3038.000000	96.363750 
3037.000000	96.359670 
3036.000000	96.355899 
3035.000000	96.352559 
3034.000000	96.348724 
3033.000000	96.344267 
3032.000000	96.340210 
3031.000000	96.337318 
3030.000000	96.335224 
3029.000000	96.333173 
3028.000000	96.330718 
3027.000000	96.327268 
3026.000000	96.322041 
3025.000000	96.315362 
3024.000000	96.309218 
3023.000000	96.305277 
3022.000000	96.302813 
3021.000000	96.299883 
3020.000000	96.296098 
3019.000000	96.292649 
3018.000000	96.289643 
3017.000000	96.285187 
3016.000000	96.277841 
3015.000000	96.268747 
3014.000000	96.260669 
3013.000000	96.255561 
3012.000000	96.253233 
3011.000000	96.251507 
3010.000000	96.247522 
3009.000000	96.239917 
3008.000000	96.230078 
3007.000000	96.220622 
3006.000000	96.212477 
3005.000000	96.204433 
3004.000000	96.195659 
3003.000000	96.187379 
3002.000000	96.181551 
3001.000000	96.178815 
3000.000000	96.178050 
2999.000000	96.176962 
2998.000000	96.172920 
2997.000000	96.164619 
2996.000000	96.153681 
2995.000000	96.143537 
2994.000000	96.135902 
2993.000000	96.129151 
2992.000000	96.120840 
2991.000000	96.110913 
2990.000000	96.101549 
2989.000000	96.094692 
2988.000000	96.090897 
2987.000000	96.089968 
2986.000000	96.091549 
2985.000000	96.095100 
2984.000000	96.099965 
2983.000000	96.105515 
2982.000000	96.110956 
2981.000000	96.115149 
2980.000000	96.116913 
2979.000000	96.115382 
2978.000000	96.110269 
2977.000000	96.102569 
2976.000000	96.095154 
2975.000000	96.091576 
2974.000000	96.093402 
2973.000000	96.099118 
2972.000000	96.105950 
2971.000000	96.112237 
2970.000000	96.117595 
2969.000000	96.121791 
2968.000000	96.124681 
2967.000000	96.126807 
2966.000000	96.128959 
2965.000000	96.131222 
2964.000000	96.133241 
2963.000000	96.135265 
2962.000000	96.138113 
2961.000000	96.142116 
2960.000000	96.146872 
2959.000000	96.152145 
2958.000000	96.158214 
2957.000000	96.164979 
2956.000000	96.171139 
2955.000000	96.174793 
2954.000000	96.175149 
2953.000000	96.173852 
2952.000000	96.174534 
2951.000000	96.180104 
2950.000000	96.189653 
2949.000000	96.198427 
2948.000000	96.201830 
2947.000000	96.199367 
2946.000000	96.194380 
2945.000000	96.190334 
2944.000000	96.188131 
2943.000000	96.186837 
2942.000000	96.185443 
2941.000000	96.183206 
2940.000000	96.179556 
2939.000000	96.174910 
2938.000000	96.171100 
2937.000000	96.169903 
2936.000000	96.171006 
2935.000000	96.171993 
2934.000000	96.170351 
2933.000000	96.165182 
2932.000000	96.157385 
2931.000000	96.148949 
2930.000000	96.142070 
2929.000000	96.138173 
2928.000000	96.137095 
2927.000000	96.137126 
2926.000000	96.136142 
2925.000000	96.133171 
2924.000000	96.129135 
2923.000000	96.125974 
2922.000000	96.124816 
2921.000000	96.125106 
2920.000000	96.125902 
2919.000000	96.127657 
2918.000000	96.131657 
2917.000000	96.137493 
2916.000000	96.142401 
2915.000000	96.144296 
2914.000000	96.144831 
2913.000000	96.147944 
2912.000000	96.155423 
2911.000000	96.164978 
2910.000000	96.172909 
2909.000000	96.177808 
2908.000000	96.181088 
2907.000000	96.184557 
2906.000000	96.188270 
2905.000000	96.190465 
2904.000000	96.189487 
2903.000000	96.185737 
2902.000000	96.182864 
2901.000000	96.184843 
2900.000000	96.192553 
2899.000000	96.203251 
2898.000000	96.213236 
2897.000000	96.221082 
2896.000000	96.227244 
2895.000000	96.231838 
2894.000000	96.234539 
2893.000000	96.236483 
2892.000000	96.240195 
2891.000000	96.246727 
2890.000000	96.254134 
2889.000000	96.259889 
2888.000000	96.263841 
2887.000000	96.267540 
2886.000000	96.271382 
2885.000000	96.274198 
2884.000000	96.275732 
2883.000000	96.277807 
2882.000000	96.282191 
2881.000000	96.288424 
2880.000000	96.294802 
2879.000000	96.300852 
2878.000000	96.307580 
2877.000000	96.315386 
2876.000000	96.322911 
2875.000000	96.328482 
2874.000000	96.331932 
2873.000000	96.334429 
2872.000000	96.336966 
2871.000000	96.339631 
2870.000000	96.342191 
2869.000000	96.344655 
2868.000000	96.347125 
2867.000000	96.349613 
2866.000000	96.352176 
2865.000000	96.354834 
2864.000000	96.357417 
2863.000000	96.360087 
2862.000000	96.363946 
2861.000000	96.370122 
2860.000000	96.377766 
2859.000000	96.383962 
2858.000000	96.386653 
2857.000000	96.387129 
2856.000000	96.388615 
2855.000000	96.392560 
2854.000000	96.397289 
2853.000000	96.400315 
2852.000000	96.401176 
2851.000000	96.401741 
2850.000000	96.404404 
2849.000000	96.410402 
2848.000000	96.419292 
2847.000000	96.429386 
2846.000000	96.438844 
2845.000000	96.446798 
2844.000000	96.453648 
2843.000000	96.460451 
2842.000000	96.468080 
2841.000000	96.476567 
2840.000000	96.484783 
2839.000000	96.490990 
2838.000000	96.494387 
2837.000000	96.496139 
2836.000000	96.498391 
2835.000000	96.502178 
2834.000000	96.506934 
2833.000000	96.512017 
2832.000000	96.517632 
2831.000000	96.523707 
2830.000000	96.528799 
2829.000000	96.531224 
2828.000000	96.531099 
2827.000000	96.530501 
2826.000000	96.531581 
2825.000000	96.534939 
2824.000000	96.539716 
2823.000000	96.544460 
2822.000000	96.547797 
2821.000000	96.549016 
2820.000000	96.548556 
2819.000000	96.547764 
2818.000000	96.547857 
2817.000000	96.549169 
2816.000000	96.551417 
2815.000000	96.554259 
2814.000000	96.557209 
2813.000000	96.559304 
2812.000000	96.559546 
2811.000000	96.557945 
2810.000000	96.555866 
2809.000000	96.555047 
2808.000000	96.556301 
2807.000000	96.559289 
2806.000000	96.563236 
2805.000000	96.567427 
2804.000000	96.571061 
2803.000000	96.573237 
2802.000000	96.573672 
2801.000000	96.573317 
2800.000000	96.573744 
2799.000000	96.575694 
2798.000000	96.578434 
2797.000000	96.580631 
2796.000000	96.581670 
2795.000000	96.581952 
2794.000000	96.582223 
2793.000000	96.582870 
2792.000000	96.583840 
2791.000000	96.584891 
2790.000000	96.585789 
2789.000000	96.586420 
2788.000000	96.586911 
2787.000000	96.587580 
2786.000000	96.588682 
2785.000000	96.590179 
2784.000000	96.591774 
2783.000000	96.593175 
2782.000000	96.594297 
2781.000000	96.595267 
2780.000000	96.596255 
2779.000000	96.597352 
2778.000000	96.598537 
2777.000000	96.599719 
2776.000000	96.600794 
2775.000000	96.601719 
2774.000000	96.602546 
2773.000000	96.603371 
2772.000000	96.604232 
2771.000000	96.605124 
2770.000000	96.606073 
2769.000000	96.607150 
2768.000000	96.608380 
2767.000000	96.609642 
2766.000000	96.610758 
2765.000000	96.611648 
2764.000000	96.612389 
2763.000000	96.613092 
2762.000000	96.613804 
2761.000000	96.614518 
2760.000000	96.615241 
2759.000000	96.616011 
2758.000000	96.616870 
2757.000000	96.617788 
2756.000000	96.618617 
2755.000000	96.619226 
2754.000000	96.619678 
2753.000000	96.620241 
2752.000000	96.621117 
2751.000000	96.622253 
2750.000000	96.623460 
2749.000000	96.624644 
2748.000000	96.625782 
2747.000000	96.626723 
2746.000000	96.627255 
2745.000000	96.627391 
2744.000000	96.627445 
2743.000000	96.627732 
2742.000000	96.628296 
2741.000000	96.629014 
2740.000000	96.629786 
2739.000000	96.630586 
2738.000000	96.631362 
2737.000000	96.632040 
2736.000000	96.632619 
2735.000000	96.633181 
2734.000000	96.633814 
2733.000000	96.634548 
2732.000000	96.635347 
2731.000000	96.636151 
2730.000000	96.636929 
2729.000000	96.637689 
2728.000000	96.638426 
2727.000000	96.639090 
2726.000000	96.639640 
2725.000000	96.640118 
2724.000000	96.640609 
2723.000000	96.641156 
2722.000000	96.641739 
2721.000000	96.642333 
2720.000000	96.642930 
2719.000000	96.643530 
2718.000000	96.644137 
2717.000000	96.644749 
2716.000000	96.645364 
2715.000000	96.645982 
2714.000000	96.646603 
2713.000000	96.647227 
2712.000000	96.647856 
2711.000000	96.648486 
2710.000000	96.649112 
2709.000000	96.649731 
2708.000000	96.650347 
2707.000000	96.650965 
2706.000000	96.651590 
2705.000000	96.652222 
2704.000000	96.652860 
2703.000000	96.653501 
2702.000000	96.654142 
2701.000000	96.654781 
2700.000000	96.655418 
2699.000000	96.656050 
2698.000000	96.656681 
2697.000000	96.657304 
2696.000000	96.657899 
2695.000000	96.658440 
2694.000000	96.658928 
2693.000000	96.659401 
2692.000000	96.659893 
2691.000000	96.660389 
2690.000000	96.660835 
2689.000000	96.661195 
2688.000000	96.661491 
2687.000000	96.661763 
2686.000000	96.662061 
2685.000000	96.662464 
2684.000000	96.663047 
2683.000000	96.663757 
2682.000000	96.664391 
2681.000000	96.664808 
2680.000000	96.665117 
2679.000000	96.665564 
2678.000000	96.666256 
2677.000000	96.667116 
2676.000000	96.667987 
2675.000000	96.668617 
2674.000000	96.668693 
2673.000000	96.668153 
2672.000000	96.667427 
2671.000000	96.667071 
2670.000000	96.667208 
2669.000000	96.667557 
2668.000000	96.667914 
2667.000000	96.668284 
2666.000000	96.668539 
2665.000000	96.668362 
2664.000000	96.667710 
2663.000000	96.667077 
2662.000000	96.666993 
2661.000000	96.667381 
2660.000000	96.667646 
2659.000000	96.667350 
2658.000000	96.666617 
2657.000000	96.665901 
2656.000000	96.665492 
2655.000000	96.665261 
2654.000000	96.664812 
2653.000000	96.663928 
2652.000000	96.662923 
2651.000000	96.662449 
2650.000000	96.662864 
2649.000000	96.663865 
2648.000000	96.664764 
2647.000000	96.665088 
2646.000000	96.664757 
2645.000000	96.663817 
2644.000000	96.662356 
2643.000000	96.660731 
2642.000000	96.659585 
2641.000000	96.659353 
2640.000000	96.659872 
2639.000000	96.660604 
2638.000000	96.661190 
2637.000000	96.661615 
2636.000000	96.661938 
2635.000000	96.662189 
2634.000000	96.662501 
2633.000000	96.662989 
2632.000000	96.663424 
2631.000000	96.663331 
2630.000000	96.662602 
2629.000000	96.661755 
2628.000000	96.661349 
2627.000000	96.661343 
2626.000000	96.661353 
2625.000000	96.661382 
2624.000000	96.661829 
2623.000000	96.662776 
2622.000000	96.663649 
2621.000000	96.663761 
2620.000000	96.662912 
2619.000000	96.661351 
2618.000000	96.659524 
2617.000000	96.657988 
2616.000000	96.657284 
2615.000000	96.657547 
2614.000000	96.658329 
2613.000000	96.659012 
2612.000000	96.659402 
2611.000000	96.659739 
2610.000000	96.660253 
2609.000000	96.660919 
2608.000000	96.661527 
2607.000000	96.661832 
2606.000000	96.661727 
2605.000000	96.661365 
2604.000000	96.661038 
2603.000000	96.660848 
2602.000000	96.660653 
2601.000000	96.660414 
2600.000000	96.660321 
2599.000000	96.660381 
2598.000000	96.660225 
2597.000000	96.659579 
2596.000000	96.658633 
2595.000000	96.657680 
2594.000000	96.656665 
2593.000000	96.655543 
2592.000000	96.654894 
2591.000000	96.655442 
2590.000000	96.656974 
2589.000000	96.658256 
2588.000000	96.658384 
2587.000000	96.657763 
2586.000000	96.657453 
2585.000000	96.657943 
2584.000000	96.658895 
2583.000000	96.659763 
2582.000000	96.660225 
2581.000000	96.660162 
2580.000000	96.659650 
2579.000000	96.659069 
2578.000000	96.658938 
2577.000000	96.659457 
2576.000000	96.660219 
2575.000000	96.660469 
2574.000000	96.659790 
2573.000000	96.658509 
2572.000000	96.657336 
2571.000000	96.656542 
2570.000000	96.655767 
2569.000000	96.654775 
2568.000000	96.654061 
2567.000000	96.654276 
2566.000000	96.655230 
2565.000000	96.656006 
2564.000000	96.656035 
2563.000000	96.655592 
2562.000000	96.655205 
2561.000000	96.655201 
2560.000000	96.656003 
2559.000000	96.658178 
2558.000000	96.661645 
2557.000000	96.665143 
2556.000000	96.667212 
2555.000000	96.667577 
2554.000000	96.667071 
2553.000000	96.666357 
2552.000000	96.665340 
2551.000000	96.664126 
2550.000000	96.663649 
2549.000000	96.664569 
2548.000000	96.665969 
2547.000000	96.666128 
2546.000000	96.664626 
2545.000000	96.662885 
2544.000000	96.662333 
2543.000000	96.662635 
2542.000000	96.662489 
2541.000000	96.661618 
2540.000000	96.661039 
2539.000000	96.661448 
2538.000000	96.662271 
2537.000000	96.662617 
2536.000000	96.662516 
2535.000000	96.662645 
2534.000000	96.663163 
2533.000000	96.663464 
2532.000000	96.663074 
2531.000000	96.662261 
2530.000000	96.661603 
2529.000000	96.661294 
2528.000000	96.661111 
2527.000000	96.660904 
2526.000000	96.660847 
2525.000000	96.661170 
2524.000000	96.661829 
2523.000000	96.662538 
2522.000000	96.663053 
2521.000000	96.663350 
2520.000000	96.663529 
2519.000000	96.663660 
2518.000000	96.663741 
2517.000000	96.663743 
2516.000000	96.663639 
2515.000000	96.663434 
2514.000000	96.663224 
2513.000000	96.663206 
2512.000000	96.663505 
2511.000000	96.664052 
2510.000000	96.664678 
2509.000000	96.665249 
2508.000000	96.665718 
2507.000000	96.666077 
2506.000000	96.666353 
2505.000000	96.666635 
2504.000000	96.667005 
2503.000000	96.667451 
2502.000000	96.667877 
2501.000000	96.668222 
2500.000000	96.668512 
2499.000000	96.668817 
2498.000000	96.669188 
2497.000000	96.669622 
2496.000000	96.670094 
2495.000000	96.670577 
2494.000000	96.671045 
2493.000000	96.671468 
2492.000000	96.671835 
2491.000000	96.672178 
2490.000000	96.672561 
2489.000000	96.673023 
2488.000000	96.673518 
2487.000000	96.673953 
2486.000000	96.674281 
2485.000000	96.674541 
2484.000000	96.674809 
2483.000000	96.675111 
2482.000000	96.675418 
2481.000000	96.675686 
2480.000000	96.675898 
2479.000000	96.676068 
2478.000000	96.676218 
2477.000000	96.676374 
2476.000000	96.676553 
2475.000000	96.676717 
2474.000000	96.676771 
2473.000000	96.676634 
2472.000000	96.676354 
2471.000000	96.676120 
2470.000000	96.676135 
2469.000000	96.676470 
2468.000000	96.676986 
2467.000000	96.677386 
2466.000000	96.677433 
2465.000000	96.677131 
2464.000000	96.676763 
2463.000000	96.676695 
2462.000000	96.677152 
2461.000000	96.678119 
2460.000000	96.679370 
2459.000000	96.680576 
2458.000000	96.681373 
2457.000000	96.681439 
2456.000000	96.680600 
2455.000000	96.679023 
2454.000000	96.677320 
2453.000000	96.676165 
2452.000000	96.675742 
2451.000000	96.675754 
2450.000000	96.676027 
2449.000000	96.676801 
2448.000000	96.678139 
2447.000000	96.679428 
2446.000000	96.679910 
2445.000000	96.679534 
2444.000000	96.678834 
2443.000000	96.678191 
2442.000000	96.677666 
2441.000000	96.677430 
2440.000000	96.677758 
2439.000000	96.678626 
2438.000000	96.679837 
2437.000000	96.681493 
2436.000000	96.683777 
2435.000000	96.686215 
2434.000000	96.687730 
2433.000000	96.687698 
2432.000000	96.686583 
2431.000000	96.685396 
2430.000000	96.684995 
2429.000000	96.685962 
2428.000000	96.688333 
2427.000000	96.690992 
2426.000000	96.692179 
2425.000000	96.691153 
2424.000000	96.688799 
2423.000000	96.686423 
2422.000000	96.684639 
2421.000000	96.683847 
2420.000000	96.684577 
2419.000000	96.686562 
2418.000000	96.688441 
2417.000000	96.689471 
2416.000000	96.690512 
2415.000000	96.692426 
2414.000000	96.694581 
2413.000000	96.695934 
2412.000000	96.696506 
2411.000000	96.696546 
2410.000000	96.695313 
2409.000000	96.692375 
2408.000000	96.689044 
2407.000000	96.687070 
2406.000000	96.686376 
2405.000000	96.685434 
2404.000000	96.683458 
2403.000000	96.680988 
2402.000000	96.678770 
2401.000000	96.677295 
2400.000000	96.677143 
2399.000000	96.678597 
2398.000000	96.680981 
2397.000000	96.683214 
2396.000000	96.684729 
2395.000000	96.685049 
2394.000000	96.683147 
2393.000000	96.678699 
2392.000000	96.673511 
2391.000000	96.670079 
2390.000000	96.668864 
2389.000000	96.668087 
2388.000000	96.666022 
2387.000000	96.662395 
2386.000000	96.657669 
2385.000000	96.652175 
2384.000000	96.646389 
2383.000000	96.640986 
2382.000000	96.636256 
2381.000000	96.632220 
2380.000000	96.629517 
2379.000000	96.629127 
2378.000000	96.630676 
2377.000000	96.631783 
2376.000000	96.630307 
2375.000000	96.626718 
2374.000000	96.623130 
2373.000000	96.620472 
2372.000000	96.617906 
2371.000000	96.615128 
2370.000000	96.613210 
2369.000000	96.612219 
2368.000000	96.609933 
2367.000000	96.604624 
2366.000000	96.597953 
2365.000000	96.593310 
2364.000000	96.591818 
2363.000000	96.591920 
2362.000000	96.591550 
2361.000000	96.590330 
2360.000000	96.589461 
2359.000000	96.589063 
2358.000000	96.588771 
2357.000000	96.588728 
2356.000000	96.588794 
2355.000000	96.588614 
2354.000000	96.586978 
2353.000000	96.583747 
2352.000000	96.580439 
2351.000000	96.579304 
2350.000000	96.580848 
2349.000000	96.580917 
2348.000000	96.575755 
2347.000000	96.565920 
2346.000000	96.556876 
2345.000000	96.554110 
2344.000000	96.557721 
2343.000000	96.565164 
2342.000000	96.572565 
2341.000000	96.578956 
2340.000000	96.585148 
2339.000000	96.590398 
2338.000000	96.593594 
2337.000000	96.594235 
2336.000000	96.593549 
2335.000000	96.592320 
2334.000000	96.590342 
2333.000000	96.588031 
2332.000000	96.587824 
2331.000000	96.591525 
2330.000000	96.598142 
2329.000000	96.603055 
2328.000000	96.604591 
2327.000000	96.603770 
2326.000000	96.602359 
2325.000000	96.601811 
2324.000000	96.602906 
2323.000000	96.607731 
2322.000000	96.615124 
2321.000000	96.622285 
2320.000000	96.627284 
2319.000000	96.631266 
2318.000000	96.635726 
2317.000000	96.639038 
2316.000000	96.639495 
2315.000000	96.637314 
2314.000000	96.635383 
2313.000000	96.635509 
2312.000000	96.638117 
2311.000000	96.642413 
2310.000000	96.647170 
2309.000000	96.650559 
2308.000000	96.651630 
2307.000000	96.651607 
2306.000000	96.652168 
2305.000000	96.653482 
2304.000000	96.654325 
2303.000000	96.654614 
2302.000000	96.655347 
2301.000000	96.657077 
2300.000000	96.659035 
2299.000000	96.659877 
2298.000000	96.658713 
2297.000000	96.655260 
2296.000000	96.650486 
2295.000000	96.646645 
2294.000000	96.645665 
2293.000000	96.647243 
2292.000000	96.649101 
2291.000000	96.649817 
2290.000000	96.649814 
2289.000000	96.650146 
2288.000000	96.650442 
2287.000000	96.649565 
2286.000000	96.647052 
2285.000000	96.644035 
2284.000000	96.642124 
2283.000000	96.641876 
2282.000000	96.642167 
2281.000000	96.641188 
2280.000000	96.638032 
2279.000000	96.633338 
2278.000000	96.628574 
2277.000000	96.625000 
2276.000000	96.623240 
2275.000000	96.623164 
2274.000000	96.624095 
2273.000000	96.625201 
2272.000000	96.626031 
2271.000000	96.626365 
2270.000000	96.625826 
2269.000000	96.624258 
2268.000000	96.622302 
2267.000000	96.620895 
2266.000000	96.620119 
2265.000000	96.619232 
2264.000000	96.617833 
2263.000000	96.616191 
2262.000000	96.614405 
2261.000000	96.612076 
2260.000000	96.609113 
2259.000000	96.606160 
2258.000000	96.603791 
2257.000000	96.601928 
2256.000000	96.600408 
2255.000000	96.599525 
2254.000000	96.599480 
2253.000000	96.599599 
2252.000000	96.598790 
2251.000000	96.596620 
2250.000000	96.593417 
2249.000000	96.589646 
2248.000000	96.585839 
2247.000000	96.582774 
2246.000000	96.580940 
2245.000000	96.579914 
2244.000000	96.578572 
2243.000000	96.576257 
2242.000000	96.573369 
2241.000000	96.570843 
2240.000000	96.569194 
2239.000000	96.568239 
2238.000000	96.567415 
2237.000000	96.566260 
2236.000000	96.564746 
2235.000000	96.563189 
2234.000000	96.561833 
2233.000000	96.560588 
2232.000000	96.559231 
2231.000000	96.557685 
2230.000000	96.555924 
2229.000000	96.553797 
2228.000000	96.551255 
2227.000000	96.548679 
2226.000000	96.546521 
2225.000000	96.544727 
2224.000000	96.542864 
2223.000000	96.540745 
2222.000000	96.538657 
2221.000000	96.536861 
2220.000000	96.535231 
2219.000000	96.533526 
2218.000000	96.531698 
2217.000000	96.529867 
2216.000000	96.528124 
2215.000000	96.526445 
2214.000000	96.524758 
2213.000000	96.523037 
2212.000000	96.521317 
2211.000000	96.519641 
2210.000000	96.518023 
2209.000000	96.516451 
2208.000000	96.514912 
2207.000000	96.513382 
2206.000000	96.511842 
2205.000000	96.510274 
2204.000000	96.508660 
2203.000000	96.506997 
2202.000000	96.505325 
2201.000000	96.503700 
2200.000000	96.502091 
2199.000000	96.500356 
2198.000000	96.498363 
2197.000000	96.496149 
2196.000000	96.493978 
2195.000000	96.492098 
2194.000000	96.490481 
2193.000000	96.488906 
2192.000000	96.487342 
2191.000000	96.485948 
2190.000000	96.484660 
2189.000000	96.483191 
2188.000000	96.481600 
2187.000000	96.480241 
2186.000000	96.478836 
2185.000000	96.476351 
2184.000000	96.472532 
2183.000000	96.469153 
2182.000000	96.468303 
2181.000000	96.469937 
2180.000000	96.471563 
2179.000000	96.471065 
2178.000000	96.468831 
2177.000000	96.466727 
2176.000000	96.465949 
2175.000000	96.466330 
2174.000000	96.467041 
2173.000000	96.467387 
2172.000000	96.467521 
2171.000000	96.468564 
2170.000000	96.471199 
2169.000000	96.474047 
2168.000000	96.474639 
2167.000000	96.472329 
2166.000000	96.468873 
2165.000000	96.465589 
2164.000000	96.461556 
2163.000000	96.456135 
2162.000000	96.451873 
2161.000000	96.452535 
2160.000000	96.458878 
2159.000000	96.467876 
2158.000000	96.475742 
2157.000000	96.480760 
2156.000000	96.483204 
2155.000000	96.484352 
2154.000000	96.485989 
2153.000000	96.489655 
2152.000000	96.495383 
2151.000000	96.501121 
2150.000000	96.504067 
2149.000000	96.503439 
2148.000000	96.502044 
2147.000000	96.503988 
2146.000000	96.510339 
2145.000000	96.518086 
2144.000000	96.523935 
2143.000000	96.527969 
2142.000000	96.532144 
2141.000000	96.536670 
2140.000000	96.540125 
2139.000000	96.542547 
2138.000000	96.545958 
2137.000000	96.551262 
2136.000000	96.556489 
2135.000000	96.558867 
2134.000000	96.557589 
2133.000000	96.554555 
2132.000000	96.553233 
2131.000000	96.556096 
2130.000000	96.562496 
2129.000000	96.568949 
2128.000000	96.572467 
2127.000000	96.573519 
2126.000000	96.574865 
2125.000000	96.577903 
2124.000000	96.581340 
2123.000000	96.583406 
2122.000000	96.583788 
2121.000000	96.583130 
2120.000000	96.581941 
2119.000000	96.580581 
2118.000000	96.579684 
2117.000000	96.579934 
2116.000000	96.581449 
2115.000000	96.583457 
2114.000000	96.584538 
2113.000000	96.583659 
2112.000000	96.581300 
2111.000000	96.579413 
2110.000000	96.579610 
2109.000000	96.581578 
2108.000000	96.583621 
2107.000000	96.584574 
2106.000000	96.584658 
2105.000000	96.584588 
2104.000000	96.584761 
2103.000000	96.585238 
2102.000000	96.585584 
2101.000000	96.584705 
2100.000000	96.581840 
2099.000000	96.577996 
2098.000000	96.575604 
2097.000000	96.576062 
2096.000000	96.578520 
2095.000000	96.580977 
2094.000000	96.582245 
2093.000000	96.582293 
2092.000000	96.581347 
2091.000000	96.579727 
2090.000000	96.578245 
2089.000000	96.577810 
2088.000000	96.578400 
2087.000000	96.578829 
2086.000000	96.577746 
2085.000000	96.574778 
2084.000000	96.570807 
2083.000000	96.567208 
2082.000000	96.564708 
2081.000000	96.563059 
2080.000000	96.561872 
2079.000000	96.561385 
2078.000000	96.561813 
2077.000000	96.562245 
2076.000000	96.561255 
2075.000000	96.558640 
2074.000000	96.555488 
2073.000000	96.552136 
2072.000000	96.547649 
2071.000000	96.541839 
2070.000000	96.536261 
2069.000000	96.532540 
2068.000000	96.530666 
2067.000000	96.529493 
2066.000000	96.528026 
2065.000000	96.525742 
2064.000000	96.522329 
2063.000000	96.518048 
2062.000000	96.514121 
2061.000000	96.511862 
2060.000000	96.511383 
2059.000000	96.511758 
2058.000000	96.511806 
2057.000000	96.510659 
2056.000000	96.507989 
2055.000000	96.504049 
2054.000000	96.499694 
2053.000000	96.495848 
2052.000000	96.492823 
2051.000000	96.490265 
2050.000000	96.487651 
2049.000000	96.484811 
2048.000000	96.482024 
2047.000000	96.479658 
2046.000000	96.477800 
2045.000000	96.476206 
2044.000000	96.474590 
2043.000000	96.472883 
2042.000000	96.471213 
2041.000000	96.469720 
2040.000000	96.468485 
2039.000000	96.467611 
2038.000000	96.467154 
2037.000000	96.466833 
2036.000000	96.466059 
2035.000000	96.464503 
2034.000000	96.462518 
2033.000000	96.460947 
2032.000000	96.460282 
2031.000000	96.460191 
2030.000000	96.459804 
2029.000000	96.458537 
2028.000000	96.456530 
2027.000000	96.454399 
2026.000000	96.452580 
2025.000000	96.451143 
2024.000000	96.450230 
2023.000000	96.450319 
2022.000000	96.451734 
2021.000000	96.453984 
2020.000000	96.455729 
2019.000000	96.455777 
2018.000000	96.453864 
2017.000000	96.450843 
2016.000000	96.448211 
2015.000000	96.446944 
2014.000000	96.446778 
2013.000000	96.446383 
2012.000000	96.444822 
2011.000000	96.442986 
2010.000000	96.442785 
2009.000000	96.444793 
2008.000000	96.447506 
2007.000000	96.449286 
2006.000000	96.450246 
2005.000000	96.451328 
2004.000000	96.452588 
2003.000000	96.453624 
2002.000000	96.454977 
2001.000000	96.457346 
2000.000000	96.459559 
1999.000000	96.459010 
1998.000000	96.454419 
1997.000000	96.447323 
1996.000000	96.440963 
1995.000000	96.437707 
1994.000000	96.437780 
1993.000000	96.439643 
1992.000000	96.441110 
1991.000000	96.441167 
1990.000000	96.440849 
1989.000000	96.441921 
1988.000000	96.444679 
1987.000000	96.447295 
1986.000000	96.447519 
1985.000000	96.444963 
1984.000000	96.441365 
1983.000000	96.438754 
1982.000000	96.437649 
1981.000000	96.437259 
1980.000000	96.437087 
1979.000000	96.437572 
1978.000000	96.438736 
1977.000000	96.439315 
1976.000000	96.438282 
1975.000000	96.436747 
1974.000000	96.437177 
1973.000000	96.440864 
1972.000000	96.446795 
1971.000000	96.452700 
1970.000000	96.456702 
1969.000000	96.457974 
1968.000000	96.456684 
1967.000000	96.454061 
1966.000000	96.452289 
1965.000000	96.453263 
1964.000000	96.457347 
1963.000000	96.463398 
1962.000000	96.469686 
1961.000000	96.474827 
1960.000000	96.478071 
1959.000000	96.479307 
1958.000000	96.479350 
1957.000000	96.479842 
1956.000000	96.482019 
1955.000000	96.485573 
1954.000000	96.489073 
1953.000000	96.491598 
1952.000000	96.493423 
1951.000000	96.495063 
1950.000000	96.496601 
1949.000000	96.498281 
1948.000000	96.500845 
1947.000000	96.504599 
1946.000000	96.508547 
1945.000000	96.511222 
1944.000000	96.512183 
1943.000000	96.512193 
1942.000000	96.512351 
1941.000000	96.513285 
1940.000000	96.515111 
1939.000000	96.517544 
1938.000000	96.520014 
1937.000000	96.522263 
1936.000000	96.524690 
1935.000000	96.527596 
1934.000000	96.530485 
1933.000000	96.532779 
1932.000000	96.534807 
1931.000000	96.537413 
1930.000000	96.540802 
1929.000000	96.544127 
1928.000000	96.546545 
1927.000000	96.548096 
1926.000000	96.549232 
1925.000000	96.550100 
1924.000000	96.550699 
1923.000000	96.551414 
1922.000000	96.552597 
1921.000000	96.553959 
1920.000000	96.555138 
1919.000000	96.556311 
1918.000000	96.557647 
1917.000000	96.558648 
1916.000000	96.558951 
1915.000000	96.559286 
1914.000000	96.560570 
1913.000000	96.562618 
1912.000000	96.564427 
1911.000000	96.565563 
1910.000000	96.566490 
1909.000000	96.567650 
1908.000000	96.568999 
1907.000000	96.570305 
1906.000000	96.571330 
1905.000000	96.571800 
1904.000000	96.571690 
1903.000000	96.571573 
1902.000000	96.572068 
1901.000000	96.573094 
1900.000000	96.574119 
1899.000000	96.574892 
1898.000000	96.575582 
1897.000000	96.576313 
1896.000000	96.576932 
1895.000000	96.577319 
1894.000000	96.577562 
1893.000000	96.577756 
1892.000000	96.577927 
1891.000000	96.578171 
1890.000000	96.578628 
1889.000000	96.579279 
1888.000000	96.579969 
1887.000000	96.580638 
1886.000000	96.581321 
1885.000000	96.581984 
1884.000000	96.582564 
1883.000000	96.583082 
1882.000000	96.583638 
1881.000000	96.584327 
1880.000000	96.585155 
1879.000000	96.586063 
1878.000000	96.586975 
1877.000000	96.587876 
1876.000000	96.588806 
1875.000000	96.589820 
1874.000000	96.590935 
1873.000000	96.592094 
1872.000000	96.593203 
1871.000000	96.594228 
1870.000000	96.595217 
1869.000000	96.596224 
1868.000000	96.597241 
1867.000000	96.598307 
1866.000000	96.599509 
1865.000000	96.600759 
1864.000000	96.601858 
1863.000000	96.602839 
1862.000000	96.604040 
1861.000000	96.605653 
1860.000000	96.607472 
1859.000000	96.609210 
1858.000000	96.610916 
1857.000000	96.612704 
1856.000000	96.614488 
1855.000000	96.616174 
1854.000000	96.617791 
1853.000000	96.619294 
1852.000000	96.620652 
1851.000000	96.622103 
1850.000000	96.623939 
1849.000000	96.626096 
1848.000000	96.628138 
1847.000000	96.629836 
1846.000000	96.631429 
1845.000000	96.633210 
1844.000000	96.635085 
1843.000000	96.636826 
1842.000000	96.638518 
1841.000000	96.640360 
1840.000000	96.642555 
1839.000000	96.645250 
1838.000000	96.648168 
1837.000000	96.650464 
1836.000000	96.651553 
1835.000000	96.651928 
1834.000000	96.652640 
1833.000000	96.653901 
1832.000000	96.655261 
1831.000000	96.656376 
1830.000000	96.657177 
1829.000000	96.657828 
1828.000000	96.658567 
1827.000000	96.659624 
1826.000000	96.661173 
1825.000000	96.663041 
1824.000000	96.664594 
1823.000000	96.665408 
1822.000000	96.665860 
1821.000000	96.666484 
1820.000000	96.667158 
1819.000000	96.667462 
1818.000000	96.667828 
1817.000000	96.669153 
1816.000000	96.671107 
1815.000000	96.672655 
1814.000000	96.673850 
1813.000000	96.675709 
1812.000000	96.678101 
1811.000000	96.679091 
1810.000000	96.678125 
1809.000000	96.677044 
1808.000000	96.676985 
1807.000000	96.677418 
1806.000000	96.678176 
1805.000000	96.679592 
1804.000000	96.680887 
1803.000000	96.680656 
1802.000000	96.678820 
1801.000000	96.677233 
1800.000000	96.677068 
1799.000000	96.677399 
1798.000000	96.677936 
1797.000000	96.679010 
1796.000000	96.679546 
1795.000000	96.678643 
1794.000000	96.677553 
1793.000000	96.678490 
1792.000000	96.680719 
1791.000000	96.681345 
1790.000000	96.680910 
1789.000000	96.681899 
1788.000000	96.684279 
1787.000000	96.686241 
1786.000000	96.687356 
1785.000000	96.688529 
1784.000000	96.689603 
1783.000000	96.690269 
1782.000000	96.690997 
1781.000000	96.692364 
1780.000000	96.694311 
1779.000000	96.696225 
1778.000000	96.698584 
1777.000000	96.701784 
1776.000000	96.704965 
1775.000000	96.707149 
1774.000000	96.707943 
1773.000000	96.708238 
1772.000000	96.709087 
1771.000000	96.709504 
1770.000000	96.708660 
1769.000000	96.708091 
1768.000000	96.709555 
1767.000000	96.712586 
1766.000000	96.715326 
1765.000000	96.717277 
1764.000000	96.719361 
1763.000000	96.721705 
1762.000000	96.723129 
1761.000000	96.723353 
1760.000000	96.723354 
1759.000000	96.723516 
1758.000000	96.723546 
1757.000000	96.723306 
1756.000000	96.723693 
1755.000000	96.724493 
1754.000000	96.723840 
1753.000000	96.720805 
1752.000000	96.717241 
1751.000000	96.716413 
1750.000000	96.718925 
1749.000000	96.722376 
1748.000000	96.724783 
1747.000000	96.726170 
1746.000000	96.726560 
1745.000000	96.726390 
1744.000000	96.727067 
1743.000000	96.728702 
1742.000000	96.729711 
1741.000000	96.729684 
1740.000000	96.730119 
1739.000000	96.731714 
1738.000000	96.732673 
1737.000000	96.731813 
1736.000000	96.729670 
1735.000000	96.727675 
1734.000000	96.726858 
1733.000000	96.726243 
1732.000000	96.725555 
1731.000000	96.726581 
1730.000000	96.730107 
1729.000000	96.733758 
1728.000000	96.735495 
1727.000000	96.735518 
1726.000000	96.734905 
1725.000000	96.734142 
1724.000000	96.733288 
1723.000000	96.732249 
1722.000000	96.731287 
1721.000000	96.730331 
1720.000000	96.729083 
1719.000000	96.727129 
1718.000000	96.724677 
1717.000000	96.722778 
1716.000000	96.720495 
1715.000000	96.717139 
1714.000000	96.714889 
1713.000000	96.714481 
1712.000000	96.714024 
1711.000000	96.712523 
1710.000000	96.710690 
1709.000000	96.708825 
1708.000000	96.706477 
1707.000000	96.703774 
1706.000000	96.701607 
1705.000000	96.699936 
1704.000000	96.696989 
1703.000000	96.692356 
1702.000000	96.687157 
1701.000000	96.683344 
1700.000000	96.681027 
1699.000000	96.678078 
1698.000000	96.674534 
1697.000000	96.671687 
1696.000000	96.669362 
1695.000000	96.666603 
1694.000000	96.663221 
1693.000000	96.659667 
1692.000000	96.656133 
1691.000000	96.652519 
1690.000000	96.648789 
1689.000000	96.644984 
1688.000000	96.641129 
1687.000000	96.637209 
1686.000000	96.633206 
1685.000000	96.629252 
1684.000000	96.625279 
1683.000000	96.621082 
1682.000000	96.616765 
1681.000000	96.612435 
1680.000000	96.608422 
1679.000000	96.604764 
1678.000000	96.601041 
1677.000000	96.596623 
1676.000000	96.591869 
1675.000000	96.587707 
1674.000000	96.583194 
1673.000000	96.577007 
1672.000000	96.570441 
1671.000000	96.565750 
1670.000000	96.563133 
1669.000000	96.559876 
1668.000000	96.555897 
1667.000000	96.553763 
1666.000000	96.552767 
1665.000000	96.550942 
1664.000000	96.548361 
1663.000000	96.546426 
1662.000000	96.543730 
1661.000000	96.536465 
1660.000000	96.527128 
1659.000000	96.521302 
1658.000000	96.520735 
1657.000000	96.520197 
1656.000000	96.518243 
1655.000000	96.515501 
1654.000000	96.513671 
1653.000000	96.509200 
1652.000000	96.496660 
1651.000000	96.481157 
1650.000000	96.466294 
1649.000000	96.457515 
1648.000000	96.452864 
1647.000000	96.450687 
1646.000000	96.449047 
1645.000000	96.448580 
1644.000000	96.445828 
1643.000000	96.441746 
1642.000000	96.439464 
1641.000000	96.440045 
1640.000000	96.441278 
1639.000000	96.440369 
1638.000000	96.437603 
1637.000000	96.434759 
1636.000000	96.432525 
1635.000000	96.432979 
1634.000000	96.436303 
1633.000000	96.438909 
1632.000000	96.438553 
1631.000000	96.437066 
1630.000000	96.438145 
1629.000000	96.441608 
1628.000000	96.444534 
1627.000000	96.446726 
1626.000000	96.449340 
1625.000000	96.451666 
1624.000000	96.454055 
1623.000000	96.459598 
1622.000000	96.468456 
1621.000000	96.474941 
1620.000000	96.477751 
1619.000000	96.481792 
1618.000000	96.490532 
1617.000000	96.498898 
1616.000000	96.499617 
1615.000000	96.497103 
1614.000000	96.497528 
1613.000000	96.499118 
1612.000000	96.498585 
1611.000000	96.498123 
1610.000000	96.501439 
1609.000000	96.507344 
1608.000000	96.513568 
1607.000000	96.521194 
1606.000000	96.529151 
1605.000000	96.533674 
1604.000000	96.536070 
1603.000000	96.541003 
1602.000000	96.548933 
1601.000000	96.555908 
1600.000000	96.560541 
1599.000000	96.565302 
1598.000000	96.570595 
1597.000000	96.574303 
1596.000000	96.576458 
1595.000000	96.580161 
1594.000000	96.586702 
1593.000000	96.592904 
1592.000000	96.596197 
1591.000000	96.598447 
1590.000000	96.602003 
1589.000000	96.605695 
1588.000000	96.608446 
1587.000000	96.612547 
1586.000000	96.619050 
1585.000000	96.623912 
1584.000000	96.625204 
1583.000000	96.627270 
1582.000000	96.632645 
1581.000000	96.638149 
1580.000000	96.641493 
1579.000000	96.645621 
1578.000000	96.653280 
1577.000000	96.662225 
1576.000000	96.667740 
1575.000000	96.669922 
1574.000000	96.669862 
1573.000000	96.667350 
1572.000000	96.665379 
1571.000000	96.666920 
1570.000000	96.669664 
1569.000000	96.665259 
1568.000000	96.655221 
1567.000000	96.648040 
1566.000000	96.645899 
1565.000000	96.644494 
1564.000000	96.643622 
1563.000000	96.643630 
1562.000000	96.643384 
1561.000000	96.636766 
1560.000000	96.628260 
1559.000000	96.627819 
1558.000000	96.630615 
1557.000000	96.630039 
1556.000000	96.625096 
1555.000000	96.625237 
1554.000000	96.626847 
1553.000000	96.627545 
1552.000000	96.625727 
1551.000000	96.623505 
1550.000000	96.620708 
1549.000000	96.617598 
1548.000000	96.614939 
1547.000000	96.613731 
1546.000000	96.612820 
1545.000000	96.610730 
1544.000000	96.607712 
1543.000000	96.604874 
1542.000000	96.603933 
1541.000000	96.606166 
1540.000000	96.605247 
1539.000000	96.598511 
1538.000000	96.590045 
1537.000000	96.579793 
1536.000000	96.568900 
1535.000000	96.559933 
1534.000000	96.555384 
1533.000000	96.554176 
1532.000000	96.552486 
1531.000000	96.547193 
1530.000000	96.539793 
1529.000000	96.532530 
1528.000000	96.524977 
1527.000000	96.516608 
1526.000000	96.508733 
1525.000000	96.503028 
1524.000000	96.499384 
1523.000000	96.496087 
1522.000000	96.491472 
1521.000000	96.484127 
1520.000000	96.473168 
1519.000000	96.459712 
1518.000000	96.446544 
1517.000000	96.436068 
1516.000000	96.428226 
1515.000000	96.421912 
1514.000000	96.416394 
1513.000000	96.411860 
1512.000000	96.407240 
1511.000000	96.399415 
1510.000000	96.387519 
1509.000000	96.374545 
1508.000000	96.364892 
1507.000000	96.357665 
1506.000000	96.350984 
1505.000000	96.344818 
1504.000000	96.336670 
1503.000000	96.326824 
1502.000000	96.316156 
1501.000000	96.306214 
1500.000000	96.297748 
1499.000000	96.289597 
1498.000000	96.279062 
1497.000000	96.267542 
1496.000000	96.258754 
1495.000000	96.252591 
1494.000000	96.246949 
1493.000000	96.241456 
1492.000000	96.236631 
1491.000000	96.232123 
1490.000000	96.226907 
1489.000000	96.221368 
1488.000000	96.214675 
1487.000000	96.204838 
1486.000000	96.193984 
1485.000000	96.183354 
1484.000000	96.172500 
1483.000000	96.162258 
1482.000000	96.153471 
1481.000000	96.146184 
1480.000000	96.138693 
1479.000000	96.129635 
1478.000000	96.119512 
1477.000000	96.109813 
1476.000000	96.099551 
1475.000000	96.086400 
1474.000000	96.071240 
1473.000000	96.058868 
1472.000000	96.052625 
1471.000000	96.049087 
1470.000000	96.044597 
1469.000000	96.039455 
1468.000000	96.033820 
1467.000000	96.026137 
1466.000000	96.016458 
1465.000000	96.007750 
1464.000000	96.002490 
1463.000000	95.997663 
1462.000000	95.990038 
1461.000000	95.981650 
1460.000000	95.975862 
1459.000000	95.971492 
1458.000000	95.959092 
1457.000000	95.936652 
1456.000000	95.919468 
1455.000000	95.912908 
1454.000000	95.908286 
1453.000000	95.904422 
1452.000000	95.903450 
1451.000000	95.905194 
1450.000000	95.906886 
1449.000000	95.909300 
1448.000000	95.913615 
1447.000000	95.917132 
1446.000000	95.916000 
1445.000000	95.911384 
1444.000000	95.908106 
1443.000000	95.906141 
1442.000000	95.902572 
1441.000000	95.897237 
1440.000000	95.892646 
1439.000000	95.888097 
1438.000000	95.879142 
1437.000000	95.867191 
1436.000000	95.860896 
1435.000000	95.861104 
1434.000000	95.861176 
1433.000000	95.860871 
1432.000000	95.862625 
1431.000000	95.865583 
1430.000000	95.866120 
1429.000000	95.865022 
1428.000000	95.866114 
1427.000000	95.869789 
1426.000000	95.872721 
1425.000000	95.872952 
1424.000000	95.874970 
1423.000000	95.880198 
1422.000000	95.883333 
1421.000000	95.881674 
1420.000000	95.879845 
1419.000000	95.879036 
1418.000000	95.872784 
1417.000000	95.865122 
1416.000000	95.867132 
1415.000000	95.879191 
1414.000000	95.890274 
1413.000000	95.893175 
1412.000000	95.892728 
1411.000000	95.895464 
1410.000000	95.899754 
1409.000000	95.903449 
1408.000000	95.908715 
1407.000000	95.916911 
1406.000000	95.925373 
1405.000000	95.932945 
1404.000000	95.945153 
1403.000000	95.962618 
1402.000000	95.977804 
1401.000000	95.987690 
1400.000000	95.997859 
1399.000000	96.012688 
1398.000000	96.026907 
1397.000000	96.034408 
1396.000000	96.037760 
1395.000000	96.044631 
1394.000000	96.057163 
1393.000000	96.072857 
1392.000000	96.092483 
1391.000000	96.115618 
1390.000000	96.137197 
1389.000000	96.152114 
1388.000000	96.159903 
1387.000000	96.164311 
1386.000000	96.169171 
1385.000000	96.176748 
1384.000000	96.188885 
1383.000000	96.204806 
1382.000000	96.220383 
1381.000000	96.232573 
1380.000000	96.241809 
1379.000000	96.251082 
1378.000000	96.262652 
1377.000000	96.276317 
1376.000000	96.290473 
1375.000000	96.303868 
1374.000000	96.315957 
1373.000000	96.327849 
1372.000000	96.341417 
1371.000000	96.357356 
1370.000000	96.374318 
1369.000000	96.389026 
1368.000000	96.401270 
1367.000000	96.413264 
1366.000000	96.425640 
1365.000000	96.437570 
1364.000000	96.448154 
1363.000000	96.456786 
1362.000000	96.464347 
1361.000000	96.473054 
1360.000000	96.484506 
1359.000000	96.499000 
1358.000000	96.515034 
1357.000000	96.529754 
1356.000000	96.541486 
1355.000000	96.550703 
1354.000000	96.558892 
1353.000000	96.568016 
1352.000000	96.578295 
1351.000000	96.589237 
1350.000000	96.601060 
1349.000000	96.611497 
1348.000000	96.618700 
1347.000000	96.623951 
1346.000000	96.630719 
1345.000000	96.640228 
1344.000000	96.650320 
1343.000000	96.658401 
1342.000000	96.664085 
1341.000000	96.668034 
1340.000000	96.670528 
1339.000000	96.672350 
1338.000000	96.674743 
1337.000000	96.678172 
1336.000000	96.682163 
1335.000000	96.685844 
1334.000000	96.688899 
1333.000000	96.691951 
1332.000000	96.695558 
1331.000000	96.699775 
1330.000000	96.704366 
1329.000000	96.708977 
1328.000000	96.713225 
1327.000000	96.717118 
1326.000000	96.720400 
1325.000000	96.721400 
1324.000000	96.719543 
1323.000000	96.715856 
1322.000000	96.711383 
1321.000000	96.706940 
1320.000000	96.704449 
1319.000000	96.705868 
1318.000000	96.710519 
1317.000000	96.715548 
1316.000000	96.718827 
1315.000000	96.719918 
1314.000000	96.719022 
1313.000000	96.717475 
1312.000000	96.717963 
1311.000000	96.721819 
1310.000000	96.726547 
1309.000000	96.728584 
1308.000000	96.727733 
1307.000000	96.727267 
1306.000000	96.729684 
1305.000000	96.733769 
1304.000000	96.737338 
1303.000000	96.739132 
1302.000000	96.738469 
1301.000000	96.735403 
1300.000000	96.732137 
1299.000000	96.731696 
1298.000000	96.734377 
1297.000000	96.737092 
1296.000000	96.736911 
1295.000000	96.734224 
1294.000000	96.731564 
1293.000000	96.730820 
1292.000000	96.732100 
1291.000000	96.734155 
1290.000000	96.735546 
1289.000000	96.735954 
1288.000000	96.736178 
1287.000000	96.736516 
1286.000000	96.735912 
1285.000000	96.733914 
1284.000000	96.732406 
1283.000000	96.733298 
1282.000000	96.735334 
1281.000000	96.735257 
1280.000000	96.732019 
1279.000000	96.728117 
1278.000000	96.726443 
1277.000000	96.727734 
1276.000000	96.731034 
1275.000000	96.735010 
1274.000000	96.738039 
1273.000000	96.738845 
1272.000000	96.737916 
1271.000000	96.737007 
1270.000000	96.736648 
1269.000000	96.735493 
1268.000000	96.732782 
1267.000000	96.729592 
1266.000000	96.726957 
1265.000000	96.725129 
1264.000000	96.724881 
1263.000000	96.727102 
1262.000000	96.730561 
1261.000000	96.732256 
1260.000000	96.731374 
1259.000000	96.731026 
1258.000000	96.733989 
1257.000000	96.738659 
1256.000000	96.740755 
1255.000000	96.738391 
1254.000000	96.734234 
1253.000000	96.732459 
1252.000000	96.733930 
1251.000000	96.735240 
1250.000000	96.733010 
1249.000000	96.728607 
1248.000000	96.727089 
1247.000000	96.730780 
1246.000000	96.735627 
1245.000000	96.735989 
1244.000000	96.731245 
1243.000000	96.725795 
1242.000000	96.724193 
1241.000000	96.728260 
1240.000000	96.737009 
1239.000000	96.746413 
1238.000000	96.750606 
1237.000000	96.746554 
1236.000000	96.737198 
1235.000000	96.728080 
1234.000000	96.721672 
1233.000000	96.716954 
1232.000000	96.712850 
1231.000000	96.708821 
1230.000000	96.703446 
1229.000000	96.695964 
1228.000000	96.688152 
1227.000000	96.681300 
1226.000000	96.672400 
1225.000000	96.657062 
1224.000000	96.635654 
1223.000000	96.612844 
1222.000000	96.591194 
1221.000000	96.568897 
1220.000000	96.544137 
1219.000000	96.517771 
1218.000000	96.490562 
1217.000000	96.461162 
1216.000000	96.428110 
1215.000000	96.391446 
1214.000000	96.351927 
1213.000000	96.311121 
1212.000000	96.271980 
1211.000000	96.235646 
1210.000000	96.197882 
1209.000000	96.152805 
1208.000000	96.100815 
1207.000000	96.049009 
1206.000000	96.002470 
1205.000000	95.958478 
1204.000000	95.910939 
1203.000000	95.857446 
1202.000000	95.800412 
1201.000000	95.743688 
1200.000000	95.689688 
1199.000000	95.638132 
1198.000000	95.586279 
1197.000000	95.531783 
1196.000000	95.475466 
1195.000000	95.419796 
1194.000000	95.365226 
1193.000000	95.309956 
1192.000000	95.252826 
1191.000000	95.193925 
1190.000000	95.132803 
1189.000000	95.068711 
1188.000000	95.002304 
1187.000000	94.934623 
1186.000000	94.865040 
1185.000000	94.792784 
1184.000000	94.719371 
1183.000000	94.646607 
1182.000000	94.573557 
1181.000000	94.498701 
1180.000000	94.423301 
1179.000000	94.348545 
1178.000000	94.270906 
1177.000000	94.185481 
1176.000000	94.093146 
1175.000000	93.999343 
1174.000000	93.906390 
1173.000000	93.812391 
1172.000000	93.717534 
1171.000000	93.624896 
1170.000000	93.534168 
1169.000000	93.441359 
1168.000000	93.346931 
1167.000000	93.258709 
1166.000000	93.184863 
1165.000000	93.129518 
1164.000000	93.096649 
1163.000000	93.091273 
1162.000000	93.112832 
1161.000000	93.151349 
1160.000000	93.192656 
1159.000000	93.224437 
1158.000000	93.236907 
1157.000000	93.223371 
1156.000000	93.183196 
1155.000000	93.121632 
1154.000000	93.045415 
1153.000000	92.960800 
1152.000000	92.875056 
1151.000000	92.794495 
1150.000000	92.719532 
1149.000000	92.646123 
1148.000000	92.572950 
1147.000000	92.502339 
1146.000000	92.433671 
1145.000000	92.361938 
1144.000000	92.284684 
1143.000000	92.205004 
1142.000000	92.125664 
1141.000000	92.045392 
1140.000000	91.963062 
1139.000000	91.880522 
1138.000000	91.799163 
1137.000000	91.718092 
1136.000000	91.637006 
1135.000000	91.556131 
1134.000000	91.472535 
1133.000000	91.382149 
1132.000000	91.286561 
1131.000000	91.192059 
1130.000000	91.100714 
1129.000000	91.008388 
1128.000000	90.912795 
1127.000000	90.816740 
1126.000000	90.721328 
1125.000000	90.622698 
1124.000000	90.518400 
1123.000000	90.411433 
1122.000000	90.305399 
1121.000000	90.200927 
1120.000000	90.098794 
1119.000000	90.000674 
1118.000000	89.904932 
1117.000000	89.807905 
1116.000000	89.711198 
1115.000000	89.621504 
1114.000000	89.541427 
1113.000000	89.466534 
1112.000000	89.392485 
1111.000000	89.318385 
1110.000000	89.242378 
1109.000000	89.161785 
1108.000000	89.078806 
1107.000000	88.998068 
1106.000000	88.918253 
1105.000000	88.833794 
1104.000000	88.744656 
1103.000000	88.656246 
1102.000000	88.569011 
1101.000000	88.478543 
1100.000000	88.386052 
1099.000000	88.297763 
1098.000000	88.216082 
1097.000000	88.137167 
1096.000000	88.059215 
1095.000000	87.982434 
1094.000000	87.901670 
1093.000000	87.810422 
1092.000000	87.713363 
1091.000000	87.623704 
1090.000000	87.546436 
1089.000000	87.474407 
1088.000000	87.401402 
1087.000000	87.327396 
1086.000000	87.250387 
1085.000000	87.166117 
1084.000000	87.078255 
1083.000000	86.996697 
1082.000000	86.922901 
1081.000000	86.848227 
1080.000000	86.768856 
1079.000000	86.690266 
1078.000000	86.614588 
1077.000000	86.535635 
1076.000000	86.449335 
1075.000000	86.357465 
1074.000000	86.258830 
1073.000000	86.148376 
1072.000000	86.026459 
1071.000000	85.896447 
1070.000000	85.751719 
1069.000000	85.579247 
1068.000000	85.379692 
1067.000000	85.171451 
1066.000000	84.971060 
1065.000000	84.781030 
1064.000000	84.599237 
1063.000000	84.424856 
1062.000000	84.249974 
1061.000000	84.060380 
1060.000000	83.852135 
1059.000000	83.636507 
1058.000000	83.423624 
1057.000000	83.212103 
1056.000000	82.998194 
1055.000000	82.782103 
1054.000000	82.560616 
1053.000000	82.326364 
1052.000000	82.080259 
1051.000000	81.832819 
1050.000000	81.588211 
1049.000000	81.340258 
1048.000000	81.087776 
1047.000000	80.838149 
1046.000000	80.592784 
1045.000000	80.344874 
1044.000000	80.093720 
1043.000000	79.846367 
1042.000000	79.603371 
1041.000000	79.357974 
1040.000000	79.111489 
1039.000000	78.874456 
1038.000000	78.650571 
1037.000000	78.434876 
1036.000000	78.229015 
1035.000000	78.041572 
1034.000000	77.871884 
1033.000000	77.710643 
1032.000000	77.557543 
1031.000000	77.420381 
1030.000000	77.296353 
1029.000000	77.174220 
1028.000000	77.056535 
1027.000000	76.958904 
1026.000000	76.884447 
1025.000000	76.819142 
1024.000000	76.754957 
1023.000000	76.696778 
1022.000000	76.643270 
1021.000000	76.582667 
1020.000000	76.512318 
1019.000000	76.442488 
1018.000000	76.376618 
1017.000000	76.307414 
1016.000000	76.235813 
1015.000000	76.173274 
1014.000000	76.120989 
1013.000000	76.066867 
1012.000000	76.007298 
1011.000000	75.952318 
1010.000000	75.905690 
1009.000000	75.860322 
1008.000000	75.817267 
1007.000000	75.788642 
1006.000000	75.777276 
1005.000000	75.773348 
1004.000000	75.774666 
1003.000000	75.789537 
1002.000000	75.815750 
1001.000000	75.838621 
1000.000000	75.855489 
999.000000	 75.881256 
998.000000	 75.923526 
997.000000	 75.972157 
996.000000	 76.019252 
995.000000	 76.070394 
994.000000	 76.130009 
993.000000	 76.193861 
992.000000	 76.261304 
991.000000	 76.337330 
990.000000	 76.418368 
989.000000	 76.494079 
988.000000	 76.566859 
987.000000	 76.651117 
986.000000	 76.750313 
985.000000	 76.854172 
984.000000	 76.961348 
983.000000	 77.083785 
982.000000	 77.223909 
981.000000	 77.368247 
980.000000	 77.509720 
979.000000	 77.657100 
978.000000	 77.816382 
977.000000	 77.981844 
976.000000	 78.151633 
975.000000	 78.333633 
974.000000	 78.528925 
973.000000	 78.726419 
972.000000	 78.920554 
971.000000	 79.118751 
970.000000	 79.325725 
969.000000	 79.535629 
968.000000	 79.744457 
967.000000	 79.955342 
966.000000	 80.167466 
965.000000	 80.374649 
964.000000	 80.578671 
963.000000	 80.789211 
962.000000	 81.007143 
961.000000	 81.222238 
960.000000	 81.429854 
959.000000	 81.634877 
958.000000	 81.836980 
957.000000	 82.027905 
956.000000	 82.206691 
955.000000	 82.382540 
954.000000	 82.559233 
953.000000	 82.730832 
952.000000	 82.895180 
951.000000	 83.056640 
950.000000	 83.213288 
949.000000	 83.356990 
948.000000	 83.488925 
947.000000	 83.619481 
946.000000	 83.749443 
945.000000	 83.866721 
944.000000	 83.965736 
943.000000	 84.055404 
942.000000	 84.144168 
941.000000	 84.231314 
940.000000	 84.317143 
939.000000	 84.406846 
938.000000	 84.499311 
937.000000	 84.585954 
936.000000	 84.665640 
935.000000	 84.748046 
934.000000	 84.838302 
933.000000	 84.931333 
932.000000	 85.024925 
931.000000	 85.124424 
930.000000	 85.229951 
929.000000	 85.332344 
928.000000	 85.426899 
927.000000	 85.519152 
926.000000	 85.612593 
925.000000	 85.701877 
924.000000	 85.782105 
923.000000	 85.854296 
922.000000	 85.919159 
921.000000	 85.976221 
920.000000	 86.030658 
919.000000	 86.089286 
918.000000	 86.148188 
917.000000	 86.196518 
916.000000	 86.234454 
915.000000	 86.275344 
914.000000	 86.328813 
913.000000	 86.394498 
912.000000	 86.473398 
911.000000	 86.571310 
910.000000	 86.688604 
909.000000	 86.820042 
908.000000	 86.966973 
907.000000	 87.136693 
906.000000	 87.328286 
905.000000	 87.532031 
904.000000	 87.743251 
903.000000	 87.963223 
902.000000	 88.186915 
901.000000	 88.405185 
900.000000	 88.619836 
899.000000	 88.841664 
898.000000	 89.072553 
897.000000	 89.302734 
896.000000	 89.525630 
895.000000	 89.740980 
894.000000	 89.944218 
893.000000	 90.128741 
892.000000	 90.299731 
891.000000	 90.470682 
890.000000	 90.644069 
889.000000	 90.808664 
888.000000	 90.956907 
887.000000	 91.091405 
886.000000	 91.214301 
885.000000	 91.324595 
884.000000	 91.426291 
883.000000	 91.524300 
882.000000	 91.612420 
881.000000	 91.682414 
880.000000	 91.745887 
879.000000	 91.828074 
878.000000	 91.935751 
877.000000	 92.049891 
876.000000	 92.154749 
875.000000	 92.255304 
874.000000	 92.361074 
873.000000	 92.473005 
872.000000	 92.594178 
871.000000	 92.734545 
870.000000	 92.894862 
869.000000	 93.060338 
868.000000	 93.218361 
867.000000	 93.370276 
866.000000	 93.520511 
865.000000	 93.667881 
864.000000	 93.814286 
863.000000	 93.969314 
862.000000	 94.137897 
861.000000	 94.312553 
860.000000	 94.483865 
859.000000	 94.649718 
858.000000	 94.809556 
857.000000	 94.958719 
856.000000	 95.093579 
855.000000	 95.214761 
854.000000	 95.321709 
853.000000	 95.411669 
852.000000	 95.487092 
851.000000	 95.556718 
850.000000	 95.626823 
849.000000	 95.698115 
848.000000	 95.771219 
847.000000	 95.845605 
846.000000	 95.912797 
845.000000	 95.962003 
844.000000	 95.994512 
843.000000	 96.022296 
842.000000	 96.050607 
841.000000	 96.072228 
840.000000	 96.080212 
839.000000	 96.074631 
838.000000	 96.055237 
837.000000	 96.020466 
836.000000	 95.977711 
835.000000	 95.942399 
834.000000	 95.920905 
833.000000	 95.904518 
832.000000	 95.885431 
831.000000	 95.868329 
830.000000	 95.861026 
829.000000	 95.864704 
828.000000	 95.880604 
827.000000	 95.915848 
826.000000	 95.973205 
825.000000	 96.042441 
824.000000	 96.109076 
823.000000	 96.165069 
822.000000	 96.207885 
821.000000	 96.239023 
820.000000	 96.266768 
819.000000	 96.300402 
818.000000	 96.337648 
817.000000	 96.364648 
816.000000	 96.369511 
815.000000	 96.349366 
814.000000	 96.305162 
813.000000	 96.238055 
812.000000	 96.150336 
811.000000	 96.039455 
810.000000	 95.889550 
809.000000	 95.679429 
808.000000	 95.402845 
807.000000	 95.074314 
806.000000	 94.714708 
805.000000	 94.340055 
804.000000	 93.965213 
803.000000	 93.605888 
802.000000	 93.272420 
801.000000	 92.972518 
800.000000	 92.722816 
799.000000	 92.544646 
798.000000	 92.444059 
797.000000	 92.407432 
796.000000	 92.418207 
795.000000	 92.464632 
794.000000	 92.531306 
793.000000	 92.600767 
792.000000	 92.667013 
791.000000	 92.732773 
790.000000	 92.791846 
789.000000	 92.829422 
788.000000	 92.840705 
787.000000	 92.832218 
786.000000	 92.802541 
785.000000	 92.738883 
784.000000	 92.636991 
783.000000	 92.509313 
782.000000	 92.370423 
781.000000	 92.230938 
780.000000	 92.108862 
779.000000	 92.027656 
778.000000	 91.995804 
777.000000	 92.004016 
776.000000	 92.046981 
775.000000	 92.129627 
774.000000	 92.246193 
773.000000	 92.372739 
772.000000	 92.489837 
771.000000	 92.597462 
770.000000	 92.700555 
769.000000	 92.795883 
768.000000	 92.879753 
767.000000	 92.952355 
766.000000	 93.007306 
765.000000	 93.033486 
764.000000	 93.035962 
763.000000	 93.039681 
762.000000	 93.062922 
761.000000	 93.100421 
760.000000	 93.140196 
759.000000	 93.181493 
758.000000	 93.226985 
757.000000	 93.273462 
756.000000	 93.322376 
755.000000	 93.386087 
754.000000	 93.470100 
753.000000	 93.558413 
752.000000	 93.628020 
751.000000	 93.671930 
750.000000	 93.701656 
749.000000	 93.734978 
748.000000	 93.786443 
747.000000	 93.859922 
746.000000	 93.943721 
745.000000	 94.021358 
744.000000	 94.091599 
743.000000	 94.168510 
742.000000	 94.259650 
741.000000	 94.357217 
740.000000	 94.454435 
739.000000	 94.556184 
738.000000	 94.666656 
737.000000	 94.778850 
736.000000	 94.883851 
735.000000	 94.980414 
734.000000	 95.069497 
733.000000	 95.149314 
732.000000	 95.220547 
731.000000	 95.285937 
730.000000	 95.340836 
729.000000	 95.375402 
728.000000	 95.390603 
727.000000	 95.402010 
726.000000	 95.424703 
725.000000	 95.464320 
724.000000	 95.522894 
723.000000	 95.599113 
722.000000	 95.680252 
721.000000	 95.748683 
720.000000	 95.801655 
719.000000	 95.851855 
718.000000	 95.905322 
717.000000	 95.955140 
716.000000	 95.998767 
715.000000	 96.042854 
714.000000	 96.087085 
713.000000	 96.121530 
712.000000	 96.146507 
711.000000	 96.177139 
710.000000	 96.220174 
709.000000	 96.262886 
708.000000	 96.293394 
707.000000	 96.314563 
706.000000	 96.328379 
705.000000	 96.324437 
704.000000	 96.295086 
703.000000	 96.245993 
702.000000	 96.179619 
701.000000	 96.082609 
700.000000	 95.941782 
699.000000	 95.761580 
698.000000	 95.557906 
697.000000	 95.349272 
696.000000	 95.163629 
695.000000	 95.037111 
694.000000	 94.990309 
693.000000	 95.013312 
692.000000	 95.081385 
691.000000	 95.175281 
690.000000	 95.281330 
689.000000	 95.386227 
688.000000	 95.482417 
687.000000	 95.569367 
686.000000	 95.643222 
685.000000	 95.698002 
684.000000	 95.740476 
683.000000	 95.786955 
682.000000	 95.841276 
681.000000	 95.892145 
680.000000	 95.934471 
679.000000	 95.975787 
678.000000	 96.018492 
677.000000	 96.055905 
676.000000	 96.093868 
675.000000	 96.146411 
674.000000	 96.204036 
673.000000	 96.238134 
672.000000	 96.241420 
671.000000	 96.237628 
670.000000	 96.251405 
669.000000	 96.299803 
668.000000	 96.394975 
667.000000	 96.506220 
666.000000	 96.580837 
665.000000	 96.603123 
664.000000	 96.594841 
663.000000	 96.592860 
662.000000	 96.619029 
661.000000	 96.659926 
660.000000	 96.696073 
659.000000	 96.731516 
658.000000	 96.773092 
657.000000	 96.805051 
656.000000	 96.811972 
655.000000	 96.799996 
654.000000	 96.775906 
653.000000	 96.733763 
652.000000	 96.682739 
651.000000	 96.661732 
650.000000	 96.691656 

