4000.000000	97.769841 
3999.000000	97.768077 
3998.000000	97.764132 
3997.000000	97.759177 
3996.000000	97.754651 
3995.000000	97.751546 
3994.000000	97.750479 
3993.000000	97.751517 
3992.000000	97.753781 
3991.000000	97.755990 
3990.000000	97.757479 
3989.000000	97.758315 
3988.000000	97.758679 
3987.000000	97.758697 
3986.000000	97.758820 
3985.000000	97.759643 
3984.000000	97.761049 
3983.000000	97.762152 
3982.000000	97.762405 
3981.000000	97.762204 
3980.000000	97.762090 
3979.000000	97.761817 
3978.000000	97.760914 
3977.000000	97.759818 
3976.000000	97.759476 
3975.000000	97.759825 
3974.000000	97.759565 
3973.000000	97.757723 
3972.000000	97.754734 
3971.000000	97.751842 
3970.000000	97.750079 
3969.000000	97.749844 
3968.000000	97.750951 
3967.000000	97.752673 
3966.000000	97.754051 
3965.000000	97.754416 
3964.000000	97.753618 
3963.000000	97.752006 
3962.000000	97.750277 
3961.000000	97.749210 
3960.000000	97.749013 
3959.000000	97.749020 
3958.000000	97.748649 
3957.000000	97.748036 
3956.000000	97.747524 
3955.000000	97.746860 
3954.000000	97.745463 
3953.000000	97.743255 
3952.000000	97.740811 
3951.000000	97.738954 
3950.000000	97.738140 
3949.000000	97.738159 
3948.000000	97.738291 
3947.000000	97.737988 
3946.000000	97.737262 
3945.000000	97.736357 
3944.000000	97.735458 
3943.000000	97.734865 
3942.000000	97.735095 
3941.000000	97.736518 
3940.000000	97.738618 
3939.000000	97.739842 
3938.000000	97.739275 
3937.000000	97.737503 
3936.000000	97.735576 
3935.000000	97.733601 
3934.000000	97.731304 
3933.000000	97.729670 
3932.000000	97.729987 
3931.000000	97.731705 
3930.000000	97.732639 
3929.000000	97.731626 
3928.000000	97.730008 
3927.000000	97.729328 
3926.000000	97.729102 
3925.000000	97.728184 
3924.000000	97.727057 
3923.000000	97.726674 
3922.000000	97.726142 
3921.000000	97.724287 
3920.000000	97.722340 
3919.000000	97.722427 
3918.000000	97.724402 
3917.000000	97.726208 
3916.000000	97.726899 
3915.000000	97.727234 
3914.000000	97.727585 
3913.000000	97.727266 
3912.000000	97.726212 
3911.000000	97.724756 
3910.000000	97.723243 
3909.000000	97.721723 
3908.000000	97.720376 
3907.000000	97.719446 
3906.000000	97.718932 
3905.000000	97.718660 
3904.000000	97.718529 
3903.000000	97.718508 
3902.000000	97.718471 
3901.000000	97.718357 
3900.000000	97.718258 
3899.000000	97.718154 
3898.000000	97.718025 
3897.000000	97.717865 
3896.000000	97.717675 
3895.000000	97.717443 
3894.000000	97.717155 
3893.000000	97.716815 
3892.000000	97.716438 
3891.000000	97.716039 
3890.000000	97.715641 
3889.000000	97.715271 
3888.000000	97.714941 
3887.000000	97.714641 
3886.000000	97.714370 
3885.000000	97.714136 
3884.000000	97.713950 
3883.000000	97.713798 
3882.000000	97.713657 
3881.000000	97.713516 
3880.000000	97.713388 
3879.000000	97.713288 
3878.000000	97.713209 
3877.000000	97.713126 
3876.000000	97.713016 
3875.000000	97.712885 
3874.000000	97.712763 
3873.000000	97.712680 
3872.000000	97.712642 
3871.000000	97.712637 
3870.000000	97.712664 
3869.000000	97.712749 
3868.000000	97.712914 
3867.000000	97.713135 
3866.000000	97.713365 
3865.000000	97.713590 
3864.000000	97.713825 
3863.000000	97.714062 
3862.000000	97.714266 
3861.000000	97.714415 
3860.000000	97.714526 
3859.000000	97.714620 
3858.000000	97.714710 
3857.000000	97.714813 
3856.000000	97.714974 
3855.000000	97.715241 
3854.000000	97.715620 
3853.000000	97.716091 
3852.000000	97.716680 
3851.000000	97.717438 
3850.000000	97.718344 
3849.000000	97.719331 
3848.000000	97.720340 
3847.000000	97.721339 
3846.000000	97.722317 
3845.000000	97.723276 
3844.000000	97.724220 
3843.000000	97.725142 
3842.000000	97.726042 
3841.000000	97.726932 
3840.000000	97.727831 
3839.000000	97.728739 
3838.000000	97.729640 
3837.000000	97.730525 
3836.000000	97.731405 
3835.000000	97.732299 
3834.000000	97.733217 
3833.000000	97.734151 
3832.000000	97.735090 
3831.000000	97.736028 
3830.000000	97.736964 
3829.000000	97.737895 
3828.000000	97.738818 
3827.000000	97.739719 
3826.000000	97.740588 
3825.000000	97.741434 
3824.000000	97.742280 
3823.000000	97.743133 
3822.000000	97.743976 
3821.000000	97.744797 
3820.000000	97.745627 
3819.000000	97.746505 
3818.000000	97.747413 
3817.000000	97.748299 
3816.000000	97.749142 
3815.000000	97.749965 
3814.000000	97.750791 
3813.000000	97.751594 
3812.000000	97.752330 
3811.000000	97.752994 
3810.000000	97.753606 
3809.000000	97.754154 
3808.000000	97.754606 
3807.000000	97.754960 
3806.000000	97.755271 
3805.000000	97.755604 
3804.000000	97.755976 
3803.000000	97.756361 
3802.000000	97.756735 
3801.000000	97.757108 
3800.000000	97.757507 
3799.000000	97.757935 
3798.000000	97.758347 
3797.000000	97.758707 
3796.000000	97.759019 
3795.000000	97.759296 
3794.000000	97.759538 
3793.000000	97.759731 
3792.000000	97.759861 
3791.000000	97.759915 
3790.000000	97.759892 
3789.000000	97.759796 
3788.000000	97.759638 
3787.000000	97.759423 
3786.000000	97.759148 
3785.000000	97.758808 
3784.000000	97.758422 
3783.000000	97.758012 
3782.000000	97.757568 
3781.000000	97.757064 
3780.000000	97.756490 
3779.000000	97.755858 
3778.000000	97.755179 
3777.000000	97.754453 
3776.000000	97.753683 
3775.000000	97.752893 
3774.000000	97.752107 
3773.000000	97.751321 
3772.000000	97.750511 
3771.000000	97.749660 
3770.000000	97.748777 
3769.000000	97.747884 
3768.000000	97.746987 
3767.000000	97.746081 
3766.000000	97.745163 
3765.000000	97.744249 
3764.000000	97.743353 
3763.000000	97.742456 
3762.000000	97.741524 
3761.000000	97.740541 
3760.000000	97.739522 
3759.000000	97.738480 
3758.000000	97.737407 
3757.000000	97.736293 
3756.000000	97.735158 
3755.000000	97.734046 
3754.000000	97.732995 
3753.000000	97.732027 
3752.000000	97.731148 
3751.000000	97.730342 
3750.000000	97.729586 
3749.000000	97.728883 
3748.000000	97.728266 
3747.000000	97.727748 
3746.000000	97.727304 
3745.000000	97.726899 
3744.000000	97.726517 
3743.000000	97.726179 
3742.000000	97.725891 
3741.000000	97.725597 
3740.000000	97.725256 
3739.000000	97.724888 
3738.000000	97.724529 
3737.000000	97.724191 
3736.000000	97.723859 
3735.000000	97.723510 
3734.000000	97.723135 
3733.000000	97.722714 
3732.000000	97.722156 
3731.000000	97.721400 
3730.000000	97.720622 
3729.000000	97.719958 
3728.000000	97.719198 
3727.000000	97.718152 
3726.000000	97.717122 
3725.000000	97.716602 
3724.000000	97.716419 
3723.000000	97.715820 
3722.000000	97.714531 
3721.000000	97.712905 
3720.000000	97.711296 
3719.000000	97.709470 
3718.000000	97.707039 
3717.000000	97.704331 
3716.000000	97.702168 
3715.000000	97.700710 
3714.000000	97.699467 
3713.000000	97.698708 
3712.000000	97.698666 
3711.000000	97.697823 
3710.000000	97.694913 
3709.000000	97.690339 
3708.000000	97.684865 
3707.000000	97.679030 
3706.000000	97.673450 
3705.000000	97.668502 
3704.000000	97.664007 
3703.000000	97.659502 
3702.000000	97.654329 
3701.000000	97.648250 
3700.000000	97.642291 
3699.000000	97.637273 
3698.000000	97.632386 
3697.000000	97.626909 
3696.000000	97.621409 
3695.000000	97.616421 
3694.000000	97.611396 
3693.000000	97.605716 
3692.000000	97.599699 
3691.000000	97.593896 
3690.000000	97.588173 
3689.000000	97.582029 
3688.000000	97.575642 
3687.000000	97.569616 
3686.000000	97.563880 
3685.000000	97.557981 
3684.000000	97.551801 
3683.000000	97.545498 
3682.000000	97.539153 
3681.000000	97.532760 
3680.000000	97.526345 
3679.000000	97.519932 
3678.000000	97.513521 
3677.000000	97.507114 
3676.000000	97.500694 
3675.000000	97.494256 
3674.000000	97.487835 
3673.000000	97.481453 
3672.000000	97.475079 
3671.000000	97.468688 
3670.000000	97.462290 
3669.000000	97.455918 
3668.000000	97.449606 
3667.000000	97.443369 
3666.000000	97.437216 
3665.000000	97.431109 
3664.000000	97.425056 
3663.000000	97.419073 
3662.000000	97.412987 
3661.000000	97.406507 
3660.000000	97.399633 
3659.000000	97.392922 
3658.000000	97.386778 
3657.000000	97.380473 
3656.000000	97.372481 
3655.000000	97.363781 
3654.000000	97.356876 
3653.000000	97.350065 
3652.000000	97.340413 
3651.000000	97.331337 
3650.000000	97.327908 
3649.000000	97.327082 
3648.000000	97.322486 
3647.000000	97.315476 
3646.000000	97.312329 
3645.000000	97.314539 
3644.000000	97.317988 
3643.000000	97.318775 
3642.000000	97.317449 
3641.000000	97.316468 
3640.000000	97.315667 
3639.000000	97.312119 
3638.000000	97.304978 
3637.000000	97.298001 
3636.000000	97.292801 
3635.000000	97.284658 
3634.000000	97.269454 
3633.000000	97.251640 
3632.000000	97.238575 
3631.000000	97.231651 
3630.000000	97.229902 
3629.000000	97.227251 
3628.000000	97.220670 
3627.000000	97.223718 
3626.000000	97.236948 
3625.000000	97.242061 
3624.000000	97.234538 
3623.000000	97.223863 
3622.000000	97.215731 
3621.000000	97.208498 
3620.000000	97.201090 
3619.000000	97.195174 
3618.000000	97.193783 
3617.000000	97.200606 
3616.000000	97.213993 
3615.000000	97.227671 
3614.000000	97.238371 
3613.000000	97.247295 
3612.000000	97.256481 
3611.000000	97.265281 
3610.000000	97.270923 
3609.000000	97.273146 
3608.000000	97.275020 
3607.000000	97.278746 
3606.000000	97.283259 
3605.000000	97.286239 
3604.000000	97.288461 
3603.000000	97.293531 
3602.000000	97.301660 
3601.000000	97.307993 
3600.000000	97.308931 
3599.000000	97.305705 
3598.000000	97.301269 
3597.000000	97.299198 
3596.000000	97.301823 
3595.000000	97.307548 
3594.000000	97.311435 
3593.000000	97.310021 
3592.000000	97.303433 
3591.000000	97.293696 
3590.000000	97.284213 
3589.000000	97.279866 
3588.000000	97.283484 
3587.000000	97.292538 
3586.000000	97.302813 
3585.000000	97.311604 
3584.000000	97.317243 
3583.000000	97.320098 
3582.000000	97.322097 
3581.000000	97.324174 
3580.000000	97.325540 
3579.000000	97.325468 
3578.000000	97.324196 
3577.000000	97.322634 
3576.000000	97.321486 
3575.000000	97.320482 
3574.000000	97.318714 
3573.000000	97.315244 
3572.000000	97.309712 
3571.000000	97.302622 
3570.000000	97.295600 
3569.000000	97.291311 
3568.000000	97.292212 
3567.000000	97.298049 
3566.000000	97.305569 
3565.000000	97.311370 
3564.000000	97.313585 
3563.000000	97.312418 
3562.000000	97.310076 
3561.000000	97.308939 
3560.000000	97.309550 
3559.000000	97.310698 
3558.000000	97.310981 
3557.000000	97.310015 
3556.000000	97.308615 
3555.000000	97.307869 
3554.000000	97.308082 
3553.000000	97.308558 
3552.000000	97.308330 
3551.000000	97.306997 
3550.000000	97.304730 
3549.000000	97.302062 
3548.000000	97.300094 
3547.000000	97.299982 
3546.000000	97.301629 
3545.000000	97.303671 
3544.000000	97.305036 
3543.000000	97.305752 
3542.000000	97.306203 
3541.000000	97.306430 
3540.000000	97.306319 
3539.000000	97.305888 
3538.000000	97.305306 
3537.000000	97.304825 
3536.000000	97.304630 
3535.000000	97.304717 
3534.000000	97.304848 
3533.000000	97.304843 
3532.000000	97.304816 
3531.000000	97.305018 
3530.000000	97.305392 
3529.000000	97.305519 
3528.000000	97.305140 
3527.000000	97.304465 
3526.000000	97.303914 
3525.000000	97.303751 
3524.000000	97.304036 
3523.000000	97.304706 
3522.000000	97.305573 
3521.000000	97.306287 
3520.000000	97.306617 
3519.000000	97.306634 
3518.000000	97.306533 
3517.000000	97.306393 
3516.000000	97.306100 
3515.000000	97.305580 
3514.000000	97.305030 
3513.000000	97.304762 
3512.000000	97.304842 
3511.000000	97.305048 
3510.000000	97.305126 
3509.000000	97.305019 
3508.000000	97.304836 
3507.000000	97.304641 
3506.000000	97.304356 
3505.000000	97.303923 
3504.000000	97.303441 
3503.000000	97.303072 
3502.000000	97.302870 
3501.000000	97.302769 
3500.000000	97.302681 
3499.000000	97.302590 
3498.000000	97.302504 
3497.000000	97.302361 
3496.000000	97.302048 
3495.000000	97.301520 
3494.000000	97.300880 
3493.000000	97.300315 
3492.000000	97.299919 
3491.000000	97.299636 
3490.000000	97.299354 
3489.000000	97.299009 
3488.000000	97.298592 
3487.000000	97.298085 
3486.000000	97.297461 
3485.000000	97.296763 
3484.000000	97.296096 
3483.000000	97.295513 
3482.000000	97.294980 
3481.000000	97.294444 
3480.000000	97.293896 
3479.000000	97.293334 
3478.000000	97.292707 
3477.000000	97.291959 
3476.000000	97.291096 
3475.000000	97.290185 
3474.000000	97.289317 
3473.000000	97.288538 
3472.000000	97.287834 
3471.000000	97.287142 
3470.000000	97.286398 
3469.000000	97.285594 
3468.000000	97.284771 
3467.000000	97.283982 
3466.000000	97.283256 
3465.000000	97.282565 
3464.000000	97.281808 
3463.000000	97.280868 
3462.000000	97.279718 
3461.000000	97.278473 
3460.000000	97.277304 
3459.000000	97.276277 
3458.000000	97.275311 
3457.000000	97.274285 
3456.000000	97.273167 
3455.000000	97.272063 
3454.000000	97.271105 
3453.000000	97.270325 
3452.000000	97.269656 
3451.000000	97.269014 
3450.000000	97.268334 
3449.000000	97.267527 
3448.000000	97.266511 
3447.000000	97.265290 
3446.000000	97.263966 
3445.000000	97.262668 
3444.000000	97.261496 
3443.000000	97.260520 
3442.000000	97.259736 
3441.000000	97.258994 
3440.000000	97.258053 
3439.000000	97.256779 
3438.000000	97.255268 
3437.000000	97.253805 
3436.000000	97.252639 
3435.000000	97.251860 
3434.000000	97.251394 
3433.000000	97.251029 
3432.000000	97.250545 
3431.000000	97.249883 
3430.000000	97.249144 
3429.000000	97.248433 
3428.000000	97.247690 
3427.000000	97.246753 
3426.000000	97.245589 
3425.000000	97.244415 
3424.000000	97.243497 
3423.000000	97.242871 
3422.000000	97.242327 
3421.000000	97.241695 
3420.000000	97.241049 
3419.000000	97.240537 
3418.000000	97.240135 
3417.000000	97.239683 
3416.000000	97.239124 
3415.000000	97.238552 
3414.000000	97.238036 
3413.000000	97.237514 
3412.000000	97.236916 
3411.000000	97.236279 
3410.000000	97.235727 
3409.000000	97.235355 
3408.000000	97.235158 
3407.000000	97.235021 
3406.000000	97.234796 
3405.000000	97.234423 
3404.000000	97.233963 
3403.000000	97.233529 
3402.000000	97.233166 
3401.000000	97.232848 
3400.000000	97.232573 
3399.000000	97.232396 
3398.000000	97.232350 
3397.000000	97.232398 
3396.000000	97.232467 
3395.000000	97.232511 
3394.000000	97.232522 
3393.000000	97.232514 
3392.000000	97.232502 
3391.000000	97.232499 
3390.000000	97.232516 
3389.000000	97.232581 
3388.000000	97.232740 
3387.000000	97.233023 
3386.000000	97.233410 
3385.000000	97.233817 
3384.000000	97.234155 
3383.000000	97.234395 
3382.000000	97.234613 
3381.000000	97.234949 
3380.000000	97.235456 
3379.000000	97.236035 
3378.000000	97.236536 
3377.000000	97.236958 
3376.000000	97.237468 
3375.000000	97.238159 
3374.000000	97.238863 
3373.000000	97.239306 
3372.000000	97.239405 
3371.000000	97.239388 
3370.000000	97.239600 
3369.000000	97.240217 
3368.000000	97.241169 
3367.000000	97.242222 
3366.000000	97.243118 
3365.000000	97.243712 
3364.000000	97.244056 
3363.000000	97.244349 
3362.000000	97.244777 
3361.000000	97.245398 
3360.000000	97.246189 
3359.000000	97.247103 
3358.000000	97.248061 
3357.000000	97.248986 
3356.000000	97.249882 
3355.000000	97.250848 
3354.000000	97.251995 
3353.000000	97.253348 
3352.000000	97.254817 
3351.000000	97.256213 
3350.000000	97.257387 
3349.000000	97.258363 
3348.000000	97.259315 
3347.000000	97.260400 
3346.000000	97.261577 
3345.000000	97.262613 
3344.000000	97.263178 
3343.000000	97.263033 
3342.000000	97.262311 
3341.000000	97.261670 
3340.000000	97.261770 
3339.000000	97.262598 
3338.000000	97.263584 
3337.000000	97.264269 
3336.000000	97.264707 
3335.000000	97.265160 
3334.000000	97.265687 
3333.000000	97.266203 
3332.000000	97.266719 
3331.000000	97.267328 
3330.000000	97.268044 
3329.000000	97.268795 
3328.000000	97.269569 
3327.000000	97.270438 
3326.000000	97.271406 
3325.000000	97.272357 
3324.000000	97.273145 
3323.000000	97.273724 
3322.000000	97.274182 
3321.000000	97.274667 
3320.000000	97.275273 
3319.000000	97.275983 
3318.000000	97.276728 
3317.000000	97.277453 
3316.000000	97.278134 
3315.000000	97.278765 
3314.000000	97.279351 
3313.000000	97.279913 
3312.000000	97.280480 
3311.000000	97.281068 
3310.000000	97.281677 
3309.000000	97.282296 
3308.000000	97.282916 
3307.000000	97.283533 
3306.000000	97.284151 
3305.000000	97.284781 
3304.000000	97.285432 
3303.000000	97.286106 
3302.000000	97.286802 
3301.000000	97.287511 
3300.000000	97.288219 
3299.000000	97.288915 
3298.000000	97.289592 
3297.000000	97.290256 
3296.000000	97.290928 
3295.000000	97.291629 
3294.000000	97.292372 
3293.000000	97.293152 
3292.000000	97.293956 
3291.000000	97.294769 
3290.000000	97.295576 
3289.000000	97.296362 
3288.000000	97.297123 
3287.000000	97.297866 
3286.000000	97.298598 
3285.000000	97.299320 
3284.000000	97.300027 
3283.000000	97.300724 
3282.000000	97.301429 
3281.000000	97.302157 
3280.000000	97.302908 
3279.000000	97.303665 
3278.000000	97.304412 
3277.000000	97.305161 
3276.000000	97.305933 
3275.000000	97.306727 
3274.000000	97.307520 
3273.000000	97.308311 
3272.000000	97.309128 
3271.000000	97.309990 
3270.000000	97.310885 
3269.000000	97.311781 
3268.000000	97.312649 
3267.000000	97.313486 
3266.000000	97.314313 
3265.000000	97.315159 
3264.000000	97.316047 
3263.000000	97.316972 
3262.000000	97.317903 
3261.000000	97.318800 
3260.000000	97.319647 
3259.000000	97.320460 
3258.000000	97.321272 
3257.000000	97.322126 
3256.000000	97.323076 
3255.000000	97.324146 
3254.000000	97.325280 
3253.000000	97.326373 
3252.000000	97.327368 
3251.000000	97.328303 
3250.000000	97.329219 
3249.000000	97.330089 
3248.000000	97.330861 
3247.000000	97.331557 
3246.000000	97.332286 
3245.000000	97.333144 
3244.000000	97.334130 
3243.000000	97.335140 
3242.000000	97.336068 
3241.000000	97.336900 
3240.000000	97.337682 
3239.000000	97.338444 
3238.000000	97.339231 
3237.000000	97.340183 
3236.000000	97.341471 
3235.000000	97.343085 
3234.000000	97.344731 
3233.000000	97.346024 
3232.000000	97.346798 
3231.000000	97.347209 
3230.000000	97.347605 
3229.000000	97.348232 
3228.000000	97.349099 
3227.000000	97.350118 
3226.000000	97.351353 
3225.000000	97.353022 
3224.000000	97.355146 
3223.000000	97.357354 
3222.000000	97.359189 
3221.000000	97.360552 
3220.000000	97.361660 
3219.000000	97.362606 
3218.000000	97.363290 
3217.000000	97.363728 
3216.000000	97.364094 
3215.000000	97.364588 
3214.000000	97.365424 
3213.000000	97.366779 
3212.000000	97.368469 
3211.000000	97.369857 
3210.000000	97.370446 
3209.000000	97.370524 
3208.000000	97.370874 
3207.000000	97.371824 
3206.000000	97.372991 
3205.000000	97.374003 
3204.000000	97.375075 
3203.000000	97.376607 
3202.000000	97.378548 
3201.000000	97.380421 
3200.000000	97.381833 
3199.000000	97.382811 
3198.000000	97.383711 
3197.000000	97.384849 
3196.000000	97.386125 
3195.000000	97.387090 
3194.000000	97.387519 
3193.000000	97.387875 
3192.000000	97.388917 
3191.000000	97.390852 
3190.000000	97.393108 
3189.000000	97.394942 
3188.000000	97.396147 
3187.000000	97.397113 
3186.000000	97.398460 
3185.000000	97.400541 
3184.000000	97.403074 
3183.000000	97.405348 
3182.000000	97.406975 
3181.000000	97.408219 
3180.000000	97.409498 
3179.000000	97.410809 
3178.000000	97.411921 
3177.000000	97.412924 
3176.000000	97.414193 
3175.000000	97.415915 
3174.000000	97.417959 
3173.000000	97.420112 
3172.000000	97.422106 
3171.000000	97.423567 
3170.000000	97.424295 
3169.000000	97.424597 
3168.000000	97.425085 
3167.000000	97.426049 
3166.000000	97.427304 
3165.000000	97.428569 
3164.000000	97.429729 
3163.000000	97.430778 
3162.000000	97.431739 
3161.000000	97.432696 
3160.000000	97.433759 
3159.000000	97.434958 
3158.000000	97.436249 
3157.000000	97.437615 
3156.000000	97.439036 
3155.000000	97.440425 
3154.000000	97.441695 
3153.000000	97.442882 
3152.000000	97.444098 
3151.000000	97.445372 
3150.000000	97.446619 
3149.000000	97.447761 
3148.000000	97.448813 
3147.000000	97.449843 
3146.000000	97.450918 
3145.000000	97.452058 
3144.000000	97.453244 
3143.000000	97.454418 
3142.000000	97.455519 
3141.000000	97.456530 
3140.000000	97.457488 
3139.000000	97.458460 
3138.000000	97.459490 
3137.000000	97.460575 
3136.000000	97.461676 
3135.000000	97.462732 
3134.000000	97.463701 
3133.000000	97.464603 
3132.000000	97.465528 
3131.000000	97.466554 
3130.000000	97.467671 
3129.000000	97.468825 
3128.000000	97.470007 
3127.000000	97.471245 
3126.000000	97.472555 
3125.000000	97.473917 
3124.000000	97.475274 
3123.000000	97.476508 
3122.000000	97.477470 
3121.000000	97.478153 
3120.000000	97.478780 
3119.000000	97.479599 
3118.000000	97.480632 
3117.000000	97.481738 
3116.000000	97.482842 
3115.000000	97.483997 
3114.000000	97.485228 
3113.000000	97.486493 
3112.000000	97.487799 
3111.000000	97.489226 
3110.000000	97.490761 
3109.000000	97.492217 
3108.000000	97.493417 
3107.000000	97.494380 
3106.000000	97.495249 
3105.000000	97.496070 
3104.000000	97.496714 
3103.000000	97.496996 
3102.000000	97.496887 
3101.000000	97.496638 
3100.000000	97.496655 
3099.000000	97.497211 
3098.000000	97.498390 
3097.000000	97.500257 
3096.000000	97.502770 
3095.000000	97.505425 
3094.000000	97.507406 
3093.000000	97.508262 
3092.000000	97.508290 
3091.000000	97.508060 
3090.000000	97.507848 
3089.000000	97.507682 
3088.000000	97.507624 
3087.000000	97.507827 
3086.000000	97.508440 
3085.000000	97.509541 
3084.000000	97.510937 
3083.000000	97.512042 
3082.000000	97.512304 
3081.000000	97.511966 
3080.000000	97.512042 
3079.000000	97.513137 
3078.000000	97.514689 
3077.000000	97.515903 
3076.000000	97.516941 
3075.000000	97.518342 
3074.000000	97.519741 
3073.000000	97.520279 
3072.000000	97.520005 
3071.000000	97.519673 
3070.000000	97.519385 
3069.000000	97.518720 
3068.000000	97.518112 
3067.000000	97.518661 
3066.000000	97.520341 
3065.000000	97.521707 
3064.000000	97.521655 
3063.000000	97.520299 
3062.000000	97.517997 
3061.000000	97.514871 
3060.000000	97.511605 
3059.000000	97.509577 
3058.000000	97.509748 
3057.000000	97.512068 
3056.000000	97.515713 
3055.000000	97.518994 
3054.000000	97.519526 
3053.000000	97.516283 
3052.000000	97.511804 
3051.000000	97.510574 
3050.000000	97.514205 
3049.000000	97.519447 
3048.000000	97.521682 
3047.000000	97.519272 
3046.000000	97.513733 
3045.000000	97.507317 
3044.000000	97.501861 
3043.000000	97.499145 
3042.000000	97.500395 
3041.000000	97.504660 
3040.000000	97.508583 
3039.000000	97.508850 
3038.000000	97.504870 
3037.000000	97.498813 
3036.000000	97.493046 
3035.000000	97.487818 
3034.000000	97.481986 
3033.000000	97.475464 
3032.000000	97.469774 
3031.000000	97.466077 
3030.000000	97.463734 
3029.000000	97.461175 
3028.000000	97.457118 
3027.000000	97.450517 
3026.000000	97.440734 
3025.000000	97.428901 
3024.000000	97.418064 
3023.000000	97.410365 
3022.000000	97.404641 
3021.000000	97.398338 
3020.000000	97.391206 
3019.000000	97.385221 
3018.000000	97.380935 
3017.000000	97.375996 
3016.000000	97.367949 
3015.000000	97.357104 
3014.000000	97.346114 
3013.000000	97.337646 
3012.000000	97.332485 
3011.000000	97.328717 
3010.000000	97.322625 
3009.000000	97.311683 
3008.000000	97.297020 
3007.000000	97.282215 
3006.000000	97.269591 
3005.000000	97.258703 
3004.000000	97.248343 
3003.000000	97.238418 
3002.000000	97.229417 
3001.000000	97.221338 
3000.000000	97.213794 
2999.000000	97.206119 
2998.000000	97.197163 
2997.000000	97.186184 
2996.000000	97.174286 
2995.000000	97.163699 
2994.000000	97.154832 
2993.000000	97.145096 
2992.000000	97.131655 
2991.000000	97.114876 
2990.000000	97.098426 
2989.000000	97.086409 
2988.000000	97.080915 
2987.000000	97.081573 
2986.000000	97.086440 
2985.000000	97.093265 
2984.000000	97.100291 
2983.000000	97.106306 
2982.000000	97.110472 
2981.000000	97.112446 
2980.000000	97.112338 
2979.000000	97.110100 
2978.000000	97.105424 
2977.000000	97.098971 
2976.000000	97.093207 
2975.000000	97.090893 
2974.000000	97.092733 
2973.000000	97.097314 
2972.000000	97.103110 
2971.000000	97.109511 
2970.000000	97.116107 
2969.000000	97.122484 
2968.000000	97.129075 
2967.000000	97.136860 
2966.000000	97.145586 
2965.000000	97.153403 
2964.000000	97.159020 
2963.000000	97.163377 
2962.000000	97.168400 
2961.000000	97.174785 
2960.000000	97.181872 
2959.000000	97.189234 
2958.000000	97.197434 
2957.000000	97.206950 
2956.000000	97.216726 
2955.000000	97.224179 
2954.000000	97.227286 
2953.000000	97.227134 
2952.000000	97.227926 
2951.000000	97.233359 
2950.000000	97.242645 
2949.000000	97.251001 
2948.000000	97.254353 
2947.000000	97.252754 
2946.000000	97.249279 
2945.000000	97.246789 
2944.000000	97.246361 
2943.000000	97.247794 
2942.000000	97.250188 
2941.000000	97.252187 
2940.000000	97.252857 
2939.000000	97.252691 
2938.000000	97.253148 
2937.000000	97.254971 
2936.000000	97.257317 
2935.000000	97.258568 
2934.000000	97.257692 
2933.000000	97.254848 
2932.000000	97.251178 
2931.000000	97.248188 
2930.000000	97.246936 
2929.000000	97.247391 
2928.000000	97.248485 
2927.000000	97.248892 
2926.000000	97.248010 
2925.000000	97.246506 
2924.000000	97.245984 
2923.000000	97.247734 
2922.000000	97.251376 
2921.000000	97.254777 
2920.000000	97.255837 
2919.000000	97.254527 
2918.000000	97.252787 
2917.000000	97.252033 
2916.000000	97.251176 
2915.000000	97.247922 
2914.000000	97.242066 
2913.000000	97.236523 
2912.000000	97.234398 
2911.000000	97.235633 
2910.000000	97.237371 
2909.000000	97.237470 
2908.000000	97.236570 
2907.000000	97.236307 
2906.000000	97.236530 
2905.000000	97.235050 
2904.000000	97.230033 
2903.000000	97.222449 
2902.000000	97.216198 
2901.000000	97.215553 
2900.000000	97.221956 
2899.000000	97.232957 
2898.000000	97.244307 
2897.000000	97.253375 
2896.000000	97.260059 
2895.000000	97.264767 
2894.000000	97.267350 
2893.000000	97.268579 
2892.000000	97.270886 
2891.000000	97.275954 
2890.000000	97.282416 
2889.000000	97.287541 
2888.000000	97.290703 
2887.000000	97.293372 
2886.000000	97.296003 
2885.000000	97.297304 
2884.000000	97.297313 
2883.000000	97.298940 
2882.000000	97.304792 
2881.000000	97.313756 
2880.000000	97.322465 
2879.000000	97.329611 
2878.000000	97.336876 
2877.000000	97.345536 
2876.000000	97.354057 
2875.000000	97.359903 
2874.000000	97.362614 
2873.000000	97.364132 
2872.000000	97.366656 
2871.000000	97.370886 
2870.000000	97.376093 
2869.000000	97.381070 
2868.000000	97.385029 
2867.000000	97.388124 
2866.000000	97.391228 
2865.000000	97.395000 
2864.000000	97.399410 
2863.000000	97.404599 
2862.000000	97.411715 
2861.000000	97.421835 
2860.000000	97.433974 
2859.000000	97.445250 
2858.000000	97.453730 
2857.000000	97.460403 
2856.000000	97.467668 
2855.000000	97.476315 
2854.000000	97.484858 
2853.000000	97.491462 
2852.000000	97.495490 
2851.000000	97.497388 
2850.000000	97.498290 
2849.000000	97.499887 
2848.000000	97.503621 
2847.000000	97.509426 
2846.000000	97.515762 
2845.000000	97.521185 
2844.000000	97.525431 
2843.000000	97.528878 
2842.000000	97.531795 
2841.000000	97.534514 
2840.000000	97.537581 
2839.000000	97.541198 
2838.000000	97.544934 
2837.000000	97.548380 
2836.000000	97.551660 
2835.000000	97.554967 
2834.000000	97.558222 
2833.000000	97.561671 
2832.000000	97.566134 
2831.000000	97.571850 
2830.000000	97.577411 
2829.000000	97.580708 
2828.000000	97.581004 
2827.000000	97.579725 
2826.000000	97.579319 
2825.000000	97.581399 
2824.000000	97.585625 
2823.000000	97.589954 
2822.000000	97.592288 
2821.000000	97.592305 
2820.000000	97.591550 
2819.000000	97.591598 
2818.000000	97.592508 
2817.000000	97.593500 
2816.000000	97.594475 
2815.000000	97.596026 
2814.000000	97.598161 
2813.000000	97.599879 
2812.000000	97.600198 
2811.000000	97.599135 
2810.000000	97.597667 
2809.000000	97.597064 
2808.000000	97.598212 
2807.000000	97.601174 
2806.000000	97.605137 
2805.000000	97.608851 
2804.000000	97.611381 
2803.000000	97.612514 
2802.000000	97.612685 
2801.000000	97.612754 
2800.000000	97.613519 
2799.000000	97.615083 
2798.000000	97.616752 
2797.000000	97.617780 
2796.000000	97.618162 
2795.000000	97.618492 
2794.000000	97.619213 
2793.000000	97.620255 
2792.000000	97.621370 
2791.000000	97.622466 
2790.000000	97.623534 
2789.000000	97.624524 
2788.000000	97.625429 
2787.000000	97.626344 
2786.000000	97.627365 
2785.000000	97.628477 
2784.000000	97.629596 
2783.000000	97.630651 
2782.000000	97.631635 
2781.000000	97.632586 
2780.000000	97.633546 
2779.000000	97.634526 
2778.000000	97.635515 
2777.000000	97.636489 
2776.000000	97.637420 
2775.000000	97.638309 
2774.000000	97.639186 
2773.000000	97.640085 
2772.000000	97.640987 
2771.000000	97.641844 
2770.000000	97.642641 
2769.000000	97.643441 
2768.000000	97.644327 
2767.000000	97.645306 
2766.000000	97.646308 
2765.000000	97.647266 
2764.000000	97.648177 
2763.000000	97.649049 
2762.000000	97.649832 
2761.000000	97.650453 
2760.000000	97.650962 
2759.000000	97.651541 
2758.000000	97.652327 
2757.000000	97.653227 
2756.000000	97.653974 
2755.000000	97.654418 
2754.000000	97.654700 
2753.000000	97.655096 
2752.000000	97.655689 
2751.000000	97.656321 
2750.000000	97.656901 
2749.000000	97.657583 
2748.000000	97.658509 
2747.000000	97.659435 
2746.000000	97.659911 
2745.000000	97.659826 
2744.000000	97.659574 
2743.000000	97.659649 
2742.000000	97.660104 
2741.000000	97.660612 
2740.000000	97.660919 
2739.000000	97.661097 
2738.000000	97.661339 
2737.000000	97.661726 
2736.000000	97.662231 
2735.000000	97.662810 
2734.000000	97.663422 
2733.000000	97.664031 
2732.000000	97.664629 
2731.000000	97.665234 
2730.000000	97.665865 
2729.000000	97.666554 
2728.000000	97.667318 
2727.000000	97.668077 
2726.000000	97.668652 
2725.000000	97.668936 
2724.000000	97.669021 
2723.000000	97.669115 
2722.000000	97.669345 
2721.000000	97.669699 
2720.000000	97.670157 
2719.000000	97.670748 
2718.000000	97.671463 
2717.000000	97.672189 
2716.000000	97.672797 
2715.000000	97.673279 
2714.000000	97.673736 
2713.000000	97.674245 
2712.000000	97.674794 
2711.000000	97.675327 
2710.000000	97.675837 
2709.000000	97.676365 
2708.000000	97.676944 
2707.000000	97.677568 
2706.000000	97.678214 
2705.000000	97.678852 
2704.000000	97.679446 
2703.000000	97.679963 
2702.000000	97.680401 
2701.000000	97.680812 
2700.000000	97.681270 
2699.000000	97.681811 
2698.000000	97.682420 
2697.000000	97.683027 
2696.000000	97.683539 
2695.000000	97.683917 
2694.000000	97.684198 
2693.000000	97.684459 
2692.000000	97.684741 
2691.000000	97.685037 
2690.000000	97.685324 
2689.000000	97.685596 
2688.000000	97.685860 
2687.000000	97.686120 
2686.000000	97.686373 
2685.000000	97.686614 
2684.000000	97.686840 
2683.000000	97.687043 
2682.000000	97.687212 
2681.000000	97.687341 
2680.000000	97.687437 
2679.000000	97.687514 
2678.000000	97.687580 
2677.000000	97.687640 
2676.000000	97.687692 
2675.000000	97.687723 
2674.000000	97.687716 
2673.000000	97.687665 
2672.000000	97.687590 
2671.000000	97.687522 
2670.000000	97.687461 
2669.000000	97.687385 
2668.000000	97.687286 
2667.000000	97.687187 
2666.000000	97.687103 
2665.000000	97.687007 
2664.000000	97.686863 
2663.000000	97.686673 
2662.000000	97.686488 
2661.000000	97.686349 
2660.000000	97.686244 
2659.000000	97.686122 
2658.000000	97.685958 
2657.000000	97.685772 
2656.000000	97.685599 
2655.000000	97.685428 
2654.000000	97.685203 
2653.000000	97.684879 
2652.000000	97.684480 
2651.000000	97.684111 
2650.000000	97.683873 
2649.000000	97.683789 
2648.000000	97.683794 
2647.000000	97.683783 
2646.000000	97.683654 
2645.000000	97.683312 
2644.000000	97.682705 
2643.000000	97.681920 
2642.000000	97.681218 
2641.000000	97.680846 
2640.000000	97.680827 
2639.000000	97.680972 
2638.000000	97.681126 
2637.000000	97.681303 
2636.000000	97.681523 
2635.000000	97.681696 
2634.000000	97.681731 
2633.000000	97.681650 
2632.000000	97.681485 
2631.000000	97.681173 
2630.000000	97.680694 
2629.000000	97.680229 
2628.000000	97.679996 
2627.000000	97.679958 
2626.000000	97.679875 
2625.000000	97.679670 
2624.000000	97.679554 
2623.000000	97.679719 
2622.000000	97.680056 
2621.000000	97.680250 
2620.000000	97.680057 
2619.000000	97.679392 
2618.000000	97.678320 
2617.000000	97.677144 
2616.000000	97.676346 
2615.000000	97.676212 
2614.000000	97.676590 
2613.000000	97.677002 
2612.000000	97.677100 
2611.000000	97.676941 
2610.000000	97.676829 
2609.000000	97.676998 
2608.000000	97.677385 
2607.000000	97.677672 
2606.000000	97.677630 
2605.000000	97.677410 
2604.000000	97.677354 
2603.000000	97.677513 
2602.000000	97.677590 
2601.000000	97.677430 
2600.000000	97.677224 
2599.000000	97.677046 
2598.000000	97.676617 
2597.000000	97.675756 
2596.000000	97.674748 
2595.000000	97.674047 
2594.000000	97.673742 
2593.000000	97.673619 
2592.000000	97.673606 
2591.000000	97.673802 
2590.000000	97.674096 
2589.000000	97.674137 
2588.000000	97.673772 
2587.000000	97.673274 
2586.000000	97.673042 
2585.000000	97.673215 
2584.000000	97.673656 
2583.000000	97.674124 
2582.000000	97.674388 
2581.000000	97.674345 
2580.000000	97.674131 
2579.000000	97.674046 
2578.000000	97.674269 
2577.000000	97.674690 
2576.000000	97.675025 
2575.000000	97.675070 
2574.000000	97.674838 
2573.000000	97.674516 
2572.000000	97.674316 
2571.000000	97.674275 
2570.000000	97.674247 
2569.000000	97.674116 
2568.000000	97.673999 
2567.000000	97.674114 
2566.000000	97.674473 
2565.000000	97.674851 
2564.000000	97.675050 
2563.000000	97.675077 
2562.000000	97.675080 
2561.000000	97.675240 
2560.000000	97.675700 
2559.000000	97.676481 
2558.000000	97.677401 
2557.000000	97.678114 
2556.000000	97.678416 
2555.000000	97.678387 
2554.000000	97.678317 
2553.000000	97.678405 
2552.000000	97.678578 
2551.000000	97.678692 
2550.000000	97.678762 
2549.000000	97.678897 
2548.000000	97.679046 
2547.000000	97.679021 
2546.000000	97.678815 
2545.000000	97.678716 
2544.000000	97.678940 
2543.000000	97.679285 
2542.000000	97.679364 
2541.000000	97.679151 
2540.000000	97.679059 
2539.000000	97.679398 
2538.000000	97.679985 
2537.000000	97.680382 
2536.000000	97.680445 
2535.000000	97.680366 
2534.000000	97.680299 
2533.000000	97.680154 
2532.000000	97.679871 
2531.000000	97.679612 
2530.000000	97.679547 
2529.000000	97.679593 
2528.000000	97.679494 
2527.000000	97.679177 
2526.000000	97.678898 
2525.000000	97.678996 
2524.000000	97.679519 
2523.000000	97.680145 
2522.000000	97.680485 
2521.000000	97.680440 
2520.000000	97.680186 
2519.000000	97.679896 
2518.000000	97.679602 
2517.000000	97.679309 
2516.000000	97.679020 
2515.000000	97.678620 
2514.000000	97.678026 
2513.000000	97.677500 
2512.000000	97.677482 
2511.000000	97.678106 
2510.000000	97.679114 
2509.000000	97.680197 
2508.000000	97.681183 
2507.000000	97.681872 
2506.000000	97.682144 
2505.000000	97.682289 
2504.000000	97.682820 
2503.000000	97.683778 
2502.000000	97.684561 
2501.000000	97.684689 
2500.000000	97.684347 
2499.000000	97.684124 
2498.000000	97.684308 
2497.000000	97.684714 
2496.000000	97.685145 
2495.000000	97.685669 
2494.000000	97.686349 
2493.000000	97.687011 
2492.000000	97.687459 
2491.000000	97.687769 
2490.000000	97.688183 
2489.000000	97.688781 
2488.000000	97.689378 
2487.000000	97.689765 
2486.000000	97.689949 
2485.000000	97.690130 
2484.000000	97.690492 
2483.000000	97.691030 
2482.000000	97.691576 
2481.000000	97.691985 
2480.000000	97.692272 
2479.000000	97.692589 
2478.000000	97.693064 
2477.000000	97.693673 
2476.000000	97.694213 
2475.000000	97.694416 
2474.000000	97.694160 
2473.000000	97.693662 
2472.000000	97.693391 
2471.000000	97.693647 
2470.000000	97.694292 
2469.000000	97.694917 
2468.000000	97.695228 
2467.000000	97.695198 
2466.000000	97.694914 
2465.000000	97.694498 
2464.000000	97.694217 
2463.000000	97.694466 
2462.000000	97.695513 
2461.000000	97.697282 
2460.000000	97.699354 
2459.000000	97.701153 
2458.000000	97.702126 
2457.000000	97.701962 
2456.000000	97.700760 
2455.000000	97.699100 
2454.000000	97.697792 
2453.000000	97.697264 
2452.000000	97.697216 
2451.000000	97.696998 
2450.000000	97.696503 
2449.000000	97.696427 
2448.000000	97.697349 
2447.000000	97.698867 
2446.000000	97.699985 
2445.000000	97.700279 
2444.000000	97.700163 
2443.000000	97.700103 
2442.000000	97.700105 
2441.000000	97.700044 
2440.000000	97.700041 
2439.000000	97.700331 
2438.000000	97.701128 
2437.000000	97.702679 
2436.000000	97.704986 
2435.000000	97.707355 
2434.000000	97.708787 
2433.000000	97.709010 
2432.000000	97.708750 
2431.000000	97.708793 
2430.000000	97.709270 
2429.000000	97.710070 
2428.000000	97.711280 
2427.000000	97.712853 
2426.000000	97.714257 
2425.000000	97.714789 
2424.000000	97.714213 
2423.000000	97.712857 
2422.000000	97.711154 
2421.000000	97.709781 
2420.000000	97.709821 
2419.000000	97.711742 
2418.000000	97.714724 
2417.000000	97.717739 
2416.000000	97.720542 
2415.000000	97.722825 
2414.000000	97.723583 
2413.000000	97.722758 
2412.000000	97.722254 
2411.000000	97.723651 
2410.000000	97.725905 
2409.000000	97.727087 
2408.000000	97.727311 
2407.000000	97.727966 
2406.000000	97.728989 
2405.000000	97.728941 
2404.000000	97.727378 
2403.000000	97.725371 
2402.000000	97.723962 
2401.000000	97.723702 
2400.000000	97.725333 
2399.000000	97.729293 
2398.000000	97.734701 
2397.000000	97.740011 
2396.000000	97.744291 
2395.000000	97.746831 
2394.000000	97.746420 
2393.000000	97.742932 
2392.000000	97.738948 
2391.000000	97.737984 
2390.000000	97.740903 
2389.000000	97.745633 
2388.000000	97.750310 
2387.000000	97.755056 
2386.000000	97.760481 
2385.000000	97.766003 
2384.000000	97.770293 
2383.000000	97.772156 
2382.000000	97.770353 
2381.000000	97.763909 
2380.000000	97.753401 
2379.000000	97.741152 
2378.000000	97.729302 
2377.000000	97.718610 
2376.000000	97.710079 
2375.000000	97.706330 
2374.000000	97.709323 
2373.000000	97.717428 
2372.000000	97.726521 
2371.000000	97.733994 
2370.000000	97.739749 
2369.000000	97.743394 
2368.000000	97.743301 
2367.000000	97.739121 
2366.000000	97.733128 
2365.000000	97.728237 
2364.000000	97.725703 
2363.000000	97.725280 
2362.000000	97.726633 
2361.000000	97.729558 
2360.000000	97.733333 
2359.000000	97.736764 
2358.000000	97.738192 
2357.000000	97.736842 
2356.000000	97.733629 
2355.000000	97.730248 
2354.000000	97.727050 
2353.000000	97.724411 
2352.000000	97.724019 
2351.000000	97.726403 
2350.000000	97.729608 
2349.000000	97.731217 
2348.000000	97.730891 
2347.000000	97.729886 
2346.000000	97.729637 
2345.000000	97.730676 
2344.000000	97.732477 
2343.000000	97.734165 
2342.000000	97.735157 
2341.000000	97.735580 
2340.000000	97.735927 
2339.000000	97.736513 
2338.000000	97.737162 
2337.000000	97.737532 
2336.000000	97.737936 
2335.000000	97.738914 
2334.000000	97.740335 
2333.000000	97.741385 
2332.000000	97.742243 
2331.000000	97.743678 
2330.000000	97.745911 
2329.000000	97.747971 
2328.000000	97.749739 
2327.000000	97.751830 
2326.000000	97.754311 
2325.000000	97.756301 
2324.000000	97.757765 
2323.000000	97.759376 
2322.000000	97.760576 
2321.000000	97.759598 
2320.000000	97.757005 
2319.000000	97.755368 
2318.000000	97.756275 
2317.000000	97.757457 
2316.000000	97.756987 
2315.000000	97.755278 
2314.000000	97.754920 
2313.000000	97.756479 
2312.000000	97.760009 
2311.000000	97.765188 
2310.000000	97.771343 
2309.000000	97.775768 
2308.000000	97.776951 
2307.000000	97.775525 
2306.000000	97.773028 
2305.000000	97.769982 
2304.000000	97.767955 
2303.000000	97.768993 
2302.000000	97.774139 
2301.000000	97.780664 
2300.000000	97.784773 
2299.000000	97.783471 
2298.000000	97.776587 
2297.000000	97.765160 
2296.000000	97.752302 
2295.000000	97.741559 
2294.000000	97.734826 
2293.000000	97.730552 
2292.000000	97.726372 
2291.000000	97.721703 
2290.000000	97.717599 
2289.000000	97.714870 
2288.000000	97.712996 
2287.000000	97.710656 
2286.000000	97.706569 
2285.000000	97.701128 
2284.000000	97.696621 
2283.000000	97.695174 
2282.000000	97.695844 
2281.000000	97.695372 
2280.000000	97.691699 
2279.000000	97.685784 
2278.000000	97.679886 
2277.000000	97.675603 
2276.000000	97.673706 
2275.000000	97.673882 
2274.000000	97.674570 
2273.000000	97.674499 
2272.000000	97.674541 
2271.000000	97.676183 
2270.000000	97.678655 
2269.000000	97.679552 
2268.000000	97.678232 
2267.000000	97.676232 
2266.000000	97.674439 
2265.000000	97.672017 
2264.000000	97.668357 
2263.000000	97.664050 
2262.000000	97.659617 
2261.000000	97.655096 
2260.000000	97.651039 
2259.000000	97.648333 
2258.000000	97.646815 
2257.000000	97.645458 
2256.000000	97.643980 
2255.000000	97.643052 
2254.000000	97.642794 
2253.000000	97.642100 
2252.000000	97.639966 
2251.000000	97.636550 
2250.000000	97.632557 
2249.000000	97.628515 
2248.000000	97.624973 
2247.000000	97.622500 
2246.000000	97.621083 
2245.000000	97.619972 
2244.000000	97.618364 
2243.000000	97.616195 
2242.000000	97.613877 
2241.000000	97.611770 
2240.000000	97.609964 
2239.000000	97.608364 
2238.000000	97.606790 
2237.000000	97.605089 
2236.000000	97.603250 
2235.000000	97.601353 
2234.000000	97.599444 
2233.000000	97.597524 
2232.000000	97.595593 
2231.000000	97.593662 
2230.000000	97.591726 
2229.000000	97.589771 
2228.000000	97.587791 
2227.000000	97.585791 
2226.000000	97.583773 
2225.000000	97.581734 
2224.000000	97.579684 
2223.000000	97.577647 
2222.000000	97.575652 
2221.000000	97.573716 
2220.000000	97.571824 
2219.000000	97.569947 
2218.000000	97.568067 
2217.000000	97.566183 
2216.000000	97.564303 
2215.000000	97.562435 
2214.000000	97.560576 
2213.000000	97.558722 
2212.000000	97.556880 
2211.000000	97.555069 
2210.000000	97.553303 
2209.000000	97.551573 
2208.000000	97.549854 
2207.000000	97.548116 
2206.000000	97.546338 
2205.000000	97.544505 
2204.000000	97.542606 
2203.000000	97.540635 
2202.000000	97.538595 
2201.000000	97.536605 
2200.000000	97.534766 
2199.000000	97.532771 
2198.000000	97.530268 
2197.000000	97.527336 
2196.000000	97.524496 
2195.000000	97.522146 
2194.000000	97.520107 
2193.000000	97.518032 
2192.000000	97.516182 
2191.000000	97.515051 
2190.000000	97.514240 
2189.000000	97.512702 
2188.000000	97.510354 
2187.000000	97.508085 
2186.000000	97.505690 
2185.000000	97.501580 
2184.000000	97.495908 
2183.000000	97.492292 
2182.000000	97.494110 
2181.000000	97.500043 
2180.000000	97.504514 
2179.000000	97.503407 
2178.000000	97.497312 
2177.000000	97.490171 
2176.000000	97.485969 
2175.000000	97.486325 
2174.000000	97.489900 
2173.000000	97.493699 
2172.000000	97.496185 
2171.000000	97.498359 
2170.000000	97.500569 
2169.000000	97.499945 
2168.000000	97.493577 
2167.000000	97.483425 
2166.000000	97.474901 
2165.000000	97.470203 
2164.000000	97.466184 
2163.000000	97.459873 
2162.000000	97.453532 
2161.000000	97.452274 
2160.000000	97.458383 
2159.000000	97.469675 
2158.000000	97.482429 
2157.000000	97.494403 
2156.000000	97.504870 
2155.000000	97.513338 
2154.000000	97.519917 
2153.000000	97.526618 
2152.000000	97.535718 
2151.000000	97.545354 
2150.000000	97.549287 
2149.000000	97.544254 
2148.000000	97.536071 
2147.000000	97.534207 
2146.000000	97.540692 
2145.000000	97.549199 
2144.000000	97.555239 
2143.000000	97.561899 
2142.000000	97.573119 
2141.000000	97.586492 
2140.000000	97.596549 
2139.000000	97.602195 
2138.000000	97.607045 
2137.000000	97.613911 
2136.000000	97.621819 
2135.000000	97.627253 
2134.000000	97.626846 
2133.000000	97.620910 
2132.000000	97.615244 
2131.000000	97.616428 
2130.000000	97.624468 
2129.000000	97.632752 
2128.000000	97.636124 
2127.000000	97.636303 
2126.000000	97.638005 
2125.000000	97.642550 
2124.000000	97.647467 
2123.000000	97.650234 
2122.000000	97.649857 
2121.000000	97.646229 
2120.000000	97.640276 
2119.000000	97.634239 
2118.000000	97.630379 
2117.000000	97.629506 
2116.000000	97.630952 
2115.000000	97.632924 
2114.000000	97.632741 
2113.000000	97.628593 
2112.000000	97.622153 
2111.000000	97.617977 
2110.000000	97.618934 
2109.000000	97.623494 
2108.000000	97.628153 
2107.000000	97.631210 
2106.000000	97.633031 
2105.000000	97.634246 
2104.000000	97.635368 
2103.000000	97.636806 
2102.000000	97.637624 
2101.000000	97.635496 
2100.000000	97.629618 
2099.000000	97.622891 
2098.000000	97.619613 
2097.000000	97.621188 
2096.000000	97.625608 
2095.000000	97.629953 
2094.000000	97.632465 
2093.000000	97.632657 
2092.000000	97.630892 
2091.000000	97.628357 
2090.000000	97.626499 
2089.000000	97.625911 
2088.000000	97.625946 
2087.000000	97.625408 
2086.000000	97.623485 
2085.000000	97.620192 
2084.000000	97.616293 
2083.000000	97.612644 
2082.000000	97.609491 
2081.000000	97.606714 
2080.000000	97.604661 
2079.000000	97.603997 
2078.000000	97.604426 
2077.000000	97.604278 
2076.000000	97.602210 
2075.000000	97.598704 
2074.000000	97.595103 
2073.000000	97.591665 
2072.000000	97.587656 
2071.000000	97.582964 
2070.000000	97.578455 
2069.000000	97.574892 
2068.000000	97.572299 
2067.000000	97.570245 
2066.000000	97.568099 
2065.000000	97.565121 
2064.000000	97.560926 
2063.000000	97.555993 
2062.000000	97.551509 
2061.000000	97.548400 
2060.000000	97.546692 
2059.000000	97.545792 
2058.000000	97.544803 
2057.000000	97.542917 
2056.000000	97.539826 
2055.000000	97.535765 
2054.000000	97.531398 
2053.000000	97.527412 
2052.000000	97.524118 
2051.000000	97.521327 
2050.000000	97.518547 
2049.000000	97.515475 
2048.000000	97.512366 
2047.000000	97.509681 
2046.000000	97.507422 
2045.000000	97.505107 
2044.000000	97.502414 
2043.000000	97.499593 
2042.000000	97.497148 
2041.000000	97.495310 
2040.000000	97.493970 
2039.000000	97.493010 
2038.000000	97.492327 
2037.000000	97.491531 
2036.000000	97.490122 
2035.000000	97.488068 
2034.000000	97.485948 
2033.000000	97.484451 
2032.000000	97.483786 
2031.000000	97.483460 
2030.000000	97.482478 
2029.000000	97.480095 
2028.000000	97.476671 
2027.000000	97.473593 
2026.000000	97.471782 
2025.000000	97.470933 
2024.000000	97.470616 
2023.000000	97.471405 
2022.000000	97.473957 
2021.000000	97.477310 
2020.000000	97.479141 
2019.000000	97.477933 
2018.000000	97.473969 
2017.000000	97.468974 
2016.000000	97.465001 
2015.000000	97.463293 
2014.000000	97.463382 
2013.000000	97.463069 
2012.000000	97.460757 
2011.000000	97.457908 
2010.000000	97.457541 
2009.000000	97.460347 
2008.000000	97.463833 
2007.000000	97.465713 
2006.000000	97.466464 
2005.000000	97.467686 
2004.000000	97.469716 
2003.000000	97.471980 
2002.000000	97.474357 
2001.000000	97.476517 
2000.000000	97.477051 
1999.000000	97.474183 
1998.000000	97.467352 
1997.000000	97.458119 
1996.000000	97.449594 
1995.000000	97.444695 
1994.000000	97.444275 
1993.000000	97.446526 
1992.000000	97.448423 
1991.000000	97.448786 
1990.000000	97.449269 
1989.000000	97.451921 
1988.000000	97.456396 
1987.000000	97.459687 
1986.000000	97.458616 
1985.000000	97.452682 
1984.000000	97.444745 
1983.000000	97.438737 
1982.000000	97.436338 
1981.000000	97.436312 
1980.000000	97.437120 
1979.000000	97.438886 
1978.000000	97.441928 
1977.000000	97.444774 
1976.000000	97.445346 
1975.000000	97.443967 
1974.000000	97.443412 
1973.000000	97.446038 
1972.000000	97.451665 
1971.000000	97.458024 
1970.000000	97.462485 
1969.000000	97.463612 
1968.000000	97.461905 
1967.000000	97.459567 
1966.000000	97.459016 
1965.000000	97.461215 
1964.000000	97.465645 
1963.000000	97.471399 
1962.000000	97.477757 
1961.000000	97.483742 
1960.000000	97.488001 
1959.000000	97.489795 
1958.000000	97.489988 
1957.000000	97.490731 
1956.000000	97.493624 
1955.000000	97.498348 
1954.000000	97.503208 
1953.000000	97.506959 
1952.000000	97.509642 
1951.000000	97.511835 
1950.000000	97.513947 
1949.000000	97.516407 
1948.000000	97.519860 
1947.000000	97.524344 
1946.000000	97.528673 
1945.000000	97.531559 
1944.000000	97.533053 
1943.000000	97.534357 
1942.000000	97.536359 
1941.000000	97.538949 
1940.000000	97.541762 
1939.000000	97.544600 
1938.000000	97.547312 
1937.000000	97.549915 
1936.000000	97.552712 
1935.000000	97.555855 
1934.000000	97.558947 
1933.000000	97.561657 
1932.000000	97.564411 
1931.000000	97.567945 
1930.000000	97.572097 
1929.000000	97.575604 
1928.000000	97.577879 
1927.000000	97.579543 
1926.000000	97.581207 
1925.000000	97.582473 
1924.000000	97.583108 
1923.000000	97.584179 
1922.000000	97.586448 
1921.000000	97.589034 
1920.000000	97.590845 
1919.000000	97.592238 
1918.000000	97.593861 
1917.000000	97.594741 
1916.000000	97.594071 
1915.000000	97.593271 
1914.000000	97.594008 
1913.000000	97.595878 
1912.000000	97.597140 
1911.000000	97.597472 
1910.000000	97.597963 
1909.000000	97.599110 
1908.000000	97.600818 
1907.000000	97.602887 
1906.000000	97.604824 
1905.000000	97.605313 
1904.000000	97.603582 
1903.000000	97.601165 
1902.000000	97.600087 
1901.000000	97.600307 
1900.000000	97.600655 
1899.000000	97.600839 
1898.000000	97.601459 
1897.000000	97.602426 
1896.000000	97.602775 
1895.000000	97.602205 
1894.000000	97.601119 
1893.000000	97.599674 
1892.000000	97.598023 
1891.000000	97.597025 
1890.000000	97.597417 
1889.000000	97.598610 
1888.000000	97.599667 
1887.000000	97.600766 
1886.000000	97.602241 
1885.000000	97.603364 
1884.000000	97.603147 
1883.000000	97.602012 
1882.000000	97.601450 
1881.000000	97.602186 
1880.000000	97.603761 
1879.000000	97.605155 
1878.000000	97.605634 
1877.000000	97.605421 
1876.000000	97.605557 
1875.000000	97.607119 
1874.000000	97.610126 
1873.000000	97.613099 
1872.000000	97.614638 
1871.000000	97.614890 
1870.000000	97.614725 
1869.000000	97.614142 
1868.000000	97.613251 
1867.000000	97.613743 
1866.000000	97.616182 
1865.000000	97.618375 
1864.000000	97.618527 
1863.000000	97.618040 
1862.000000	97.619478 
1861.000000	97.622976 
1860.000000	97.626726 
1859.000000	97.630157 
1858.000000	97.633954 
1857.000000	97.637799 
1856.000000	97.640766 
1855.000000	97.643158 
1854.000000	97.645652 
1853.000000	97.647290 
1852.000000	97.647681 
1851.000000	97.648369 
1850.000000	97.650747 
1849.000000	97.654461 
1848.000000	97.658107 
1847.000000	97.661290 
1846.000000	97.664402 
1845.000000	97.667338 
1844.000000	97.669452 
1843.000000	97.671369 
1842.000000	97.673976 
1841.000000	97.676194 
1840.000000	97.677418 
1839.000000	97.678577 
1838.000000	97.680425 
1837.000000	97.682028 
1836.000000	97.682448 
1835.000000	97.682886 
1834.000000	97.684740 
1833.000000	97.687245 
1832.000000	97.688745 
1831.000000	97.688631 
1830.000000	97.687655 
1829.000000	97.687162 
1828.000000	97.687803 
1827.000000	97.689393 
1826.000000	97.691772 
1825.000000	97.694623 
1824.000000	97.696816 
1823.000000	97.697722 
1822.000000	97.697719 
1821.000000	97.697301 
1820.000000	97.696706 
1819.000000	97.696342 
1818.000000	97.697147 
1817.000000	97.699119 
1816.000000	97.700718 
1815.000000	97.701152 
1814.000000	97.701315 
1813.000000	97.702299 
1812.000000	97.703362 
1811.000000	97.703060 
1810.000000	97.701820 
1809.000000	97.700881 
1808.000000	97.700544 
1807.000000	97.700655 
1806.000000	97.701175 
1805.000000	97.701630 
1804.000000	97.701325 
1803.000000	97.700762 
1802.000000	97.700865 
1801.000000	97.701531 
1800.000000	97.701443 
1799.000000	97.700345 
1798.000000	97.699882 
1797.000000	97.700535 
1796.000000	97.700984 
1795.000000	97.700444 
1794.000000	97.699836 
1793.000000	97.700289 
1792.000000	97.701230 
1791.000000	97.702195 
1790.000000	97.703957 
1789.000000	97.706012 
1788.000000	97.707390 
1787.000000	97.708421 
1786.000000	97.710177 
1785.000000	97.712364 
1784.000000	97.713596 
1783.000000	97.713867 
1782.000000	97.713901 
1781.000000	97.714596 
1780.000000	97.716173 
1779.000000	97.718073 
1778.000000	97.719990 
1777.000000	97.721743 
1776.000000	97.723399 
1775.000000	97.724863 
1774.000000	97.726025 
1773.000000	97.727032 
1772.000000	97.728063 
1771.000000	97.729246 
1770.000000	97.730668 
1769.000000	97.732227 
1768.000000	97.733790 
1767.000000	97.735244 
1766.000000	97.736583 
1765.000000	97.737883 
1764.000000	97.739204 
1763.000000	97.740554 
1762.000000	97.741913 
1761.000000	97.743269 
1760.000000	97.744616 
1759.000000	97.745952 
1758.000000	97.747275 
1757.000000	97.748577 
1756.000000	97.749847 
1755.000000	97.751072 
1754.000000	97.752245 
1753.000000	97.753369 
1752.000000	97.754458 
1751.000000	97.755515 
1750.000000	97.756529 
1749.000000	97.757485 
1748.000000	97.758376 
1747.000000	97.759209 
1746.000000	97.759995 
1745.000000	97.760741 
1744.000000	97.761459 
1743.000000	97.762163 
1742.000000	97.762828 
1741.000000	97.763402 
1740.000000	97.763864 
1739.000000	97.764278 
1738.000000	97.764731 
1737.000000	97.765174 
1736.000000	97.765516 
1735.000000	97.765927 
1734.000000	97.766391 
1733.000000	97.766470 
1732.000000	97.766324 
1731.000000	97.766281 
1730.000000	97.766579 
1729.000000	97.767137 
1728.000000	97.767533 
1727.000000	97.767487 
1726.000000	97.767090 
1725.000000	97.766847 
1724.000000	97.766806 
1723.000000	97.766732 
1722.000000	97.766770 
1721.000000	97.766787 
1720.000000	97.766346 
1719.000000	97.765553 
1718.000000	97.765166 
1717.000000	97.764821 
1716.000000	97.763544 
1715.000000	97.761836 
1714.000000	97.760761 
1713.000000	97.760158 
1712.000000	97.759134 
1711.000000	97.757674 
1710.000000	97.756361 
1709.000000	97.755201 
1708.000000	97.753709 
1707.000000	97.751832 
1706.000000	97.750095 
1705.000000	97.748626 
1704.000000	97.747053 
1703.000000	97.745204 
1702.000000	97.743336 
1701.000000	97.741681 
1700.000000	97.739826 
1699.000000	97.737703 
1698.000000	97.735665 
1697.000000	97.733636 
1696.000000	97.731531 
1695.000000	97.729353 
1694.000000	97.727128 
1693.000000	97.724837 
1692.000000	97.722477 
1691.000000	97.720060 
1690.000000	97.717602 
1689.000000	97.715108 
1688.000000	97.712583 
1687.000000	97.710027 
1686.000000	97.707449 
1685.000000	97.704859 
1684.000000	97.702255 
1683.000000	97.699644 
1682.000000	97.697037 
1681.000000	97.694439 
1680.000000	97.691852 
1679.000000	97.689277 
1678.000000	97.686703 
1677.000000	97.684124 
1676.000000	97.681540 
1675.000000	97.678953 
1674.000000	97.676362 
1673.000000	97.673772 
1672.000000	97.671191 
1671.000000	97.668626 
1670.000000	97.666082 
1669.000000	97.663562 
1668.000000	97.661071 
1667.000000	97.658612 
1666.000000	97.656176 
1665.000000	97.653754 
1664.000000	97.651347 
1663.000000	97.648958 
1662.000000	97.646587 
1661.000000	97.644237 
1660.000000	97.641917 
1659.000000	97.639630 
1658.000000	97.637374 
1657.000000	97.635150 
1656.000000	97.632965 
1655.000000	97.630822 
1654.000000	97.628716 
1653.000000	97.626633 
1652.000000	97.624582 
1651.000000	97.622579 
1650.000000	97.620611 
1649.000000	97.618654 
1648.000000	97.616754 
1647.000000	97.615088 
1646.000000	97.613620 
1645.000000	97.612260 
1644.000000	97.610966 
1643.000000	97.609727 
1642.000000	97.608556 
1641.000000	97.607429 
1640.000000	97.606417 
1639.000000	97.605448 
1638.000000	97.604455 
1637.000000	97.603567 
1636.000000	97.602818 
1635.000000	97.601514 
1634.000000	97.600313 
1633.000000	97.599958 
1632.000000	97.599521 
1631.000000	97.599103 
1630.000000	97.598948 
1629.000000	97.598593 
1628.000000	97.597946 
1627.000000	97.598067 
1626.000000	97.598859 
1625.000000	97.599070 
1624.000000	97.598810 
1623.000000	97.599540 
1622.000000	97.601435 
1621.000000	97.603392 
1620.000000	97.605050 
1619.000000	97.606803 
1618.000000	97.608916 
1617.000000	97.608663 
1616.000000	97.605197 
1615.000000	97.603825 
1614.000000	97.605791 
1613.000000	97.606960 
1612.000000	97.606513 
1611.000000	97.607073 
1610.000000	97.608683 
1609.000000	97.609829 
1608.000000	97.612447 
1607.000000	97.618441 
1606.000000	97.624111 
1605.000000	97.626440 
1604.000000	97.628855 
1603.000000	97.633945 
1602.000000	97.639111 
1601.000000	97.641716 
1600.000000	97.643620 
1599.000000	97.646976 
1598.000000	97.650635 
1597.000000	97.653348 
1596.000000	97.656260 
1595.000000	97.660668 
1594.000000	97.665380 
1593.000000	97.668636 
1592.000000	97.670961 
1591.000000	97.673735 
1590.000000	97.676535 
1589.000000	97.678494 
1588.000000	97.680809 
1587.000000	97.685182 
1586.000000	97.690483 
1585.000000	97.693730 
1584.000000	97.695684 
1583.000000	97.698578 
1582.000000	97.701128 
1581.000000	97.701993 
1580.000000	97.703619 
1579.000000	97.707928 
1578.000000	97.713447 
1577.000000	97.718301 
1576.000000	97.721108 
1575.000000	97.723413 
1574.000000	97.726725 
1573.000000	97.729081 
1572.000000	97.730793 
1571.000000	97.734423 
1570.000000	97.737829 
1569.000000	97.736560 
1568.000000	97.734998 
1567.000000	97.736099 
1566.000000	97.736114 
1565.000000	97.733418 
1564.000000	97.731408 
1563.000000	97.730923 
1562.000000	97.727819 
1561.000000	97.721488 
1560.000000	97.725876 
1559.000000	97.738838 
1558.000000	97.736144 
1557.000000	97.728416 
1556.000000	97.725240 
1555.000000	97.726342 
1554.000000	97.727894 
1553.000000	97.726753 
1552.000000	97.723496 
1551.000000	97.720003 
1550.000000	97.718065 
1549.000000	97.715339 
1548.000000	97.709519 
1547.000000	97.701984 
1546.000000	97.694758 
1545.000000	97.689458 
1544.000000	97.685912 
1543.000000	97.682327 
1542.000000	97.678425 
1541.000000	97.672829 
1540.000000	97.659417 
1539.000000	97.641075 
1538.000000	97.629054 
1537.000000	97.621498 
1536.000000	97.611874 
1535.000000	97.601862 
1534.000000	97.595184 
1533.000000	97.590980 
1532.000000	97.585513 
1531.000000	97.576906 
1530.000000	97.566025 
1529.000000	97.554331 
1528.000000	97.543267 
1527.000000	97.534446 
1526.000000	97.527300 
1525.000000	97.519074 
1524.000000	97.507981 
1523.000000	97.495445 
1522.000000	97.484781 
1521.000000	97.475486 
1520.000000	97.464187 
1519.000000	97.449695 
1518.000000	97.433794 
1517.000000	97.420764 
1516.000000	97.411989 
1515.000000	97.404716 
1514.000000	97.396065 
1513.000000	97.385709 
1512.000000	97.373655 
1511.000000	97.359672 
1510.000000	97.345016 
1509.000000	97.331988 
1508.000000	97.323274 
1507.000000	97.316930 
1506.000000	97.305918 
1505.000000	97.290289 
1504.000000	97.274767 
1503.000000	97.259607 
1502.000000	97.244436 
1501.000000	97.229987 
1500.000000	97.216432 
1499.000000	97.202930 
1498.000000	97.189794 
1497.000000	97.178787 
1496.000000	97.169335 
1495.000000	97.160801 
1494.000000	97.153649 
1493.000000	97.147010 
1492.000000	97.139755 
1491.000000	97.132466 
1490.000000	97.126399 
1489.000000	97.119659 
1488.000000	97.107890 
1487.000000	97.092086 
1486.000000	97.077068 
1485.000000	97.062226 
1484.000000	97.046459 
1483.000000	97.031521 
1482.000000	97.020220 
1481.000000	97.012121 
1480.000000	97.002564 
1479.000000	96.989764 
1478.000000	96.976846 
1477.000000	96.966836 
1476.000000	96.957508 
1475.000000	96.947307 
1474.000000	96.938197 
1473.000000	96.932607 
1472.000000	96.928224 
1471.000000	96.921206 
1470.000000	96.911937 
1469.000000	96.900595 
1468.000000	96.886790 
1467.000000	96.872474 
1466.000000	96.860881 
1465.000000	96.853355 
1464.000000	96.848388 
1463.000000	96.841581 
1462.000000	96.830713 
1461.000000	96.816475 
1460.000000	96.801904 
1459.000000	96.790545 
1458.000000	96.786307 
1457.000000	96.788491 
1456.000000	96.788780 
1455.000000	96.782464 
1454.000000	96.769114 
1453.000000	96.754685 
1452.000000	96.746417 
1451.000000	96.745149 
1450.000000	96.748556 
1449.000000	96.755785 
1448.000000	96.764356 
1447.000000	96.769702 
1446.000000	96.767973 
1445.000000	96.762305 
1444.000000	96.758599 
1443.000000	96.756617 
1442.000000	96.754354 
1441.000000	96.751779 
1440.000000	96.749499 
1439.000000	96.745826 
1438.000000	96.743775 
1437.000000	96.750065 
1436.000000	96.761071 
1435.000000	96.765196 
1434.000000	96.760515 
1433.000000	96.754362 
1432.000000	96.752951 
1431.000000	96.755878 
1430.000000	96.759934 
1429.000000	96.765069 
1428.000000	96.769981 
1427.000000	96.772382 
1426.000000	96.771763 
1425.000000	96.774667 
1424.000000	96.786556 
1423.000000	96.798613 
1422.000000	96.800822 
1421.000000	96.797064 
1420.000000	96.800145 
1419.000000	96.810648 
1418.000000	96.817732 
1417.000000	96.820253 
1416.000000	96.823221 
1415.000000	96.826880 
1414.000000	96.827742 
1413.000000	96.826173 
1412.000000	96.826727 
1411.000000	96.830297 
1410.000000	96.834577 
1409.000000	96.839345 
1408.000000	96.845418 
1407.000000	96.854160 
1406.000000	96.866350 
1405.000000	96.883923 
1404.000000	96.907070 
1403.000000	96.928279 
1402.000000	96.941754 
1401.000000	96.952125 
1400.000000	96.969418 
1399.000000	96.994229 
1398.000000	97.015406 
1397.000000	97.025430 
1396.000000	97.029086 
1395.000000	97.036717 
1394.000000	97.052401 
1393.000000	97.074788 
1392.000000	97.101124 
1391.000000	97.126380 
1390.000000	97.146327 
1389.000000	97.161184 
1388.000000	97.174524 
1387.000000	97.188099 
1386.000000	97.199781 
1385.000000	97.209315 
1384.000000	97.220697 
1383.000000	97.235764 
1382.000000	97.251979 
1381.000000	97.266124 
1380.000000	97.278892 
1379.000000	97.293289 
1378.000000	97.309317 
1377.000000	97.324448 
1376.000000	97.338468 
1375.000000	97.354269 
1374.000000	97.372820 
1373.000000	97.391871 
1372.000000	97.409180 
1371.000000	97.425016 
1370.000000	97.440264 
1369.000000	97.455581 
1368.000000	97.471395 
1367.000000	97.485619 
1366.000000	97.495938 
1365.000000	97.503833 
1364.000000	97.514523 
1363.000000	97.531072 
1362.000000	97.549813 
1361.000000	97.565046 
1360.000000	97.576489 
1359.000000	97.587558 
1358.000000	97.599297 
1357.000000	97.610091 
1356.000000	97.619503 
1355.000000	97.628496 
1354.000000	97.637638 
1353.000000	97.646853 
1352.000000	97.655956 
1351.000000	97.666205 
1350.000000	97.677444 
1349.000000	97.687548 
1348.000000	97.695748 
1347.000000	97.702900 
1346.000000	97.710266 
1345.000000	97.717473 
1344.000000	97.722872 
1343.000000	97.725274 
1342.000000	97.725986 
1341.000000	97.728674 
1340.000000	97.736274 
1339.000000	97.747055 
1338.000000	97.756013 
1337.000000	97.760589 
1336.000000	97.761835 
1335.000000	97.761066 
1334.000000	97.758863 
1333.000000	97.756749 
1332.000000	97.757020 
1331.000000	97.760168 
1330.000000	97.764141 
1329.000000	97.766958 
1328.000000	97.768538 
1327.000000	97.769701 
1326.000000	97.770396 
1325.000000	97.770154 
1324.000000	97.768780 
1323.000000	97.765540 
1322.000000	97.760204 
1321.000000	97.754925 
1320.000000	97.753141 
1319.000000	97.755761 
1318.000000	97.760256 
1317.000000	97.763753 
1316.000000	97.765136 
1315.000000	97.764183 
1314.000000	97.761502 
1313.000000	97.759649 
1312.000000	97.761339 
1311.000000	97.765667 
1310.000000	97.768657 
1309.000000	97.768360 
1308.000000	97.766979 
1307.000000	97.767477 
1306.000000	97.769724 
1305.000000	97.771837 
1304.000000	97.773172 
1303.000000	97.773615 
1302.000000	97.772181 
1301.000000	97.768420 
1300.000000	97.764447 
1299.000000	97.763447 
1298.000000	97.766218 
1297.000000	97.770124 
1296.000000	97.771692 
1295.000000	97.769822 
1294.000000	97.766624 
1293.000000	97.765249 
1292.000000	97.766493 
1291.000000	97.768106 
1290.000000	97.768109 
1289.000000	97.767679 
1288.000000	97.769027 
1287.000000	97.771329 
1286.000000	97.771369 
1285.000000	97.768329 
1284.000000	97.765228 
1283.000000	97.764749 
1282.000000	97.765738 
1281.000000	97.765150 
1280.000000	97.762188 
1279.000000	97.759023 
1278.000000	97.758368 
1277.000000	97.761329 
1276.000000	97.766559 
1275.000000	97.770855 
1274.000000	97.771613 
1273.000000	97.769472 
1272.000000	97.767465 
1271.000000	97.767138 
1270.000000	97.766782 
1269.000000	97.764109 
1268.000000	97.759093 
1267.000000	97.753170 
1266.000000	97.747430 
1265.000000	97.742831 
1264.000000	97.740614 
1263.000000	97.741011 
1262.000000	97.742260 
1261.000000	97.742095 
1260.000000	97.740106 
1259.000000	97.737693 
1258.000000	97.735877 
1257.000000	97.733662 
1256.000000	97.728481 
1255.000000	97.718919 
1254.000000	97.707284 
1253.000000	97.698028 
1252.000000	97.692372 
1251.000000	97.686311 
1250.000000	97.676103 
1249.000000	97.664212 
1248.000000	97.656624 
1247.000000	97.654765 
1246.000000	97.653574 
1245.000000	97.647755 
1244.000000	97.636785 
1243.000000	97.623779 
1242.000000	97.612703 
1241.000000	97.606936 
1240.000000	97.606912 
1239.000000	97.607861 
1238.000000	97.602874 
1237.000000	97.589623 
1236.000000	97.571774 
1235.000000	97.553398 
1234.000000	97.535079 
1233.000000	97.516448 
1232.000000	97.498743 
1231.000000	97.482463 
1230.000000	97.465354 
1229.000000	97.445215 
1228.000000	97.422468 
1227.000000	97.397792 
1226.000000	97.369256 
1225.000000	97.334229 
1224.000000	97.292767 
1223.000000	97.247069 
1222.000000	97.198617 
1221.000000	97.147465 
1220.000000	97.093371 
1219.000000	97.036012 
1218.000000	96.974930 
1217.000000	96.910372 
1216.000000	96.843049 
1215.000000	96.772386 
1214.000000	96.697074 
1213.000000	96.618654 
1212.000000	96.541755 
1211.000000	96.468284 
1210.000000	96.393719 
1209.000000	96.312527 
1208.000000	96.225744 
1207.000000	96.139809 
1206.000000	96.058675 
1205.000000	95.980315 
1204.000000	95.900751 
1203.000000	95.818290 
1202.000000	95.733721 
1201.000000	95.648944 
1200.000000	95.565709 
1199.000000	95.483994 
1198.000000	95.401798 
1197.000000	95.317978 
1196.000000	95.234211 
1195.000000	95.152416 
1194.000000	95.071493 
1193.000000	94.988784 
1192.000000	94.903511 
1191.000000	94.816452 
1190.000000	94.727517 
1189.000000	94.636080 
1188.000000	94.542476 
1187.000000	94.446816 
1186.000000	94.347814 
1185.000000	94.245168 
1184.000000	94.141244 
1183.000000	94.037655 
1182.000000	93.932177 
1181.000000	93.822039 
1180.000000	93.707801 
1179.000000	93.590250 
1178.000000	93.466228 
1177.000000	93.332558 
1176.000000	93.192062 
1175.000000	93.050444 
1174.000000	92.908865 
1173.000000	92.765321 
1172.000000	92.621796 
1171.000000	92.483117 
1170.000000	92.349263 
1169.000000	92.216085 
1168.000000	92.084472 
1167.000000	91.962498 
1166.000000	91.858181 
1165.000000	91.777028 
1164.000000	91.726991 
1163.000000	91.717305 
1162.000000	91.748674 
1161.000000	91.808876 
1160.000000	91.878811 
1159.000000	91.938580 
1158.000000	91.969728 
1157.000000	91.960194 
1156.000000	91.909958 
1155.000000	91.828224 
1154.000000	91.724584 
1153.000000	91.606236 
1152.000000	91.481896 
1151.000000	91.360666 
1150.000000	91.245227 
1149.000000	91.132315 
1148.000000	91.021262 
1147.000000	90.915627 
1146.000000	90.815122 
1145.000000	90.713263 
1144.000000	90.605953 
1143.000000	90.496410 
1142.000000	90.388945 
1141.000000	90.283424 
1140.000000	90.178445 
1139.000000	90.074684 
1138.000000	89.972479 
1137.000000	89.870635 
1136.000000	89.769377 
1135.000000	89.669990 
1134.000000	89.570626 
1133.000000	89.467535 
1132.000000	89.361036 
1131.000000	89.254782 
1130.000000	89.148883 
1129.000000	89.039978 
1128.000000	88.928451 
1127.000000	88.818560 
1126.000000	88.710516 
1125.000000	88.599704 
1124.000000	88.485303 
1123.000000	88.372536 
1122.000000	88.264559 
1121.000000	88.158917 
1120.000000	88.053595 
1119.000000	87.949499 
1118.000000	87.845647 
1117.000000	87.739542 
1116.000000	87.633721 
1115.000000	87.534209 
1114.000000	87.441024 
1113.000000	87.348058 
1112.000000	87.253462 
1111.000000	87.161471 
1110.000000	87.073232 
1109.000000	86.984987 
1108.000000	86.895528 
1107.000000	86.806794 
1106.000000	86.717159 
1105.000000	86.623122 
1104.000000	86.527838 
1103.000000	86.438462 
1102.000000	86.355136 
1101.000000	86.272193 
1100.000000	86.189742 
1099.000000	86.113687 
1098.000000	86.044468 
1097.000000	85.976457 
1096.000000	85.908351 
1095.000000	85.843105 
1094.000000	85.777860 
1093.000000	85.706168 
1092.000000	85.631227 
1091.000000	85.565189 
1090.000000	85.513705 
1089.000000	85.471458 
1088.000000	85.433078 
1087.000000	85.397291 
1086.000000	85.360643 
1085.000000	85.319526 
1084.000000	85.279085 
1083.000000	85.248287 
1082.000000	85.225700 
1081.000000	85.201919 
1080.000000	85.175858 
1079.000000	85.155746 
1078.000000	85.143536 
1077.000000	85.131297 
1076.000000	85.113809 
1075.000000	85.091626 
1074.000000	85.060964 
1073.000000	85.013629 
1072.000000	84.947640 
1071.000000	84.864965 
1070.000000	84.758370 
1069.000000	84.615026 
1068.000000	84.435928 
1067.000000	84.239555 
1066.000000	84.043559 
1065.000000	83.853900 
1064.000000	83.673012 
1063.000000	83.503137 
1062.000000	83.337270 
1061.000000	83.161549 
1060.000000	82.972994 
1059.000000	82.784154 
1058.000000	82.606565 
1057.000000	82.440738 
1056.000000	82.284617 
1055.000000	82.138534 
1054.000000	81.998046 
1053.000000	81.854872 
1052.000000	81.709705 
1051.000000	81.572013 
1050.000000	81.443118 
1049.000000	81.312835 
1048.000000	81.175946 
1047.000000	81.037519 
1046.000000	80.900163 
1045.000000	80.760525 
1044.000000	80.619232 
1043.000000	80.480743 
1042.000000	80.342813 
1041.000000	80.199279 
1040.000000	80.053866 
1039.000000	79.918262 
1038.000000	79.796491 
1037.000000	79.684413 
1036.000000	79.583462 
1035.000000	79.500032 
1034.000000	79.431894 
1033.000000	79.370178 
1032.000000	79.313785 
1031.000000	79.266719 
1030.000000	79.223777 
1029.000000	79.176546 
1028.000000	79.132067 
1027.000000	79.106708 
1026.000000	79.101421 
1025.000000	79.100716 
1024.000000	79.095968 
1023.000000	79.091499 
1022.000000	79.087587 
1021.000000	79.076945 
1020.000000	79.059665 
1019.000000	79.043869 
1018.000000	79.030268 
1017.000000	79.012915 
1016.000000	78.995227 
1015.000000	78.987418 
1014.000000	78.987951 
1013.000000	78.985662 
1012.000000	78.980407 
1011.000000	78.983116 
1010.000000	78.995280 
1009.000000	79.007570 
1008.000000	79.019583 
1007.000000	79.041834 
1006.000000	79.076901 
1005.000000	79.117349 
1004.000000	79.163150 
1003.000000	79.221742 
1002.000000	79.289266 
1001.000000	79.351589 
1000.000000	79.406985 
999.000000	 79.469015 
998.000000	 79.543851 
997.000000	 79.622981 
996.000000	 79.701165 
995.000000	 79.783857 
994.000000	 79.873525 
993.000000	 79.965599 
992.000000	 80.060738 
991.000000	 80.164677 
990.000000	 80.274043 
989.000000	 80.379074 
988.000000	 80.482005 
987.000000	 80.595566 
986.000000	 80.722100 
985.000000	 80.852223 
984.000000	 80.985531 
983.000000	 81.133290 
982.000000	 81.297212 
981.000000	 81.464002 
980.000000	 81.625409 
979.000000	 81.787031 
978.000000	 81.953139 
977.000000	 82.119823 
976.000000	 82.287673 
975.000000	 82.464968 
974.000000	 82.652995 
973.000000	 82.842649 
972.000000	 83.029872 
971.000000	 83.220622 
970.000000	 83.416927 
969.000000	 83.611981 
968.000000	 83.802628 
967.000000	 83.993302 
966.000000	 84.184409 
965.000000	 84.370135 
964.000000	 84.550975 
963.000000	 84.735310 
962.000000	 84.925112 
961.000000	 85.112349 
960.000000	 85.292450 
959.000000	 85.469153 
958.000000	 85.643509 
957.000000	 85.810429 
956.000000	 85.969199 
955.000000	 86.126024 
954.000000	 86.283407 
953.000000	 86.437545 
952.000000	 86.587736 
951.000000	 86.736995 
950.000000	 86.882173 
949.000000	 87.015713 
948.000000	 87.138975 
947.000000	 87.261785 
946.000000	 87.386383 
945.000000	 87.503776 
944.000000	 87.608971 
943.000000	 87.708298 
942.000000	 87.808580 
941.000000	 87.909929 
940.000000	 88.012827 
939.000000	 88.121377 
938.000000	 88.235126 
937.000000	 88.347097 
936.000000	 88.453930 
935.000000	 88.559741 
934.000000	 88.667281 
933.000000	 88.773689 
932.000000	 88.877560 
931.000000	 88.982134 
930.000000	 89.088831 
929.000000	 89.194764 
928.000000	 89.298571 
927.000000	 89.401913 
926.000000	 89.504020 
925.000000	 89.601102 
924.000000	 89.691475 
923.000000	 89.775507 
922.000000	 89.852034 
921.000000	 89.921811 
920.000000	 89.992249 
919.000000	 90.070222 
918.000000	 90.151471 
917.000000	 90.225545 
916.000000	 90.290388 
915.000000	 90.354164 
914.000000	 90.424213 
913.000000	 90.502596 
912.000000	 90.590954 
911.000000	 90.690599 
910.000000	 90.798498 
909.000000	 90.911350 
908.000000	 91.032174 
907.000000	 91.165201 
906.000000	 91.307247 
905.000000	 91.452430 
904.000000	 91.601469 
903.000000	 91.756688 
902.000000	 91.912037 
901.000000	 92.059167 
900.000000	 92.200339 
899.000000	 92.344636 
898.000000	 92.493650 
897.000000	 92.640862 
896.000000	 92.782053 
895.000000	 92.915936 
894.000000	 93.038473 
893.000000	 93.148100 
892.000000	 93.253765 
891.000000	 93.365926 
890.000000	 93.480748 
889.000000	 93.583553 
888.000000	 93.665533 
887.000000	 93.727400 
886.000000	 93.771158 
885.000000	 93.800206 
884.000000	 93.823991 
883.000000	 93.849259 
882.000000	 93.869354 
881.000000	 93.876610 
880.000000	 93.882962 
879.000000	 93.911538 
878.000000	 93.967948 
877.000000	 94.037207 
876.000000	 94.110334 
875.000000	 94.196339 
874.000000	 94.304563 
873.000000	 94.432814 
872.000000	 94.577294 
871.000000	 94.737639 
870.000000	 94.906278 
869.000000	 95.067123 
868.000000	 95.211097 
867.000000	 95.342393 
866.000000	 95.466448 
865.000000	 95.583158 
864.000000	 95.695327 
863.000000	 95.811875 
862.000000	 95.936465 
861.000000	 96.061471 
860.000000	 96.178078 
859.000000	 96.285234 
858.000000	 96.385748 
857.000000	 96.481124 
856.000000	 96.573060 
855.000000	 96.662765 
854.000000	 96.745996 
853.000000	 96.815373 
852.000000	 96.869859 
851.000000	 96.916666 
850.000000	 96.963698 
849.000000	 97.016021 
848.000000	 97.077854 
847.000000	 97.149034 
846.000000	 97.220064 
845.000000	 97.279868 
844.000000	 97.328430 
843.000000	 97.373477 
842.000000	 97.416121 
841.000000	 97.449722 
840.000000	 97.472027 
839.000000	 97.487411 
838.000000	 97.497096 
837.000000	 97.498729 
836.000000	 97.497277 
835.000000	 97.504693 
834.000000	 97.524537 
833.000000	 97.546423 
832.000000	 97.559917 
831.000000	 97.565778 
830.000000	 97.570374 
829.000000	 97.577967 
828.000000	 97.593125 
827.000000	 97.622129 
826.000000	 97.665495 
825.000000	 97.714776 
824.000000	 97.760508 
823.000000	 97.797367 
822.000000	 97.820926 
821.000000	 97.828159 
820.000000	 97.822137 
819.000000	 97.807672 
818.000000	 97.781287 
817.000000	 97.732575 
816.000000	 97.655850 
815.000000	 97.553678 
814.000000	 97.428078 
813.000000	 97.274076 
812.000000	 97.081870 
811.000000	 96.838402 
810.000000	 96.526866 
809.000000	 96.133693 
808.000000	 95.660171 
807.000000	 95.123315 
806.000000	 94.545043 
805.000000	 93.946300 
804.000000	 93.350571 
803.000000	 92.781916 
802.000000	 92.256846 
801.000000	 91.788562 
800.000000	 91.399970 
799.000000	 91.117745 
798.000000	 90.949483 
797.000000	 90.879499 
796.000000	 90.887895 
795.000000	 90.958011 
794.000000	 91.065309 
793.000000	 91.179515 
792.000000	 91.283480 
791.000000	 91.375326 
790.000000	 91.449675 
789.000000	 91.491725 
788.000000	 91.491411 
787.000000	 91.447739 
786.000000	 91.356780 
785.000000	 91.210849 
784.000000	 91.013569 
783.000000	 90.783033 
782.000000	 90.538776 
781.000000	 90.300198 
780.000000	 90.097579 
779.000000	 89.964352 
778.000000	 89.912434 
777.000000	 89.931185 
776.000000	 90.013236 
775.000000	 90.161635 
774.000000	 90.367059 
773.000000	 90.599402 
772.000000	 90.831180 
771.000000	 91.053989 
770.000000	 91.266690 
769.000000	 91.464331 
768.000000	 91.645143 
767.000000	 91.813098 
766.000000	 91.967309 
765.000000	 92.102909 
764.000000	 92.226893 
763.000000	 92.357428 
762.000000	 92.501103 
761.000000	 92.645040 
760.000000	 92.777379 
759.000000	 92.901591 
758.000000	 93.025135 
757.000000	 93.149057 
756.000000	 93.276170 
755.000000	 93.415056 
754.000000	 93.565843 
753.000000	 93.711989 
752.000000	 93.834453 
751.000000	 93.927865 
750.000000	 94.000785 
749.000000	 94.068918 
748.000000	 94.148983 
747.000000	 94.247738 
746.000000	 94.353913 
745.000000	 94.451273 
744.000000	 94.540701 
743.000000	 94.637472 
742.000000	 94.747146 
741.000000	 94.859413 
740.000000	 94.967109 
739.000000	 95.074668 
738.000000	 95.183606 
737.000000	 95.284670 
736.000000	 95.370519 
735.000000	 95.444153 
734.000000	 95.510801 
733.000000	 95.572701 
732.000000	 95.633430 
731.000000	 95.694864 
730.000000	 95.748988 
729.000000	 95.786869 
728.000000	 95.814263 
727.000000	 95.845974 
726.000000	 95.888490 
725.000000	 95.939670 
724.000000	 96.002378 
723.000000	 96.082929 
722.000000	 96.175413 
721.000000	 96.262307 
720.000000	 96.333072 
719.000000	 96.390100 
718.000000	 96.435554 
717.000000	 96.468055 
716.000000	 96.495107 
715.000000	 96.530799 
714.000000	 96.576869 
713.000000	 96.623140 
712.000000	 96.669306 
711.000000	 96.727873 
710.000000	 96.800093 
709.000000	 96.871470 
708.000000	 96.930914 
707.000000	 96.978059 
706.000000	 97.010416 
705.000000	 97.016438 
704.000000	 96.988088 
703.000000	 96.929274 
702.000000	 96.839967 
701.000000	 96.703598 
700.000000	 96.502709 
699.000000	 96.236898 
698.000000	 95.925718 
697.000000	 95.606058 
696.000000	 95.329242 
695.000000	 95.148352 
694.000000	 95.090282 
693.000000	 95.144292 
692.000000	 95.280242 
691.000000	 95.464416 
690.000000	 95.663395 
689.000000	 95.849152 
688.000000	 96.009563 
687.000000	 96.149081 
686.000000	 96.271159 
685.000000	 96.372712 
684.000000	 96.458098 
683.000000	 96.538369 
682.000000	 96.616316 
681.000000	 96.687279 
680.000000	 96.755880 
679.000000	 96.831905 
678.000000	 96.911008 
677.000000	 96.982338 
676.000000	 97.045736 
675.000000	 97.109732 
674.000000	 97.172725 
673.000000	 97.213760 
672.000000	 97.213483 
671.000000	 97.157535 
670.000000	 97.040253 
669.000000	 96.875548 
668.000000	 96.793853 
667.000000	 96.944084 
666.000000	 97.205863 
665.000000	 97.398685 
664.000000	 97.509334 
663.000000	 97.575378 
662.000000	 97.626574 
661.000000	 97.671527 
660.000000	 97.710370 
659.000000	 97.748585 
658.000000	 97.788116 
657.000000	 97.821796 
656.000000	 97.836002 
655.000000	 97.825058 
654.000000	 97.796762 
653.000000	 97.762123 
652.000000	 97.730498 
651.000000	 97.715931 
650.000000	 97.730048 

