4000.000000	97.765721 
3999.000000	97.770722 
3998.000000	97.774002 
3997.000000	97.774829 
3996.000000	97.773635 
3995.000000	97.771253 
3994.000000	97.768404 
3993.000000	97.765926 
3992.000000	97.764527 
3991.000000	97.764202 
3990.000000	97.764271 
3989.000000	97.764163 
3988.000000	97.764039 
3987.000000	97.764603 
3986.000000	97.766325 
3985.000000	97.768640 
3984.000000	97.769997 
3983.000000	97.769224 
3982.000000	97.767072 
3981.000000	97.765943 
3980.000000	97.767413 
3979.000000	97.770532 
3978.000000	97.773038 
3977.000000	97.773771 
3976.000000	97.773264 
3975.000000	97.772298 
3974.000000	97.770909 
3973.000000	97.768906 
3972.000000	97.766346 
3971.000000	97.763373 
3970.000000	97.760103 
3969.000000	97.757131 
3968.000000	97.755618 
3967.000000	97.756286 
3966.000000	97.758642 
3965.000000	97.761318 
3964.000000	97.763022 
3963.000000	97.763327 
3962.000000	97.762795 
3961.000000	97.762369 
3960.000000	97.762398 
3959.000000	97.762454 
3958.000000	97.762031 
3957.000000	97.761204 
3956.000000	97.760206 
3955.000000	97.758630 
3954.000000	97.756026 
3953.000000	97.752802 
3952.000000	97.750107 
3951.000000	97.748690 
3950.000000	97.748225 
3949.000000	97.747946 
3948.000000	97.747340 
3947.000000	97.746532 
3946.000000	97.746123 
3945.000000	97.746493 
3944.000000	97.747204 
3943.000000	97.747348 
3942.000000	97.746945 
3941.000000	97.746996 
3940.000000	97.747930 
3939.000000	97.748919 
3938.000000	97.748817 
3937.000000	97.747456 
3936.000000	97.745547 
3935.000000	97.743471 
3934.000000	97.741170 
3933.000000	97.738842 
3932.000000	97.737269 
3931.000000	97.736884 
3930.000000	97.737269 
3929.000000	97.738097 
3928.000000	97.739574 
3927.000000	97.741689 
3926.000000	97.743384 
3925.000000	97.743367 
3924.000000	97.741749 
3923.000000	97.739733 
3922.000000	97.737953 
3921.000000	97.736274 
3920.000000	97.734772 
3919.000000	97.733894 
3918.000000	97.733484 
3917.000000	97.732722 
3916.000000	97.731322 
3915.000000	97.729997 
3914.000000	97.729478 
3913.000000	97.729717 
3912.000000	97.730087 
3911.000000	97.730032 
3910.000000	97.729233 
3909.000000	97.727688 
3908.000000	97.725815 
3907.000000	97.724152 
3906.000000	97.722919 
3905.000000	97.721624 
3904.000000	97.719687 
3903.000000	97.717338 
3902.000000	97.715464 
3901.000000	97.714617 
3900.000000	97.714583 
3899.000000	97.714808 
3898.000000	97.714973 
3897.000000	97.714877 
3896.000000	97.714272 
3895.000000	97.713195 
3894.000000	97.712030 
3893.000000	97.711174 
3892.000000	97.710533 
3891.000000	97.709675 
3890.000000	97.708515 
3889.000000	97.707371 
3888.000000	97.706559 
3887.000000	97.706036 
3886.000000	97.705463 
3885.000000	97.704571 
3884.000000	97.703342 
3883.000000	97.701826 
3882.000000	97.700171 
3881.000000	97.698733 
3880.000000	97.697851 
3879.000000	97.697472 
3878.000000	97.697197 
3877.000000	97.696761 
3876.000000	97.696257 
3875.000000	97.695745 
3874.000000	97.695093 
3873.000000	97.694257 
3872.000000	97.693355 
3871.000000	97.692376 
3870.000000	97.691309 
3869.000000	97.690633 
3868.000000	97.690738 
3867.000000	97.691320 
3866.000000	97.691667 
3865.000000	97.691557 
3864.000000	97.691431 
3863.000000	97.691533 
3862.000000	97.691385 
3861.000000	97.690789 
3860.000000	97.690239 
3859.000000	97.690152 
3858.000000	97.690270 
3857.000000	97.689989 
3856.000000	97.689132 
3855.000000	97.687944 
3854.000000	97.686211 
3853.000000	97.684167 
3852.000000	97.683133 
3851.000000	97.683546 
3850.000000	97.684439 
3849.000000	97.685179 
3848.000000	97.686019 
3847.000000	97.687334 
3846.000000	97.688566 
3845.000000	97.688896 
3844.000000	97.688391 
3843.000000	97.687774 
3842.000000	97.687549 
3841.000000	97.687796 
3840.000000	97.687891 
3839.000000	97.687241 
3838.000000	97.686149 
3837.000000	97.685155 
3836.000000	97.684510 
3835.000000	97.684178 
3834.000000	97.684110 
3833.000000	97.684300 
3832.000000	97.684677 
3831.000000	97.685531 
3830.000000	97.687332 
3829.000000	97.690021 
3828.000000	97.692926 
3827.000000	97.694776 
3826.000000	97.694126 
3825.000000	97.691028 
3824.000000	97.687124 
3823.000000	97.684494 
3822.000000	97.683605 
3821.000000	97.682731 
3820.000000	97.681588 
3819.000000	97.681112 
3818.000000	97.680968 
3817.000000	97.680332 
3816.000000	97.680196 
3815.000000	97.683157 
3814.000000	97.689322 
3813.000000	97.694865 
3812.000000	97.696634 
3811.000000	97.696170 
3810.000000	97.697258 
3809.000000	97.701214 
3808.000000	97.704974 
3807.000000	97.704681 
3806.000000	97.700375 
3805.000000	97.694931 
3804.000000	97.689725 
3803.000000	97.685409 
3802.000000	97.682195 
3801.000000	97.680975 
3800.000000	97.683358 
3799.000000	97.687511 
3798.000000	97.690550 
3797.000000	97.693240 
3796.000000	97.698614 
3795.000000	97.707057 
3794.000000	97.714564 
3793.000000	97.717275 
3792.000000	97.716251 
3791.000000	97.716167 
3790.000000	97.718730 
3789.000000	97.720869 
3788.000000	97.719929 
3787.000000	97.717115 
3786.000000	97.715399 
3785.000000	97.715966 
3784.000000	97.717899 
3783.000000	97.719889 
3782.000000	97.720246 
3781.000000	97.717567 
3780.000000	97.712961 
3779.000000	97.710868 
3778.000000	97.714646 
3777.000000	97.722188 
3776.000000	97.727375 
3775.000000	97.726043 
3774.000000	97.719478 
3773.000000	97.712374 
3772.000000	97.707820 
3771.000000	97.704528 
3770.000000	97.700353 
3769.000000	97.696663 
3768.000000	97.695489 
3767.000000	97.695201 
3766.000000	97.692766 
3765.000000	97.688195 
3764.000000	97.685165 
3763.000000	97.685517 
3762.000000	97.685274 
3761.000000	97.678823 
3760.000000	97.665557 
3759.000000	97.651361 
3758.000000	97.640295 
3757.000000	97.631324 
3756.000000	97.624084 
3755.000000	97.620383 
3754.000000	97.621427 
3753.000000	97.626332 
3752.000000	97.634087 
3751.000000	97.642875 
3750.000000	97.647813 
3749.000000	97.646414 
3748.000000	97.643718 
3747.000000	97.647010 
3746.000000	97.657346 
3745.000000	97.665516 
3744.000000	97.666323 
3743.000000	97.664565 
3742.000000	97.661329 
3741.000000	97.652521 
3740.000000	97.638662 
3739.000000	97.627771 
3738.000000	97.626547 
3737.000000	97.631772 
3736.000000	97.636335 
3735.000000	97.638579 
3734.000000	97.641013 
3733.000000	97.642790 
3732.000000	97.642456 
3731.000000	97.642765 
3730.000000	97.645926 
3729.000000	97.650050 
3728.000000	97.652520 
3727.000000	97.653185 
3726.000000	97.653962 
3725.000000	97.654917 
3724.000000	97.653786 
3723.000000	97.650553 
3722.000000	97.649062 
3721.000000	97.652187 
3720.000000	97.656673 
3719.000000	97.658275 
3718.000000	97.656122 
3717.000000	97.651542 
3716.000000	97.646492 
3715.000000	97.640783 
3714.000000	97.633824 
3713.000000	97.627633 
3712.000000	97.624260 
3711.000000	97.622638 
3710.000000	97.619811 
3709.000000	97.615582 
3708.000000	97.612241 
3707.000000	97.610386 
3706.000000	97.608885 
3705.000000	97.606676 
3704.000000	97.603592 
3703.000000	97.599652 
3702.000000	97.593370 
3701.000000	97.583196 
3700.000000	97.569931 
3699.000000	97.556530 
3698.000000	97.545983 
3697.000000	97.538757 
3696.000000	97.533928 
3695.000000	97.529738 
3694.000000	97.523042 
3693.000000	97.512193 
3692.000000	97.499431 
3691.000000	97.488437 
3690.000000	97.478999 
3689.000000	97.469950 
3688.000000	97.463999 
3687.000000	97.463176 
3686.000000	97.464688 
3685.000000	97.463671 
3684.000000	97.458246 
3683.000000	97.451594 
3682.000000	97.447404 
3681.000000	97.442785 
3680.000000	97.431187 
3679.000000	97.411089 
3678.000000	97.389411 
3677.000000	97.373130 
3676.000000	97.360053 
3675.000000	97.347405 
3674.000000	97.337559 
3673.000000	97.331020 
3672.000000	97.324468 
3671.000000	97.316724 
3670.000000	97.309217 
3669.000000	97.304124 
3668.000000	97.301222 
3667.000000	97.297819 
3666.000000	97.292969 
3665.000000	97.287111 
3664.000000	97.279702 
3663.000000	97.270411 
3662.000000	97.259965 
3661.000000	97.249286 
3660.000000	97.239326 
3659.000000	97.230348 
3658.000000	97.222186 
3657.000000	97.213271 
3656.000000	97.202325 
3655.000000	97.190737 
3654.000000	97.179727 
3653.000000	97.168779 
3652.000000	97.156751 
3651.000000	97.143104 
3650.000000	97.127784 
3649.000000	97.112414 
3648.000000	97.101159 
3647.000000	97.097415 
3646.000000	97.101020 
3645.000000	97.108712 
3644.000000	97.116460 
3643.000000	97.121970 
3642.000000	97.124538 
3641.000000	97.123604 
3640.000000	97.118176 
3639.000000	97.107235 
3638.000000	97.092333 
3637.000000	97.078198 
3636.000000	97.069211 
3635.000000	97.064196 
3634.000000	97.056656 
3633.000000	97.041929 
3632.000000	97.022956 
3631.000000	97.009227 
3630.000000	97.008652 
3629.000000	97.018074 
3628.000000	97.025736 
3627.000000	97.024672 
3626.000000	97.016381 
3625.000000	97.007547 
3624.000000	97.004462 
3623.000000	97.007879 
3622.000000	97.012636 
3621.000000	97.011647 
3620.000000	97.001471 
3619.000000	96.985724 
3618.000000	96.972270 
3617.000000	96.966836 
3616.000000	96.971050 
3615.000000	96.982869 
3614.000000	96.997087 
3613.000000	97.008672 
3612.000000	97.016311 
3611.000000	97.021516 
3610.000000	97.026416 
3609.000000	97.032461 
3608.000000	97.039007 
3607.000000	97.044010 
3606.000000	97.046092 
3605.000000	97.047073 
3604.000000	97.051841 
3603.000000	97.063847 
3602.000000	97.081026 
3601.000000	97.096249 
3600.000000	97.103753 
3599.000000	97.103763 
3598.000000	97.100740 
3597.000000	97.098732 
3596.000000	97.099844 
3595.000000	97.102845 
3594.000000	97.104476 
3593.000000	97.102861 
3592.000000	97.098233 
3591.000000	97.092296 
3590.000000	97.087728 
3589.000000	97.086358 
3588.000000	97.086949 
3587.000000	97.086850 
3586.000000	97.085691 
3585.000000	97.085251 
3584.000000	97.087915 
3583.000000	97.094709 
3582.000000	97.104034 
3581.000000	97.111396 
3580.000000	97.112986 
3579.000000	97.109287 
3578.000000	97.104497 
3577.000000	97.102389 
3576.000000	97.102813 
3575.000000	97.103065 
3574.000000	97.100935 
3573.000000	97.096613 
3572.000000	97.091230 
3571.000000	97.085432 
3570.000000	97.079849 
3569.000000	97.075749 
3568.000000	97.074031 
3567.000000	97.074232 
3566.000000	97.075073 
3565.000000	97.075357 
3564.000000	97.074463 
3563.000000	97.072996 
3562.000000	97.072255 
3561.000000	97.073323 
3560.000000	97.076250 
3559.000000	97.079900 
3558.000000	97.082602 
3557.000000	97.083378 
3556.000000	97.082623 
3555.000000	97.081428 
3554.000000	97.080160 
3553.000000	97.078017 
3552.000000	97.074478 
3551.000000	97.070289 
3550.000000	97.066807 
3549.000000	97.064952 
3548.000000	97.064832 
3547.000000	97.065462 
3546.000000	97.065211 
3545.000000	97.063451 
3544.000000	97.061608 
3543.000000	97.061681 
3542.000000	97.063936 
3541.000000	97.066757 
3540.000000	97.068530 
3539.000000	97.069121 
3538.000000	97.069317 
3537.000000	97.069369 
3536.000000	97.068897 
3535.000000	97.067506 
3534.000000	97.065280 
3533.000000	97.062876 
3532.000000	97.061387 
3531.000000	97.061716 
3530.000000	97.063402 
3529.000000	97.064521 
3528.000000	97.063471 
3527.000000	97.060737 
3526.000000	97.058320 
3525.000000	97.057637 
3524.000000	97.058518 
3523.000000	97.060009 
3522.000000	97.061449 
3521.000000	97.062675 
3520.000000	97.063771 
3519.000000	97.064690 
3518.000000	97.065108 
3517.000000	97.064359 
3516.000000	97.061809 
3515.000000	97.057363 
3514.000000	97.051786 
3513.000000	97.046464 
3512.000000	97.042670 
3511.000000	97.041006 
3510.000000	97.041390 
3509.000000	97.043378 
3508.000000	97.046273 
3507.000000	97.048820 
3506.000000	97.049068 
3505.000000	97.045144 
3504.000000	97.036846 
3503.000000	97.026662 
3502.000000	97.018538 
3501.000000	97.015037 
3500.000000	97.016399 
3499.000000	97.021681 
3498.000000	97.029668 
3497.000000	97.038522 
3496.000000	97.045487 
3495.000000	97.048239 
3494.000000	97.046672 
3493.000000	97.043067 
3492.000000	97.040240 
3491.000000	97.039336 
3490.000000	97.039583 
3489.000000	97.039612 
3488.000000	97.038628 
3487.000000	97.036720 
3486.000000	97.034737 
3485.000000	97.033918 
3484.000000	97.035041 
3483.000000	97.037535 
3482.000000	97.039631 
3481.000000	97.039891 
3480.000000	97.038390 
3479.000000	97.036237 
3478.000000	97.034306 
3477.000000	97.032741 
3476.000000	97.031353 
3475.000000	97.030010 
3474.000000	97.028648 
3473.000000	97.027296 
3472.000000	97.026255 
3471.000000	97.025969 
3470.000000	97.026505 
3469.000000	97.027307 
3468.000000	97.027668 
3467.000000	97.027503 
3466.000000	97.027398 
3465.000000	97.027680 
3464.000000	97.027630 
3463.000000	97.026028 
3462.000000	97.022553 
3461.000000	97.018327 
3460.000000	97.014768 
3459.000000	97.012292 
3458.000000	97.010401 
3457.000000	97.008502 
3456.000000	97.006542 
3455.000000	97.004994 
3454.000000	97.004389 
3453.000000	97.004668 
3452.000000	97.004984 
3451.000000	97.004434 
3450.000000	97.002887 
3449.000000	97.000862 
3448.000000	96.998800 
3447.000000	96.996621 
3446.000000	96.994074 
3445.000000	96.991319 
3444.000000	96.988913 
3443.000000	96.987275 
3442.000000	96.986281 
3441.000000	96.985318 
3440.000000	96.983750 
3439.000000	96.981330 
3438.000000	96.978284 
3437.000000	96.975186 
3436.000000	96.972686 
3435.000000	96.971171 
3434.000000	96.970572 
3433.000000	96.970363 
3432.000000	96.969865 
3431.000000	96.968732 
3430.000000	96.967068 
3429.000000	96.965212 
3428.000000	96.963436 
3427.000000	96.961829 
3426.000000	96.960408 
3425.000000	96.959224 
3424.000000	96.958289 
3423.000000	96.957434 
3422.000000	96.956354 
3421.000000	96.954911 
3420.000000	96.953262 
3419.000000	96.951694 
3418.000000	96.950374 
3417.000000	96.949307 
3416.000000	96.948455 
3415.000000	96.947799 
3414.000000	96.947266 
3413.000000	96.946707 
3412.000000	96.945994 
3411.000000	96.945123 
3410.000000	96.944218 
3409.000000	96.943509 
3408.000000	96.943241 
3407.000000	96.943482 
3406.000000	96.943985 
3405.000000	96.944317 
3404.000000	96.944165 
3403.000000	96.943489 
3402.000000	96.942480 
3401.000000	96.941489 
3400.000000	96.940934 
3399.000000	96.941063 
3398.000000	96.941707 
3397.000000	96.942356 
3396.000000	96.942587 
3395.000000	96.942393 
3394.000000	96.942099 
3393.000000	96.942064 
3392.000000	96.942434 
3391.000000	96.943037 
3390.000000	96.943519 
3389.000000	96.943691 
3388.000000	96.943769 
3387.000000	96.944155 
3386.000000	96.944959 
3385.000000	96.945802 
3384.000000	96.946111 
3383.000000	96.945618 
3382.000000	96.944705 
3381.000000	96.944392 
3380.000000	96.945707 
3379.000000	96.948935 
3378.000000	96.953197 
3377.000000	96.956841 
3376.000000	96.958711 
3375.000000	96.958703 
3374.000000	96.957473 
3373.000000	96.955900 
3372.000000	96.954741 
3371.000000	96.954482 
3370.000000	96.955133 
3369.000000	96.956165 
3368.000000	96.956856 
3367.000000	96.956799 
3366.000000	96.956077 
3365.000000	96.955162 
3364.000000	96.954634 
3363.000000	96.954789 
3362.000000	96.955379 
3361.000000	96.955805 
3360.000000	96.955704 
3359.000000	96.955289 
3358.000000	96.955091 
3357.000000	96.955506 
3356.000000	96.956634 
3355.000000	96.958329 
3354.000000	96.960219 
3353.000000	96.961807 
3352.000000	96.962764 
3351.000000	96.963101 
3350.000000	96.963054 
3349.000000	96.962922 
3348.000000	96.963021 
3347.000000	96.963559 
3346.000000	96.964401 
3345.000000	96.965055 
3344.000000	96.965127 
3343.000000	96.964728 
3342.000000	96.964335 
3341.000000	96.964330 
3340.000000	96.964695 
3339.000000	96.965189 
3338.000000	96.965636 
3337.000000	96.966003 
3336.000000	96.966329 
3335.000000	96.966647 
3334.000000	96.966976 
3333.000000	96.967338 
3332.000000	96.967750 
3331.000000	96.968204 
3330.000000	96.968686 
3329.000000	96.969189 
3328.000000	96.969717 
3327.000000	96.970280 
3326.000000	96.970887 
3325.000000	96.971532 
3324.000000	96.972196 
3323.000000	96.972853 
3322.000000	96.973491 
3321.000000	96.974111 
3320.000000	96.974723 
3319.000000	96.975336 
3318.000000	96.975952 
3317.000000	96.976566 
3316.000000	96.977166 
3315.000000	96.977743 
3314.000000	96.978293 
3313.000000	96.978821 
3312.000000	96.979341 
3311.000000	96.979864 
3310.000000	96.980395 
3309.000000	96.980936 
3308.000000	96.981481 
3307.000000	96.982028 
3306.000000	96.982577 
3305.000000	96.983135 
3304.000000	96.983715 
3303.000000	96.984334 
3302.000000	96.985000 
3301.000000	96.985705 
3300.000000	96.986426 
3299.000000	96.987140 
3298.000000	96.987832 
3297.000000	96.988502 
3296.000000	96.989161 
3295.000000	96.989813 
3294.000000	96.990460 
3293.000000	96.991095 
3292.000000	96.991742 
3291.000000	96.992406 
3290.000000	96.993045 
3289.000000	96.993610 
3288.000000	96.994123 
3287.000000	96.994705 
3286.000000	96.995480 
3285.000000	96.996366 
3284.000000	96.997042 
3283.000000	96.997249 
3282.000000	96.997117 
3281.000000	96.997071 
3280.000000	96.997421 
3279.000000	96.998196 
3278.000000	96.999309 
3277.000000	97.000690 
3276.000000	97.002130 
3275.000000	97.003239 
3274.000000	97.003778 
3273.000000	97.003977 
3272.000000	97.004418 
3271.000000	97.005531 
3270.000000	97.007313 
3269.000000	97.009469 
3268.000000	97.011614 
3267.000000	97.013316 
3266.000000	97.014232 
3265.000000	97.014511 
3264.000000	97.014972 
3263.000000	97.016474 
3262.000000	97.019034 
3261.000000	97.021782 
3260.000000	97.023811 
3259.000000	97.024811 
3258.000000	97.024842 
3257.000000	97.023939 
3256.000000	97.022289 
3255.000000	97.020525 
3254.000000	97.019496 
3253.000000	97.019869 
3252.000000	97.021983 
3251.000000	97.025664 
3250.000000	97.029963 
3249.000000	97.033557 
3248.000000	97.036010 
3247.000000	97.038306 
3246.000000	97.041556 
3245.000000	97.045229 
3244.000000	97.047438 
3243.000000	97.047217 
3242.000000	97.045550 
3241.000000	97.044291 
3240.000000	97.044323 
3239.000000	97.045372 
3238.000000	97.047116 
3237.000000	97.049659 
3236.000000	97.052911 
3235.000000	97.056034 
3234.000000	97.057913 
3233.000000	97.058079 
3232.000000	97.057041 
3231.000000	97.055946 
3230.000000	97.055791 
3229.000000	97.056884 
3228.000000	97.058833 
3227.000000	97.060900 
3226.000000	97.062609 
3225.000000	97.064068 
3224.000000	97.065730 
3223.000000	97.067833 
3222.000000	97.070097 
3221.000000	97.071970 
3220.000000	97.073195 
3219.000000	97.074101 
3218.000000	97.075264 
3217.000000	97.076914 
3216.000000	97.078777 
3215.000000	97.080491 
3214.000000	97.081960 
3213.000000	97.083198 
3212.000000	97.084069 
3211.000000	97.084452 
3210.000000	97.084599 
3209.000000	97.085007 
3208.000000	97.085902 
3207.000000	97.087072 
3206.000000	97.088285 
3205.000000	97.089730 
3204.000000	97.091894 
3203.000000	97.095075 
3202.000000	97.098986 
3201.000000	97.102714 
3200.000000	97.105181 
3199.000000	97.105961 
3198.000000	97.105489 
3197.000000	97.104538 
3196.000000	97.103602 
3195.000000	97.103045 
3194.000000	97.103593 
3193.000000	97.105813 
3192.000000	97.108990 
3191.000000	97.111239 
3190.000000	97.111326 
3189.000000	97.109972 
3188.000000	97.108928 
3187.000000	97.109241 
3186.000000	97.110832 
3185.000000	97.113340 
3184.000000	97.116692 
3183.000000	97.120796 
3182.000000	97.125255 
3181.000000	97.129449 
3180.000000	97.132637 
3179.000000	97.134314 
3178.000000	97.134819 
3177.000000	97.135293 
3176.000000	97.136684 
3175.000000	97.139088 
3174.000000	97.142139 
3173.000000	97.145306 
3172.000000	97.147722 
3171.000000	97.148665 
3170.000000	97.148503 
3169.000000	97.148596 
3168.000000	97.150300 
3167.000000	97.153527 
3166.000000	97.156582 
3165.000000	97.157939 
3164.000000	97.158014 
3163.000000	97.158336 
3162.000000	97.159353 
3161.000000	97.160208 
3160.000000	97.160257 
3159.000000	97.159975 
3158.000000	97.160291 
3157.000000	97.161562 
3156.000000	97.163396 
3155.000000	97.165166 
3154.000000	97.166451 
3153.000000	97.167193 
3152.000000	97.167707 
3151.000000	97.168484 
3150.000000	97.169797 
3149.000000	97.171370 
3148.000000	97.172463 
3147.000000	97.172389 
3146.000000	97.171160 
3145.000000	97.169785 
3144.000000	97.169669 
3143.000000	97.171251 
3142.000000	97.173178 
3141.000000	97.173277 
3140.000000	97.170642 
3139.000000	97.166470 
3138.000000	97.162777 
3137.000000	97.160819 
3136.000000	97.161218 
3135.000000	97.164811 
3134.000000	97.171943 
3133.000000	97.180659 
3132.000000	97.186789 
3131.000000	97.186641 
3130.000000	97.179033 
3129.000000	97.164978 
3128.000000	97.147409 
3127.000000	97.132251 
3126.000000	97.127187 
3125.000000	97.136422 
3124.000000	97.156639 
3123.000000	97.178445 
3122.000000	97.194145 
3121.000000	97.202853 
3120.000000	97.207538 
3119.000000	97.210384 
3118.000000	97.211910 
3117.000000	97.212861 
3116.000000	97.214566 
3115.000000	97.217302 
3114.000000	97.219820 
3113.000000	97.220992 
3112.000000	97.221265 
3111.000000	97.222248 
3110.000000	97.225253 
3109.000000	97.230254 
3108.000000	97.235905 
3107.000000	97.240541 
3106.000000	97.243399 
3105.000000	97.244905 
3104.000000	97.245902 
3103.000000	97.246966 
3102.000000	97.248470 
3101.000000	97.250739 
3100.000000	97.253751 
3099.000000	97.257104 
3098.000000	97.260654 
3097.000000	97.264741 
3096.000000	97.269341 
3095.000000	97.273515 
3094.000000	97.276412 
3093.000000	97.278336 
3092.000000	97.279989 
3091.000000	97.281026 
3090.000000	97.280535 
3089.000000	97.278992 
3088.000000	97.278736 
3087.000000	97.281741 
3086.000000	97.287508 
3085.000000	97.293730 
3084.000000	97.298449 
3083.000000	97.301070 
3082.000000	97.301917 
3081.000000	97.301699 
3080.000000	97.301008 
3079.000000	97.300326 
3078.000000	97.300048 
3077.000000	97.300385 
3076.000000	97.301231 
3075.000000	97.302037 
3074.000000	97.302457 
3073.000000	97.303406 
3072.000000	97.306641 
3071.000000	97.312608 
3070.000000	97.318972 
3069.000000	97.322388 
3068.000000	97.321737 
3067.000000	97.319063 
3066.000000	97.317438 
3065.000000	97.318243 
3064.000000	97.320718 
3063.000000	97.323047 
3062.000000	97.323552 
3061.000000	97.321793 
3060.000000	97.319241 
3059.000000	97.318350 
3058.000000	97.320345 
3057.000000	97.324000 
3056.000000	97.326676 
3055.000000	97.326317 
3054.000000	97.322593 
3053.000000	97.316880 
3052.000000	97.311504 
3051.000000	97.308310 
3050.000000	97.307264 
3049.000000	97.306727 
3048.000000	97.305329 
3047.000000	97.303243 
3046.000000	97.301318 
3045.000000	97.299406 
3044.000000	97.296368 
3043.000000	97.292025 
3042.000000	97.288271 
3041.000000	97.287535 
3040.000000	97.290030 
3039.000000	97.293132 
3038.000000	97.293921 
3037.000000	97.291678 
3036.000000	97.287372 
3035.000000	97.281632 
3034.000000	97.274526 
3033.000000	97.266532 
3032.000000	97.258273 
3031.000000	97.249825 
3030.000000	97.241661 
3029.000000	97.235632 
3028.000000	97.232831 
3027.000000	97.230427 
3026.000000	97.223188 
3025.000000	97.209248 
3024.000000	97.192486 
3023.000000	97.178105 
3022.000000	97.167604 
3021.000000	97.159697 
3020.000000	97.154119 
3019.000000	97.151792 
3018.000000	97.151661 
3017.000000	97.149792 
3016.000000	97.142413 
3015.000000	97.129097 
3014.000000	97.113220 
3013.000000	97.099913 
3012.000000	97.092134 
3011.000000	97.087198 
3010.000000	97.078284 
3009.000000	97.061256 
3008.000000	97.038958 
3007.000000	97.016912 
3006.000000	96.995632 
3005.000000	96.970631 
3004.000000	96.940887 
3003.000000	96.914126 
3002.000000	96.900802 
3001.000000	96.903814 
3000.000000	96.915134 
2999.000000	96.922019 
2998.000000	96.917416 
2997.000000	96.905029 
2996.000000	96.894932 
2995.000000	96.893575 
2994.000000	96.897311 
2993.000000	96.895804 
2992.000000	96.882079 
2991.000000	96.858836 
2990.000000	96.835562 
2989.000000	96.820683 
2988.000000	96.816653 
2987.000000	96.820555 
2986.000000	96.827491 
2985.000000	96.833956 
2984.000000	96.839032 
2983.000000	96.843070 
2982.000000	96.846083 
2981.000000	96.848136 
2980.000000	96.850258 
2979.000000	96.852748 
2978.000000	96.852588 
2977.000000	96.845279 
2976.000000	96.830910 
2975.000000	96.816757 
2974.000000	96.811514 
2973.000000	96.817592 
2972.000000	96.830195 
2971.000000	96.842903 
2970.000000	96.852731 
2969.000000	96.860229 
2968.000000	96.866991 
2967.000000	96.874011 
2966.000000	96.881364 
2965.000000	96.888577 
2964.000000	96.895321 
2963.000000	96.901640 
2962.000000	96.907428 
2961.000000	96.912329 
2960.000000	96.916826 
2959.000000	96.922860 
2958.000000	96.932304 
2957.000000	96.944954 
2956.000000	96.958574 
2955.000000	96.970573 
2954.000000	96.979469 
2953.000000	96.985479 
2952.000000	96.990701 
2951.000000	96.997947 
2950.000000	97.007685 
2949.000000	97.016566 
2948.000000	97.020493 
2947.000000	97.018880 
2946.000000	97.015038 
2945.000000	97.012789 
2944.000000	97.013658 
2943.000000	97.017114 
2942.000000	97.021642 
2941.000000	97.025091 
2940.000000	97.025764 
2939.000000	97.024315 
2938.000000	97.023631 
2937.000000	97.025976 
2936.000000	97.030942 
2935.000000	97.036565 
2934.000000	97.041175 
2933.000000	97.043556 
2932.000000	97.042866 
2931.000000	97.039989 
2930.000000	97.037969 
2929.000000	97.039110 
2928.000000	97.042014 
2927.000000	97.043135 
2926.000000	97.041260 
2925.000000	97.039123 
2924.000000	97.040096 
2923.000000	97.044306 
2922.000000	97.048714 
2921.000000	97.050508 
2920.000000	97.049809 
2919.000000	97.049260 
2918.000000	97.051027 
2917.000000	97.053960 
2916.000000	97.054039 
2915.000000	97.048387 
2914.000000	97.038907 
2913.000000	97.031005 
2912.000000	97.028199 
2911.000000	97.028725 
2910.000000	97.028136 
2909.000000	97.024485 
2908.000000	97.019836 
2907.000000	97.016704 
2906.000000	97.014384 
2905.000000	97.009483 
2904.000000	96.999918 
2903.000000	96.987649 
2902.000000	96.978373 
2901.000000	96.977285 
2900.000000	96.985978 
2899.000000	97.002206 
2898.000000	97.021314 
2897.000000	97.038178 
2896.000000	97.048382 
2895.000000	97.049808 
2894.000000	97.044683 
2893.000000	97.039631 
2892.000000	97.041322 
2891.000000	97.050718 
2890.000000	97.062149 
2889.000000	97.068995 
2888.000000	97.070215 
2887.000000	97.070388 
2886.000000	97.073720 
2885.000000	97.079557 
2884.000000	97.084537 
2883.000000	97.088093 
2882.000000	97.094349 
2881.000000	97.108173 
2880.000000	97.130233 
2879.000000	97.156131 
2878.000000	97.179941 
2877.000000	97.198344 
2876.000000	97.211428 
2875.000000	97.220472 
2874.000000	97.225752 
2873.000000	97.226632 
2872.000000	97.223430 
2871.000000	97.218507 
2870.000000	97.214938 
2869.000000	97.214181 
2868.000000	97.215649 
2867.000000	97.218776 
2866.000000	97.224673 
2865.000000	97.234707 
2864.000000	97.247814 
2863.000000	97.260669 
2862.000000	97.271128 
2861.000000	97.280278 
2860.000000	97.290128 
2859.000000	97.300459 
2858.000000	97.309423 
2857.000000	97.316683 
2856.000000	97.324150 
2855.000000	97.333452 
2854.000000	97.344143 
2853.000000	97.354736 
2852.000000	97.364250 
2851.000000	97.372237 
2850.000000	97.378451 
2849.000000	97.383345 
2848.000000	97.388031 
2847.000000	97.392872 
2846.000000	97.396966 
2845.000000	97.399774 
2844.000000	97.402137 
2843.000000	97.404942 
2842.000000	97.407833 
2841.000000	97.410184 
2840.000000	97.412492 
2839.000000	97.415621 
2838.000000	97.419321 
2837.000000	97.422811 
2836.000000	97.426330 
2835.000000	97.430733 
2834.000000	97.435880 
2833.000000	97.440768 
2832.000000	97.445201 
2831.000000	97.449968 
2830.000000	97.455202 
2829.000000	97.459771 
2828.000000	97.462743 
2827.000000	97.464661 
2826.000000	97.467000 
2825.000000	97.470793 
2824.000000	97.475780 
2823.000000	97.480279 
2822.000000	97.481978 
2821.000000	97.479727 
2820.000000	97.474889 
2819.000000	97.470649 
2818.000000	97.469619 
2817.000000	97.472348 
2816.000000	97.477799 
2815.000000	97.484196 
2814.000000	97.489536 
2813.000000	97.492443 
2812.000000	97.493048 
2811.000000	97.492661 
2810.000000	97.492369 
2809.000000	97.492338 
2808.000000	97.492604 
2807.000000	97.493723 
2806.000000	97.496081 
2805.000000	97.499154 
2804.000000	97.501961 
2803.000000	97.504043 
2802.000000	97.505608 
2801.000000	97.506901 
2800.000000	97.507865 
2799.000000	97.508409 
2798.000000	97.508686 
2797.000000	97.509030 
2796.000000	97.509721 
2795.000000	97.510871 
2794.000000	97.512435 
2793.000000	97.514334 
2792.000000	97.516509 
2791.000000	97.518782 
2790.000000	97.520831 
2789.000000	97.522327 
2788.000000	97.523240 
2787.000000	97.523976 
2786.000000	97.525101 
2785.000000	97.526839 
2784.000000	97.528900 
2783.000000	97.530830 
2782.000000	97.532427 
2781.000000	97.533824 
2780.000000	97.535394 
2779.000000	97.537561 
2778.000000	97.540462 
2777.000000	97.543653 
2776.000000	97.546282 
2775.000000	97.547781 
2774.000000	97.548385 
2773.000000	97.548887 
2772.000000	97.549825 
2771.000000	97.551068 
2770.000000	97.552357 
2769.000000	97.554068 
2768.000000	97.556991 
2767.000000	97.561164 
2766.000000	97.565260 
2765.000000	97.567642 
2764.000000	97.568008 
2763.000000	97.567619 
2762.000000	97.567978 
2761.000000	97.569568 
2760.000000	97.571997 
2759.000000	97.574699 
2758.000000	97.577208 
2757.000000	97.579317 
2756.000000	97.581473 
2755.000000	97.584508 
2754.000000	97.588335 
2753.000000	97.591360 
2752.000000	97.592203 
2751.000000	97.591837 
2750.000000	97.593056 
2749.000000	97.597363 
2748.000000	97.602970 
2747.000000	97.606454 
2746.000000	97.606013 
2745.000000	97.602461 
2744.000000	97.598070 
2743.000000	97.594823 
2742.000000	97.593569 
2741.000000	97.594109 
2740.000000	97.595560 
2739.000000	97.596888 
2738.000000	97.597457 
2737.000000	97.597251 
2736.000000	97.596675 
2735.000000	97.596180 
2734.000000	97.595910 
2733.000000	97.595637 
2732.000000	97.595165 
2731.000000	97.594826 
2730.000000	97.595339 
2729.000000	97.596986 
2728.000000	97.599031 
2727.000000	97.600220 
2726.000000	97.599975 
2725.000000	97.598939 
2724.000000	97.598349 
2723.000000	97.598822 
2722.000000	97.599857 
2721.000000	97.600527 
2720.000000	97.600585 
2719.000000	97.600662 
2718.000000	97.601357 
2717.000000	97.602482 
2716.000000	97.603375 
2715.000000	97.603748 
2714.000000	97.603903 
2713.000000	97.604190 
2712.000000	97.604593 
2711.000000	97.604909 
2710.000000	97.605088 
2709.000000	97.605231 
2708.000000	97.605421 
2707.000000	97.605675 
2706.000000	97.605990 
2705.000000	97.606344 
2704.000000	97.606709 
2703.000000	97.607078 
2702.000000	97.607456 
2701.000000	97.607866 
2700.000000	97.608350 
2699.000000	97.608926 
2698.000000	97.609566 
2697.000000	97.610204 
2696.000000	97.610798 
2695.000000	97.611341 
2694.000000	97.611865 
2693.000000	97.612415 
2692.000000	97.612996 
2691.000000	97.613547 
2690.000000	97.613993 
2689.000000	97.614323 
2688.000000	97.614585 
2687.000000	97.614838 
2686.000000	97.615116 
2685.000000	97.615433 
2684.000000	97.615794 
2683.000000	97.616171 
2682.000000	97.616514 
2681.000000	97.616795 
2680.000000	97.617030 
2679.000000	97.617264 
2678.000000	97.617532 
2677.000000	97.617818 
2676.000000	97.618099 
2675.000000	97.618360 
2674.000000	97.618571 
2673.000000	97.618689 
2672.000000	97.618730 
2671.000000	97.618841 
2670.000000	97.619137 
2669.000000	97.619580 
2668.000000	97.620063 
2667.000000	97.620584 
2666.000000	97.621176 
2665.000000	97.621671 
2664.000000	97.621813 
2663.000000	97.621755 
2662.000000	97.622115 
2661.000000	97.623280 
2660.000000	97.624805 
2659.000000	97.625767 
2658.000000	97.625750 
2657.000000	97.625210 
2656.000000	97.624811 
2655.000000	97.624587 
2654.000000	97.624019 
2653.000000	97.622913 
2652.000000	97.621910 
2651.000000	97.621900 
2650.000000	97.623031 
2649.000000	97.624479 
2648.000000	97.625173 
2647.000000	97.624499 
2646.000000	97.622433 
2645.000000	97.619566 
2644.000000	97.617192 
2643.000000	97.616659 
2642.000000	97.617964 
2641.000000	97.619308 
2640.000000	97.618859 
2639.000000	97.616782 
2638.000000	97.615054 
2637.000000	97.615573 
2636.000000	97.619132 
2635.000000	97.625509 
2634.000000	97.633047 
2633.000000	97.638410 
2632.000000	97.638806 
2631.000000	97.634938 
2630.000000	97.631069 
2629.000000	97.630570 
2628.000000	97.632305 
2627.000000	97.633037 
2626.000000	97.632005 
2625.000000	97.631058 
2624.000000	97.630874 
2623.000000	97.629522 
2622.000000	97.625325 
2621.000000	97.619103 
2620.000000	97.612848 
2619.000000	97.607650 
2618.000000	97.604025 
2617.000000	97.602969 
2616.000000	97.605159 
2615.000000	97.609548 
2614.000000	97.613726 
2613.000000	97.615886 
2612.000000	97.615799 
2611.000000	97.614258 
2610.000000	97.612350 
2609.000000	97.610929 
2608.000000	97.610139 
2607.000000	97.609461 
2606.000000	97.608499 
2605.000000	97.607402 
2604.000000	97.606234 
2603.000000	97.604520 
2602.000000	97.602170 
2601.000000	97.600494 
2600.000000	97.601171 
2599.000000	97.604194 
2598.000000	97.607460 
2597.000000	97.608688 
2596.000000	97.607483 
2595.000000	97.605060 
2594.000000	97.602687 
2593.000000	97.600696 
2592.000000	97.598895 
2591.000000	97.597371 
2590.000000	97.596562 
2589.000000	97.596740 
2588.000000	97.597700 
2587.000000	97.599070 
2586.000000	97.600640 
2585.000000	97.602322 
2584.000000	97.603923 
2583.000000	97.605018 
2582.000000	97.605221 
2581.000000	97.604554 
2580.000000	97.603557 
2579.000000	97.602955 
2578.000000	97.603108 
2577.000000	97.603712 
2576.000000	97.604013 
2575.000000	97.603487 
2574.000000	97.602360 
2573.000000	97.601512 
2572.000000	97.601663 
2571.000000	97.602705 
2570.000000	97.603832 
2569.000000	97.604273 
2568.000000	97.603875 
2567.000000	97.602938 
2566.000000	97.601880 
2565.000000	97.601125 
2564.000000	97.601055 
2563.000000	97.601761 
2562.000000	97.602780 
2561.000000	97.603411 
2560.000000	97.603494 
2559.000000	97.603621 
2558.000000	97.604434 
2557.000000	97.605901 
2556.000000	97.607338 
2555.000000	97.608142 
2554.000000	97.608280 
2553.000000	97.608077 
2552.000000	97.607645 
2551.000000	97.607025 
2550.000000	97.606808 
2549.000000	97.607714 
2548.000000	97.609614 
2547.000000	97.611487 
2546.000000	97.612525 
2545.000000	97.612964 
2544.000000	97.613411 
2543.000000	97.613795 
2542.000000	97.613451 
2541.000000	97.612136 
2540.000000	97.610462 
2539.000000	97.609249 
2538.000000	97.608855 
2537.000000	97.609032 
2536.000000	97.609246 
2535.000000	97.609354 
2534.000000	97.610001 
2533.000000	97.611960 
2532.000000	97.614866 
2531.000000	97.617029 
2530.000000	97.616998 
2529.000000	97.615140 
2528.000000	97.613411 
2527.000000	97.613521 
2526.000000	97.615754 
2525.000000	97.619350 
2524.000000	97.623394 
2523.000000	97.627176 
2522.000000	97.630106 
2521.000000	97.631590 
2520.000000	97.631098 
2519.000000	97.628598 
2518.000000	97.625153 
2517.000000	97.622545 
2516.000000	97.621573 
2515.000000	97.621115 
2514.000000	97.619879 
2513.000000	97.618999 
2512.000000	97.621507 
2511.000000	97.628877 
2510.000000	97.638873 
2509.000000	97.646935 
2508.000000	97.649678 
2507.000000	97.646729 
2506.000000	97.640616 
2505.000000	97.635594 
2504.000000	97.635058 
2503.000000	97.639283 
2502.000000	97.645525 
2501.000000	97.651071 
2500.000000	97.656332 
2499.000000	97.663988 
2498.000000	97.675090 
2497.000000	97.686572 
2496.000000	97.693266 
2495.000000	97.692224 
2494.000000	97.684617 
2493.000000	97.674578 
2492.000000	97.666376 
2491.000000	97.662154 
2490.000000	97.661798 
2489.000000	97.663970 
2488.000000	97.667213 
2487.000000	97.670559 
2486.000000	97.673387 
2485.000000	97.674963 
2484.000000	97.674522 
2483.000000	97.672159 
2482.000000	97.669370 
2481.000000	97.667966 
2480.000000	97.668164 
2479.000000	97.668459 
2478.000000	97.667777 
2477.000000	97.666908 
2476.000000	97.666848 
2475.000000	97.666522 
2474.000000	97.663803 
2473.000000	97.658844 
2472.000000	97.654870 
2471.000000	97.654756 
2470.000000	97.657996 
2469.000000	97.661585 
2468.000000	97.663317 
2467.000000	97.663571 
2466.000000	97.663877 
2465.000000	97.664737 
2464.000000	97.665176 
2463.000000	97.664119 
2462.000000	97.661841 
2461.000000	97.660054 
2460.000000	97.660327 
2459.000000	97.662399 
2458.000000	97.664383 
2457.000000	97.664666 
2456.000000	97.663208 
2455.000000	97.660825 
2454.000000	97.657944 
2453.000000	97.654610 
2452.000000	97.651361 
2451.000000	97.649207 
2450.000000	97.648653 
2449.000000	97.649097 
2448.000000	97.649425 
2447.000000	97.649263 
2446.000000	97.649163 
2445.000000	97.649721 
2444.000000	97.651039 
2443.000000	97.652883 
2442.000000	97.654878 
2441.000000	97.656464 
2440.000000	97.657033 
2439.000000	97.656478 
2438.000000	97.655623 
2437.000000	97.655764 
2436.000000	97.657459 
2435.000000	97.659951 
2434.000000	97.661776 
2433.000000	97.662201 
2432.000000	97.661763 
2431.000000	97.661653 
2430.000000	97.662532 
2429.000000	97.664111 
2428.000000	97.665590 
2427.000000	97.666391 
2426.000000	97.666445 
2425.000000	97.665966 
2424.000000	97.665274 
2423.000000	97.664699 
2422.000000	97.664590 
2421.000000	97.665169 
2420.000000	97.666392 
2419.000000	97.667939 
2418.000000	97.669209 
2417.000000	97.669871 
2416.000000	97.670537 
2415.000000	97.672133 
2414.000000	97.674582 
2413.000000	97.677029 
2412.000000	97.678884 
2411.000000	97.679933 
2410.000000	97.680232 
2409.000000	97.680522 
2408.000000	97.682076 
2407.000000	97.685313 
2406.000000	97.688947 
2405.000000	97.691205 
2404.000000	97.691673 
2403.000000	97.691380 
2402.000000	97.691405 
2401.000000	97.692109 
2400.000000	97.693493 
2399.000000	97.695555 
2398.000000	97.698357 
2397.000000	97.702099 
2396.000000	97.706801 
2395.000000	97.711558 
2394.000000	97.714702 
2393.000000	97.715450 
2392.000000	97.714941 
2391.000000	97.714985 
2390.000000	97.716214 
2389.000000	97.718097 
2388.000000	97.720018 
2387.000000	97.721214 
2386.000000	97.720305 
2385.000000	97.716497 
2384.000000	97.711519 
2383.000000	97.709114 
2382.000000	97.712045 
2381.000000	97.720530 
2380.000000	97.733323 
2379.000000	97.748610 
2378.000000	97.762878 
2377.000000	97.770795 
2376.000000	97.768741 
2375.000000	97.758019 
2374.000000	97.744327 
2373.000000	97.733684 
2372.000000	97.729043 
2371.000000	97.730101 
2370.000000	97.733740 
2369.000000	97.735450 
2368.000000	97.733089 
2367.000000	97.728914 
2366.000000	97.726465 
2365.000000	97.725938 
2364.000000	97.724725 
2363.000000	97.721783 
2362.000000	97.719259 
2361.000000	97.719717 
2360.000000	97.722999 
2359.000000	97.726734 
2358.000000	97.728593 
2357.000000	97.727528 
2356.000000	97.724233 
2355.000000	97.720095 
2354.000000	97.715768 
2353.000000	97.711361 
2352.000000	97.707768 
2351.000000	97.706206 
2350.000000	97.705897 
2349.000000	97.704893 
2348.000000	97.702563 
2347.000000	97.699941 
2346.000000	97.698167 
2345.000000	97.696856 
2344.000000	97.695458 
2343.000000	97.694074 
2342.000000	97.692823 
2341.000000	97.691400 
2340.000000	97.689257 
2339.000000	97.686416 
2338.000000	97.683364 
2337.000000	97.680693 
2336.000000	97.678549 
2335.000000	97.676585 
2334.000000	97.674626 
2333.000000	97.672784 
2332.000000	97.671056 
2331.000000	97.669402 
2330.000000	97.667781 
2329.000000	97.666163 
2328.000000	97.664540 
2327.000000	97.662913 
2326.000000	97.661274 
2325.000000	97.659584 
2324.000000	97.657873 
2323.000000	97.656243 
2322.000000	97.654768 
2321.000000	97.653335 
2320.000000	97.651727 
2319.000000	97.650038 
2318.000000	97.648603 
2317.000000	97.647459 
2316.000000	97.646090 
2315.000000	97.644308 
2314.000000	97.642534 
2313.000000	97.641183 
2312.000000	97.640112 
2311.000000	97.639021 
2310.000000	97.637476 
2309.000000	97.634673 
2308.000000	97.630608 
2307.000000	97.626940 
2306.000000	97.625699 
2305.000000	97.626990 
2304.000000	97.629609 
2303.000000	97.632925 
2302.000000	97.636402 
2301.000000	97.638392 
2300.000000	97.637888 
2299.000000	97.636646 
2298.000000	97.636938 
2297.000000	97.637916 
2296.000000	97.637458 
2295.000000	97.635512 
2294.000000	97.633446 
2293.000000	97.630887 
2292.000000	97.626828 
2291.000000	97.622401 
2290.000000	97.620211 
2289.000000	97.620572 
2288.000000	97.621620 
2287.000000	97.622448 
2286.000000	97.623339 
2285.000000	97.623360 
2284.000000	97.620991 
2283.000000	97.616961 
2282.000000	97.613946 
2281.000000	97.613340 
2280.000000	97.614260 
2279.000000	97.615586 
2278.000000	97.616682 
2277.000000	97.616790 
2276.000000	97.616092 
2275.000000	97.617004 
2274.000000	97.621666 
2273.000000	97.628593 
2272.000000	97.634435 
2271.000000	97.638752 
2270.000000	97.644350 
2269.000000	97.652836 
2268.000000	97.662194 
2267.000000	97.668878 
2266.000000	97.670490 
2265.000000	97.666851 
2264.000000	97.660102 
2263.000000	97.653137 
2262.000000	97.646930 
2261.000000	97.640461 
2260.000000	97.633848 
2259.000000	97.628956 
2258.000000	97.626116 
2257.000000	97.624271 
2256.000000	97.626454 
2255.000000	97.640071 
2254.000000	97.666679 
2253.000000	97.694464 
2252.000000	97.707837 
2251.000000	97.702198 
2250.000000	97.684006 
2249.000000	97.661271 
2248.000000	97.639569 
2247.000000	97.624708 
2246.000000	97.619481 
2245.000000	97.617044 
2244.000000	97.606338 
2243.000000	97.586735 
2242.000000	97.569929 
2241.000000	97.564276 
2240.000000	97.564532 
2239.000000	97.560766 
2238.000000	97.551274 
2237.000000	97.541488 
2236.000000	97.535189 
2235.000000	97.532867 
2234.000000	97.535220 
2233.000000	97.542418 
2232.000000	97.551537 
2231.000000	97.558612 
2230.000000	97.561602 
2229.000000	97.559061 
2228.000000	97.549569 
2227.000000	97.535932 
2226.000000	97.526225 
2225.000000	97.525581 
2224.000000	97.529408 
2223.000000	97.529198 
2222.000000	97.523602 
2221.000000	97.518575 
2220.000000	97.517526 
2219.000000	97.517029 
2218.000000	97.513135 
2217.000000	97.507351 
2216.000000	97.504068 
2215.000000	97.504604 
2214.000000	97.505817 
2213.000000	97.503574 
2212.000000	97.496884 
2211.000000	97.489098 
2210.000000	97.484806 
2209.000000	97.485339 
2208.000000	97.487712 
2207.000000	97.488861 
2206.000000	97.489723 
2205.000000	97.493413 
2204.000000	97.500528 
2203.000000	97.508030 
2202.000000	97.512876 
2201.000000	97.514664 
2200.000000	97.514643 
2199.000000	97.514222 
2198.000000	97.514568 
2197.000000	97.516022 
2196.000000	97.517540 
2195.000000	97.517805 
2194.000000	97.516616 
2193.000000	97.514560 
2192.000000	97.511920 
2191.000000	97.508779 
2190.000000	97.506079 
2189.000000	97.505429 
2188.000000	97.507443 
2187.000000	97.510602 
2186.000000	97.512041 
2185.000000	97.510074 
2184.000000	97.506614 
2183.000000	97.506241 
2182.000000	97.511202 
2181.000000	97.517537 
2180.000000	97.518341 
2179.000000	97.511322 
2178.000000	97.501351 
2177.000000	97.495326 
2176.000000	97.495714 
2175.000000	97.499958 
2174.000000	97.504179 
2173.000000	97.506185 
2172.000000	97.506282 
2171.000000	97.506988 
2170.000000	97.511076 
2169.000000	97.518287 
2168.000000	97.524561 
2167.000000	97.525570 
2166.000000	97.520987 
2165.000000	97.514532 
2164.000000	97.510637 
2163.000000	97.512065 
2162.000000	97.520330 
2161.000000	97.536583 
2160.000000	97.560631 
2159.000000	97.588282 
2158.000000	97.610403 
2157.000000	97.618620 
2156.000000	97.613057 
2155.000000	97.603355 
2154.000000	97.600585 
2153.000000	97.607684 
2152.000000	97.618491 
2151.000000	97.624572 
2150.000000	97.622292 
2149.000000	97.614864 
2148.000000	97.609572 
2147.000000	97.611761 
2146.000000	97.620047 
2145.000000	97.628353 
2144.000000	97.633770 
2143.000000	97.639669 
2142.000000	97.648866 
2141.000000	97.657807 
2140.000000	97.662025 
2139.000000	97.664032 
2138.000000	97.669680 
2137.000000	97.678621 
2136.000000	97.685334 
2135.000000	97.688892 
2134.000000	97.694311 
2133.000000	97.703901 
2132.000000	97.714351 
2131.000000	97.722807 
2130.000000	97.727962 
2129.000000	97.724243 
2128.000000	97.704127 
2127.000000	97.669804 
2126.000000	97.637170 
2125.000000	97.621359 
2124.000000	97.622220 
2123.000000	97.629106 
2122.000000	97.635203 
2121.000000	97.641587 
2120.000000	97.648073 
2119.000000	97.649037 
2118.000000	97.641354 
2117.000000	97.630627 
2116.000000	97.624763 
2115.000000	97.623945 
2114.000000	97.621541 
2113.000000	97.614134 
2112.000000	97.606730 
2111.000000	97.606552 
2110.000000	97.614169 
2109.000000	97.622627 
2108.000000	97.624863 
2107.000000	97.620660 
2106.000000	97.615915 
2105.000000	97.616157 
2104.000000	97.621702 
2103.000000	97.628523 
2102.000000	97.632107 
2101.000000	97.630179 
2100.000000	97.623456 
2099.000000	97.615380 
2098.000000	97.610467 
2097.000000	97.611341 
2096.000000	97.617127 
2095.000000	97.624812 
2094.000000	97.631586 
2093.000000	97.635803 
2092.000000	97.636938 
2091.000000	97.635812 
2090.000000	97.634328 
2089.000000	97.633847 
2088.000000	97.633851 
2087.000000	97.632852 
2086.000000	97.630194 
2085.000000	97.626611 
2084.000000	97.623393 
2083.000000	97.621251 
2082.000000	97.620106 
2081.000000	97.619328 
2080.000000	97.618088 
2079.000000	97.615938 
2078.000000	97.613134 
2077.000000	97.610324 
2076.000000	97.608340 
2075.000000	97.608073 
2074.000000	97.609635 
2073.000000	97.611508 
2072.000000	97.611301 
2071.000000	97.608163 
2070.000000	97.603651 
2069.000000	97.599965 
2068.000000	97.598044 
2067.000000	97.597495 
2066.000000	97.597524 
2065.000000	97.597323 
2064.000000	97.596164 
2063.000000	97.593877 
2062.000000	97.591211 
2061.000000	97.589299 
2060.000000	97.588586 
2059.000000	97.588710 
2058.000000	97.589007 
2057.000000	97.588942 
2056.000000	97.588181 
2055.000000	97.586498 
2054.000000	97.583862 
2053.000000	97.580542 
2052.000000	97.576940 
2051.000000	97.573378 
2050.000000	97.570062 
2049.000000	97.567143 
2048.000000	97.564690 
2047.000000	97.562421 
2046.000000	97.559769 
2045.000000	97.556422 
2044.000000	97.552492 
2043.000000	97.548674 
2042.000000	97.546069 
2041.000000	97.545703 
2040.000000	97.547477 
2039.000000	97.549822 
2038.000000	97.550934 
2037.000000	97.549555 
2036.000000	97.545375 
2035.000000	97.539882 
2034.000000	97.536520 
2033.000000	97.538552 
2032.000000	97.546008 
2031.000000	97.554862 
2030.000000	97.559498 
2029.000000	97.556379 
2028.000000	97.546206 
2027.000000	97.533452 
2026.000000	97.523514 
2025.000000	97.519799 
2024.000000	97.523163 
2023.000000	97.533092 
2022.000000	97.547807 
2021.000000	97.562674 
2020.000000	97.570850 
2019.000000	97.567763 
2018.000000	97.554869 
2017.000000	97.538732 
2016.000000	97.525985 
2015.000000	97.519381 
2014.000000	97.517988 
2013.000000	97.518999 
2012.000000	97.519663 
2011.000000	97.519225 
2010.000000	97.518816 
2009.000000	97.518478 
2008.000000	97.515802 
2007.000000	97.510673 
2006.000000	97.511041 
2005.000000	97.529462 
2004.000000	97.571756 
2003.000000	97.628220 
2002.000000	97.675195 
2001.000000	97.691711 
2000.000000	97.674245 
1999.000000	97.638100 
1998.000000	97.605513 
1997.000000	97.587535 
1996.000000	97.580816 
1995.000000	97.577944 
1994.000000	97.576017 
1993.000000	97.575866 
1992.000000	97.576813 
1991.000000	97.575780 
1990.000000	97.571149 
1989.000000	97.564533 
1988.000000	97.558443 
1987.000000	97.554117 
1986.000000	97.551780 
1985.000000	97.551286 
1984.000000	97.551799 
1983.000000	97.551874 
1982.000000	97.550452 
1981.000000	97.547248 
1980.000000	97.542519 
1979.000000	97.537427 
1978.000000	97.534326 
1977.000000	97.534999 
1976.000000	97.537820 
1975.000000	97.538670 
1974.000000	97.536035 
1973.000000	97.533548 
1972.000000	97.535700 
1971.000000	97.541743 
1970.000000	97.545620 
1969.000000	97.541963 
1968.000000	97.530726 
1967.000000	97.516258 
1966.000000	97.503546 
1965.000000	97.495691 
1964.000000	97.493931 
1963.000000	97.498161 
1962.000000	97.506326 
1961.000000	97.513743 
1960.000000	97.516374 
1959.000000	97.514372 
1958.000000	97.511099 
1957.000000	97.509956 
1956.000000	97.511909 
1955.000000	97.516072 
1954.000000	97.520077 
1953.000000	97.522356 
1952.000000	97.523434 
1951.000000	97.524194 
1950.000000	97.524645 
1949.000000	97.524862 
1948.000000	97.526012 
1947.000000	97.529153 
1946.000000	97.533263 
1945.000000	97.535804 
1944.000000	97.535547 
1943.000000	97.533855 
1942.000000	97.533038 
1941.000000	97.533958 
1940.000000	97.536015 
1939.000000	97.538415 
1938.000000	97.540364 
1937.000000	97.541043 
1936.000000	97.540413 
1935.000000	97.539464 
1934.000000	97.539081 
1933.000000	97.539376 
1932.000000	97.540472 
1931.000000	97.543146 
1930.000000	97.548022 
1929.000000	97.554275 
1928.000000	97.560394 
1927.000000	97.565754 
1926.000000	97.570184 
1925.000000	97.573121 
1924.000000	97.574246 
1923.000000	97.574719 
1922.000000	97.576226 
1921.000000	97.578713 
1920.000000	97.580552 
1919.000000	97.580301 
1918.000000	97.577493 
1917.000000	97.572537 
1916.000000	97.567295 
1915.000000	97.564819 
1914.000000	97.566570 
1913.000000	97.570050 
1912.000000	97.571001 
1911.000000	97.568544 
1910.000000	97.565819 
1909.000000	97.565114 
1908.000000	97.565199 
1907.000000	97.564232 
1906.000000	97.562397 
1905.000000	97.560648 
1904.000000	97.559219 
1903.000000	97.558660 
1902.000000	97.559741 
1901.000000	97.561475 
1900.000000	97.561627 
1899.000000	97.559598 
1898.000000	97.557295 
1897.000000	97.556793 
1896.000000	97.558078 
1895.000000	97.559682 
1894.000000	97.560154 
1893.000000	97.558567 
1892.000000	97.554966 
1891.000000	97.550864 
1890.000000	97.548257 
1889.000000	97.547428 
1888.000000	97.546924 
1887.000000	97.546161 
1886.000000	97.546106 
1885.000000	97.546773 
1884.000000	97.546259 
1883.000000	97.543467 
1882.000000	97.540192 
1881.000000	97.538793 
1880.000000	97.538955 
1879.000000	97.538685 
1878.000000	97.538091 
1877.000000	97.539609 
1876.000000	97.544086 
1875.000000	97.549549 
1874.000000	97.553843 
1873.000000	97.556771 
1872.000000	97.558914 
1871.000000	97.560203 
1870.000000	97.560441 
1869.000000	97.560752 
1868.000000	97.562937 
1867.000000	97.567316 
1866.000000	97.572462 
1865.000000	97.576513 
1864.000000	97.578617 
1863.000000	97.579204 
1862.000000	97.579695 
1861.000000	97.581515 
1860.000000	97.585131 
1859.000000	97.590045 
1858.000000	97.595401 
1857.000000	97.600434 
1856.000000	97.604638 
1855.000000	97.607936 
1854.000000	97.610648 
1853.000000	97.613194 
1852.000000	97.616083 
1851.000000	97.619900 
1850.000000	97.624796 
1849.000000	97.630190 
1848.000000	97.635161 
1847.000000	97.639416 
1846.000000	97.643562 
1845.000000	97.648358 
1844.000000	97.653714 
1843.000000	97.658705 
1842.000000	97.662695 
1841.000000	97.665973 
1840.000000	97.669405 
1839.000000	97.673314 
1838.000000	97.676900 
1837.000000	97.679081 
1836.000000	97.679889 
1835.000000	97.680930 
1834.000000	97.683871 
1833.000000	97.689048 
1832.000000	97.695660 
1831.000000	97.701524 
1830.000000	97.703500 
1829.000000	97.700842 
1828.000000	97.696733 
1827.000000	97.694957 
1826.000000	97.696452 
1825.000000	97.699223 
1824.000000	97.700581 
1823.000000	97.699770 
1822.000000	97.698230 
1821.000000	97.697662 
1820.000000	97.698504 
1819.000000	97.700267 
1818.000000	97.702888 
1817.000000	97.705987 
1816.000000	97.707359 
1815.000000	97.705542 
1814.000000	97.702239 
1813.000000	97.700847 
1812.000000	97.702458 
1811.000000	97.704559 
1810.000000	97.705344 
1809.000000	97.705127 
1808.000000	97.703607 
1807.000000	97.700737 
1806.000000	97.698755 
1805.000000	97.699393 
1804.000000	97.700095 
1803.000000	97.696347 
1802.000000	97.687140 
1801.000000	97.677237 
1800.000000	97.671918 
1799.000000	97.671597 
1798.000000	97.674107 
1797.000000	97.676641 
1796.000000	97.676242 
1795.000000	97.672466 
1794.000000	97.668532 
1793.000000	97.668582 
1792.000000	97.672237 
1791.000000	97.675281 
1790.000000	97.676428 
1789.000000	97.677565 
1788.000000	97.679781 
1787.000000	97.682913 
1786.000000	97.687076 
1785.000000	97.691853 
1784.000000	97.695015 
1783.000000	97.695229 
1782.000000	97.693655 
1781.000000	97.692804 
1780.000000	97.694229 
1779.000000	97.697146 
1778.000000	97.700435 
1777.000000	97.703402 
1776.000000	97.705564 
1775.000000	97.706947 
1774.000000	97.707882 
1773.000000	97.709160 
1772.000000	97.710813 
1771.000000	97.710800 
1770.000000	97.708149 
1769.000000	97.705395 
1768.000000	97.705775 
1767.000000	97.709536 
1766.000000	97.714234 
1765.000000	97.718375 
1764.000000	97.722360 
1763.000000	97.725900 
1762.000000	97.727462 
1761.000000	97.727142 
1760.000000	97.726665 
1759.000000	97.726527 
1758.000000	97.725887 
1757.000000	97.724474 
1756.000000	97.723905 
1755.000000	97.724129 
1754.000000	97.722252 
1753.000000	97.716811 
1752.000000	97.711635 
1751.000000	97.713025 
1750.000000	97.721977 
1749.000000	97.732728 
1748.000000	97.739841 
1747.000000	97.743449 
1746.000000	97.745576 
1745.000000	97.747698 
1744.000000	97.750387 
1743.000000	97.752752 
1742.000000	97.753444 
1741.000000	97.752839 
1740.000000	97.752959 
1739.000000	97.754906 
1738.000000	97.757127 
1737.000000	97.758273 
1736.000000	97.758695 
1735.000000	97.759042 
1734.000000	97.759006 
1733.000000	97.757728 
1732.000000	97.755908 
1731.000000	97.755934 
1730.000000	97.759206 
1729.000000	97.763530 
1728.000000	97.766609 
1727.000000	97.768119 
1726.000000	97.768910 
1725.000000	97.769541 
1724.000000	97.770289 
1723.000000	97.771304 
1722.000000	97.772791 
1721.000000	97.773853 
1720.000000	97.773144 
1719.000000	97.769560 
1718.000000	97.764368 
1717.000000	97.761735 
1716.000000	97.760934 
1715.000000	97.758539 
1714.000000	97.756195 
1713.000000	97.755339 
1712.000000	97.754105 
1711.000000	97.752178 
1710.000000	97.751770 
1709.000000	97.753354 
1708.000000	97.754526 
1707.000000	97.753530 
1706.000000	97.751693 
1705.000000	97.750509 
1704.000000	97.747307 
1703.000000	97.740372 
1702.000000	97.731520 
1701.000000	97.726033 
1700.000000	97.725918 
1699.000000	97.725515 
1698.000000	97.723140 
1697.000000	97.721607 
1696.000000	97.720725 
1695.000000	97.719069 
1694.000000	97.716984 
1693.000000	97.715338 
1692.000000	97.714232 
1691.000000	97.712936 
1690.000000	97.711188 
1689.000000	97.709238 
1688.000000	97.707227 
1687.000000	97.704850 
1686.000000	97.701831 
1685.000000	97.698707 
1684.000000	97.695941 
1683.000000	97.694008 
1682.000000	97.692550 
1681.000000	97.690743 
1680.000000	97.689126 
1679.000000	97.687757 
1678.000000	97.686271 
1677.000000	97.684338 
1676.000000	97.682465 
1675.000000	97.681107 
1674.000000	97.679544 
1673.000000	97.677086 
1672.000000	97.674329 
1671.000000	97.672287 
1670.000000	97.671247 
1669.000000	97.670500 
1668.000000	97.669768 
1667.000000	97.669153 
1666.000000	97.668031 
1665.000000	97.666020 
1664.000000	97.663796 
1663.000000	97.662614 
1662.000000	97.662405 
1661.000000	97.661417 
1660.000000	97.659502 
1659.000000	97.658025 
1658.000000	97.657689 
1657.000000	97.657003 
1656.000000	97.655513 
1655.000000	97.653733 
1654.000000	97.652653 
1653.000000	97.652606 
1652.000000	97.652118 
1651.000000	97.649383 
1650.000000	97.643944 
1649.000000	97.638556 
1648.000000	97.633725 
1647.000000	97.630683 
1646.000000	97.630267 
1645.000000	97.632394 
1644.000000	97.633952 
1643.000000	97.633849 
1642.000000	97.632335 
1641.000000	97.630299 
1640.000000	97.629157 
1639.000000	97.630047 
1638.000000	97.632943 
1637.000000	97.635341 
1636.000000	97.633698 
1635.000000	97.630042 
1634.000000	97.628910 
1633.000000	97.629427 
1632.000000	97.628876 
1631.000000	97.627313 
1630.000000	97.626838 
1629.000000	97.627950 
1628.000000	97.629141 
1627.000000	97.630126 
1626.000000	97.632012 
1625.000000	97.635237 
1624.000000	97.639446 
1623.000000	97.644459 
1622.000000	97.649639 
1621.000000	97.652690 
1620.000000	97.652836 
1619.000000	97.651640 
1618.000000	97.650757 
1617.000000	97.649998 
1616.000000	97.648914 
1615.000000	97.648883 
1614.000000	97.649544 
1613.000000	97.649319 
1612.000000	97.648302 
1611.000000	97.648573 
1610.000000	97.650328 
1609.000000	97.651116 
1608.000000	97.651630 
1607.000000	97.655985 
1606.000000	97.663428 
1605.000000	97.668292 
1604.000000	97.669664 
1603.000000	97.671909 
1602.000000	97.677056 
1601.000000	97.682297 
1600.000000	97.685570 
1599.000000	97.688218 
1598.000000	97.690902 
1597.000000	97.692829 
1596.000000	97.694560 
1595.000000	97.698220 
1594.000000	97.704010 
1593.000000	97.709092 
1592.000000	97.712094 
1591.000000	97.715144 
1590.000000	97.719577 
1589.000000	97.723469 
1588.000000	97.725922 
1587.000000	97.729145 
1586.000000	97.733599 
1585.000000	97.735830 
1584.000000	97.735912 
1583.000000	97.738655 
1582.000000	97.744145 
1581.000000	97.747252 
1580.000000	97.747129 
1579.000000	97.749677 
1578.000000	97.758585 
1577.000000	97.769230 
1576.000000	97.774364 
1575.000000	97.775152 
1574.000000	97.774061 
1573.000000	97.771136 
1572.000000	97.770250 
1571.000000	97.774036 
1570.000000	97.777359 
1569.000000	97.770582 
1568.000000	97.759038 
1567.000000	97.753680 
1566.000000	97.755359 
1565.000000	97.757389 
1564.000000	97.758857 
1563.000000	97.759892 
1562.000000	97.758337 
1561.000000	97.747514 
1560.000000	97.732293 
1559.000000	97.723434 
1558.000000	97.725790 
1557.000000	97.732181 
1556.000000	97.729134 
1555.000000	97.727422 
1554.000000	97.725058 
1553.000000	97.723322 
1552.000000	97.717929 
1551.000000	97.706108 
1550.000000	97.686192 
1549.000000	97.665518 
1548.000000	97.652859 
1547.000000	97.649826 
1546.000000	97.650362 
1545.000000	97.648984 
1544.000000	97.646089 
1543.000000	97.643098 
1542.000000	97.638394 
1541.000000	97.627035 
1540.000000	97.601248 
1539.000000	97.571040 
1538.000000	97.547824 
1537.000000	97.525362 
1536.000000	97.502696 
1535.000000	97.482842 
1534.000000	97.466851 
1533.000000	97.451860 
1532.000000	97.436480 
1531.000000	97.419907 
1530.000000	97.404951 
1529.000000	97.393262 
1528.000000	97.380481 
1527.000000	97.361568 
1526.000000	97.337121 
1525.000000	97.313480 
1524.000000	97.295171 
1523.000000	97.279561 
1522.000000	97.259437 
1521.000000	97.233011 
1520.000000	97.206563 
1519.000000	97.183150 
1518.000000	97.160265 
1517.000000	97.136239 
1516.000000	97.113174 
1515.000000	97.094629 
1514.000000	97.079535 
1513.000000	97.066358 
1512.000000	97.054307 
1511.000000	97.040336 
1510.000000	97.021307 
1509.000000	96.996862 
1508.000000	96.968604 
1507.000000	96.936057 
1506.000000	96.906937 
1505.000000	96.884803 
1504.000000	96.861999 
1503.000000	96.840499 
1502.000000	96.822866 
1501.000000	96.808245 
1500.000000	96.791573 
1499.000000	96.768620 
1498.000000	96.739313 
1497.000000	96.710407 
1496.000000	96.687325 
1495.000000	96.668606 
1494.000000	96.653095 
1493.000000	96.642867 
1492.000000	96.637693 
1491.000000	96.631720 
1490.000000	96.618962 
1489.000000	96.602074 
1488.000000	96.584245 
1487.000000	96.562721 
1486.000000	96.538502 
1485.000000	96.514003 
1484.000000	96.491742 
1483.000000	96.473817 
1482.000000	96.458649 
1481.000000	96.443272 
1480.000000	96.425443 
1479.000000	96.405525 
1478.000000	96.385593 
1477.000000	96.368135 
1476.000000	96.352606 
1475.000000	96.336406 
1474.000000	96.318255 
1473.000000	96.299598 
1472.000000	96.283830 
1471.000000	96.270255 
1470.000000	96.255971 
1469.000000	96.240416 
1468.000000	96.223297 
1467.000000	96.203207 
1466.000000	96.181361 
1465.000000	96.163049 
1464.000000	96.153109 
1463.000000	96.146744 
1462.000000	96.136778 
1461.000000	96.124499 
1460.000000	96.115594 
1459.000000	96.110101 
1458.000000	96.092938 
1457.000000	96.057316 
1456.000000	96.026308 
1455.000000	96.011151 
1454.000000	95.999835 
1453.000000	95.990582 
1452.000000	95.986987 
1451.000000	95.989876 
1450.000000	95.994877 
1449.000000	96.000465 
1448.000000	96.005898 
1447.000000	96.008077 
1446.000000	96.004314 
1445.000000	95.998107 
1444.000000	95.996391 
1443.000000	95.998450 
1442.000000	95.999059 
1441.000000	95.996888 
1440.000000	95.995195 
1439.000000	95.993552 
1438.000000	95.986052 
1437.000000	95.973407 
1436.000000	95.967969 
1435.000000	95.973402 
1434.000000	95.980192 
1433.000000	95.985631 
1432.000000	95.993064 
1431.000000	96.003409 
1430.000000	96.012169 
1429.000000	96.017184 
1428.000000	96.021429 
1427.000000	96.028163 
1426.000000	96.037048 
1425.000000	96.045752 
1424.000000	96.055556 
1423.000000	96.065465 
1422.000000	96.071861 
1421.000000	96.076321 
1420.000000	96.085425 
1419.000000	96.096291 
1418.000000	96.097890 
1417.000000	96.094685 
1416.000000	96.100069 
1415.000000	96.115980 
1414.000000	96.131541 
1413.000000	96.139434 
1412.000000	96.145105 
1411.000000	96.155892 
1410.000000	96.169878 
1409.000000	96.183513 
1408.000000	96.198063 
1407.000000	96.215730 
1406.000000	96.235002 
1405.000000	96.254385 
1404.000000	96.277993 
1403.000000	96.305975 
1402.000000	96.332668 
1401.000000	96.358106 
1400.000000	96.389373 
1399.000000	96.428201 
1398.000000	96.463125 
1397.000000	96.482798 
1396.000000	96.489671 
1395.000000	96.497802 
1394.000000	96.518170 
1393.000000	96.551444 
1392.000000	96.594651 
1391.000000	96.643503 
1390.000000	96.691749 
1389.000000	96.732632 
1388.000000	96.761659 
1387.000000	96.779625 
1386.000000	96.792429 
1385.000000	96.806550 
1384.000000	96.826114 
1383.000000	96.851638 
1382.000000	96.880586 
1381.000000	96.910049 
1380.000000	96.938408 
1379.000000	96.967008 
1378.000000	96.998203 
1377.000000	97.030765 
1376.000000	97.058779 
1375.000000	97.076915 
1374.000000	97.086776 
1373.000000	97.096511 
1372.000000	97.111602 
1371.000000	97.131643 
1370.000000	97.155264 
1369.000000	97.181700 
1368.000000	97.211220 
1367.000000	97.242556 
1366.000000	97.273091 
1365.000000	97.301126 
1364.000000	97.324314 
1363.000000	97.338950 
1362.000000	97.345738 
1361.000000	97.352292 
1360.000000	97.366339 
1359.000000	97.390057 
1358.000000	97.419680 
1357.000000	97.447835 
1356.000000	97.468316 
1355.000000	97.480487 
1354.000000	97.490166 
1353.000000	97.504813 
1352.000000	97.524657 
1351.000000	97.543463 
1350.000000	97.556677 
1349.000000	97.563925 
1348.000000	97.568806 
1347.000000	97.575563 
1346.000000	97.586940 
1345.000000	97.602306 
1344.000000	97.618296 
1343.000000	97.632196 
1342.000000	97.644615 
1341.000000	97.656464 
1340.000000	97.664933 
1339.000000	97.666579 
1338.000000	97.663851 
1337.000000	97.664258 
1336.000000	97.672118 
1335.000000	97.684104 
1334.000000	97.694484 
1333.000000	97.701885 
1332.000000	97.708377 
1331.000000	97.714761 
1330.000000	97.719689 
1329.000000	97.722682 
1328.000000	97.725272 
1327.000000	97.729165 
1326.000000	97.734160 
1325.000000	97.738253 
1324.000000	97.741147 
1323.000000	97.744315 
1322.000000	97.748744 
1321.000000	97.753890 
1320.000000	97.758565 
1319.000000	97.761845 
1318.000000	97.764090 
1317.000000	97.767245 
1316.000000	97.772242 
1315.000000	97.776222 
1314.000000	97.774807 
1313.000000	97.768191 
1312.000000	97.761830 
1311.000000	97.759766 
1310.000000	97.760528 
1309.000000	97.761619 
1308.000000	97.763861 
1307.000000	97.768962 
1306.000000	97.775342 
1305.000000	97.779360 
1304.000000	97.780391 
1303.000000	97.779937 
1302.000000	97.777960 
1301.000000	97.773608 
1300.000000	97.769167 
1299.000000	97.768884 
1298.000000	97.773280 
1297.000000	97.777446 
1296.000000	97.776407 
1295.000000	97.770697 
1294.000000	97.765074 
1293.000000	97.764118 
1292.000000	97.768630 
1291.000000	97.774925 
1290.000000	97.778055 
1289.000000	97.776449 
1288.000000	97.772994 
1287.000000	97.771013 
1286.000000	97.770243 
1285.000000	97.768191 
1284.000000	97.764475 
1283.000000	97.761642 
1282.000000	97.761896 
1281.000000	97.764561 
1280.000000	97.767263 
1279.000000	97.768668 
1278.000000	97.769464 
1277.000000	97.771241 
1276.000000	97.774448 
1275.000000	97.777490 
1274.000000	97.777947 
1273.000000	97.775228 
1272.000000	97.771494 
1271.000000	97.769070 
1270.000000	97.767505 
1269.000000	97.764523 
1268.000000	97.759512 
1267.000000	97.754153 
1266.000000	97.749965 
1265.000000	97.747832 
1264.000000	97.749475 
1263.000000	97.756360 
1262.000000	97.766563 
1261.000000	97.774736 
1260.000000	97.776169 
1259.000000	97.770289 
1258.000000	97.760645 
1257.000000	97.752735 
1256.000000	97.748686 
1255.000000	97.740844 
1254.000000	97.714598 
1253.000000	97.665269 
1252.000000	97.611916 
1251.000000	97.585839 
1250.000000	97.600914 
1249.000000	97.640551 
1248.000000	97.676475 
1247.000000	97.694482 
1246.000000	97.697050 
1245.000000	97.689299 
1244.000000	97.673188 
1243.000000	97.653898 
1242.000000	97.641331 
1241.000000	97.640820 
1240.000000	97.646935 
1239.000000	97.649486 
1238.000000	97.643238 
1237.000000	97.630262 
1236.000000	97.615446 
1235.000000	97.601745 
1234.000000	97.588216 
1233.000000	97.571138 
1232.000000	97.547826 
1231.000000	97.519810 
1230.000000	97.491626 
1229.000000	97.466473 
1228.000000	97.443627 
1227.000000	97.419321 
1226.000000	97.388790 
1225.000000	97.348441 
1224.000000	97.298685 
1223.000000	97.244707 
1222.000000	97.191608 
1221.000000	97.137696 
1220.000000	97.075289 
1219.000000	96.999897 
1218.000000	96.916661 
1217.000000	96.835743 
1216.000000	96.761921 
1215.000000	96.690487 
1214.000000	96.613318 
1213.000000	96.527607 
1212.000000	96.437854 
1211.000000	96.349770 
1210.000000	96.263693 
1209.000000	96.174724 
1208.000000	96.078464 
1207.000000	95.975339 
1206.000000	95.869254 
1205.000000	95.763752 
1204.000000	95.660518 
1203.000000	95.560035 
1202.000000	95.462394 
1201.000000	95.367690 
1200.000000	95.275831 
1199.000000	95.185569 
1198.000000	95.094054 
1197.000000	94.998751 
1196.000000	94.899873 
1195.000000	94.800242 
1194.000000	94.702917 
1193.000000	94.608935 
1192.000000	94.516303 
1191.000000	94.420528 
1190.000000	94.317926 
1189.000000	94.209696 
1188.000000	94.100819 
1187.000000	93.993533 
1186.000000	93.884482 
1185.000000	93.770347 
1184.000000	93.652893 
1183.000000	93.535252 
1182.000000	93.416715 
1181.000000	93.295286 
1180.000000	93.171862 
1179.000000	93.046373 
1178.000000	92.912677 
1177.000000	92.764320 
1176.000000	92.604153 
1175.000000	92.441798 
1174.000000	92.282322 
1173.000000	92.123567 
1172.000000	91.963544 
1171.000000	91.802551 
1170.000000	91.638507 
1169.000000	91.469358 
1168.000000	91.301598 
1167.000000	91.148270 
1166.000000	91.017379 
1165.000000	90.911167 
1164.000000	90.838036 
1163.000000	90.813823 
1162.000000	90.845481 
1161.000000	90.919631 
1160.000000	91.010020 
1159.000000	91.090500 
1158.000000	91.140019 
1157.000000	91.144715 
1156.000000	91.101852 
1155.000000	91.019226 
1154.000000	90.908653 
1153.000000	90.782082 
1152.000000	90.651771 
1151.000000	90.526062 
1150.000000	90.403481 
1149.000000	90.278408 
1148.000000	90.153311 
1147.000000	90.036207 
1146.000000	89.924838 
1145.000000	89.805231 
1144.000000	89.670925 
1143.000000	89.533050 
1142.000000	89.404534 
1141.000000	89.283279 
1140.000000	89.158907 
1139.000000	89.028427 
1138.000000	88.897058 
1137.000000	88.769503 
1136.000000	88.647729 
1135.000000	88.531886 
1134.000000	88.416337 
1133.000000	88.290011 
1132.000000	88.147886 
1131.000000	87.998105 
1130.000000	87.851454 
1129.000000	87.708041 
1128.000000	87.561386 
1127.000000	87.411931 
1126.000000	87.268745 
1125.000000	87.139093 
1124.000000	87.022252 
1123.000000	86.912794 
1122.000000	86.805065 
1121.000000	86.694395 
1120.000000	86.577194 
1119.000000	86.451406 
1118.000000	86.317665 
1117.000000	86.180890 
1116.000000	86.048581 
1115.000000	85.924252 
1114.000000	85.804250 
1113.000000	85.684653 
1112.000000	85.567822 
1111.000000	85.456486 
1110.000000	85.345710 
1109.000000	85.228762 
1108.000000	85.107307 
1107.000000	84.986872 
1106.000000	84.866614 
1105.000000	84.743411 
1104.000000	84.621826 
1103.000000	84.508167 
1102.000000	84.397131 
1101.000000	84.278491 
1100.000000	84.155402 
1099.000000	84.041538 
1098.000000	83.942758 
1097.000000	83.851507 
1096.000000	83.760842 
1095.000000	83.670771 
1094.000000	83.580967 
1093.000000	83.489560 
1092.000000	83.399727 
1091.000000	83.316052 
1090.000000	83.235304 
1089.000000	83.152486 
1088.000000	83.073327 
1087.000000	83.007085 
1086.000000	82.949696 
1085.000000	82.889194 
1084.000000	82.825571 
1083.000000	82.769102 
1082.000000	82.721075 
1081.000000	82.673717 
1080.000000	82.628101 
1079.000000	82.593215 
1078.000000	82.566259 
1077.000000	82.532614 
1076.000000	82.487721 
1075.000000	82.441299 
1074.000000	82.397419 
1073.000000	82.347120 
1072.000000	82.282069 
1071.000000	82.197566 
1070.000000	82.080977 
1069.000000	81.917737 
1068.000000	81.714411 
1067.000000	81.499755 
1066.000000	81.296741 
1065.000000	81.107093 
1064.000000	80.925866 
1063.000000	80.751105 
1062.000000	80.573401 
1061.000000	80.376792 
1060.000000	80.160868 
1059.000000	79.947362 
1058.000000	79.755803 
1057.000000	79.584983 
1056.000000	79.423866 
1055.000000	79.265809 
1054.000000	79.106135 
1053.000000	78.940976 
1052.000000	78.776076 
1051.000000	78.623089 
1050.000000	78.480852 
1049.000000	78.334764 
1048.000000	78.178239 
1047.000000	78.017898 
1046.000000	77.856230 
1045.000000	77.688065 
1044.000000	77.515705 
1043.000000	77.348757 
1042.000000	77.186047 
1041.000000	77.015332 
1040.000000	76.834617 
1039.000000	76.657678 
1038.000000	76.495343 
1037.000000	76.347260 
1036.000000	76.214157 
1035.000000	76.100883 
1034.000000	76.004268 
1033.000000	75.913986 
1032.000000	75.827226 
1031.000000	75.747371 
1030.000000	75.670340 
1029.000000	75.591201 
1028.000000	75.522203 
1027.000000	75.482093 
1026.000000	75.466878 
1025.000000	75.452323 
1024.000000	75.426658 
1023.000000	75.399491 
1022.000000	75.377752 
1021.000000	75.355777 
1020.000000	75.331135 
1019.000000	75.308277 
1018.000000	75.284080 
1017.000000	75.250616 
1016.000000	75.213502 
1015.000000	75.186723 
1014.000000	75.169791 
1013.000000	75.152142 
1012.000000	75.137690 
1011.000000	75.138838 
1010.000000	75.147499 
1009.000000	75.141939 
1008.000000	75.125772 
1007.000000	75.130664 
1006.000000	75.174825 
1005.000000	75.246743 
1004.000000	75.333349 
1003.000000	75.431421 
1002.000000	75.521833 
1001.000000	75.568007 
1000.000000	75.560678 
999.000000	 75.539213 
998.000000	 75.547837 
997.000000	 75.589970 
996.000000	 75.642508 
995.000000	 75.695551 
994.000000	 75.757879 
993.000000	 75.836321 
992.000000	 75.928877 
991.000000	 76.031124 
990.000000	 76.136804 
989.000000	 76.238514 
988.000000	 76.336008 
987.000000	 76.436973 
986.000000	 76.545881 
985.000000	 76.662003 
984.000000	 76.790030 
983.000000	 76.938539 
982.000000	 77.104344 
981.000000	 77.272728 
980.000000	 77.437676 
979.000000	 77.607924 
978.000000	 77.789162 
977.000000	 77.975825 
976.000000	 78.165315 
975.000000	 78.364857 
974.000000	 78.577535 
973.000000	 78.794948 
972.000000	 79.010027 
971.000000	 79.225581 
970.000000	 79.445311 
969.000000	 79.667614 
968.000000	 79.892076 
967.000000	 80.121076 
966.000000	 80.352123 
965.000000	 80.579595 
964.000000	 80.805692 
963.000000	 81.037976 
962.000000	 81.275016 
961.000000	 81.506807 
960.000000	 81.730262 
959.000000	 81.950993 
958.000000	 82.168588 
957.000000	 82.374166 
956.000000	 82.565168 
955.000000	 82.750178 
954.000000	 82.937011 
953.000000	 83.126227 
952.000000	 83.317016 
951.000000	 83.507926 
950.000000	 83.691546 
949.000000	 83.860906 
948.000000	 84.020839 
947.000000	 84.180581 
946.000000	 84.336218 
945.000000	 84.475002 
944.000000	 84.596782 
943.000000	 84.716033 
942.000000	 84.841335 
941.000000	 84.967853 
940.000000	 85.092695 
939.000000	 85.221854 
938.000000	 85.357340 
937.000000	 85.491393 
936.000000	 85.618949 
935.000000	 85.744331 
934.000000	 85.871520 
933.000000	 85.998631 
932.000000	 86.125275 
931.000000	 86.254594 
930.000000	 86.385203 
929.000000	 86.511678 
928.000000	 86.635286 
927.000000	 86.763373 
926.000000	 86.895838 
925.000000	 87.022493 
924.000000	 87.135802 
923.000000	 87.236825 
922.000000	 87.328736 
921.000000	 87.415744 
920.000000	 87.508459 
919.000000	 87.616788 
918.000000	 87.734527 
917.000000	 87.842641 
916.000000	 87.931720 
915.000000	 88.012003 
914.000000	 88.099281 
913.000000	 88.200742 
912.000000	 88.316515 
911.000000	 88.444251 
910.000000	 88.578968 
909.000000	 88.717516 
908.000000	 88.864831 
907.000000	 89.027465 
906.000000	 89.201671 
905.000000	 89.377817 
904.000000	 89.555260 
903.000000	 89.741265 
902.000000	 89.936039 
901.000000	 90.131416 
900.000000	 90.324573 
899.000000	 90.520386 
898.000000	 90.718782 
897.000000	 90.911295 
896.000000	 91.092313 
895.000000	 91.263386 
894.000000	 91.425542 
893.000000	 91.577853 
892.000000	 91.724590 
891.000000	 91.872612 
890.000000	 92.018488 
889.000000	 92.146464 
888.000000	 92.241076 
887.000000	 92.296156 
886.000000	 92.315038 
885.000000	 92.311569 
884.000000	 92.307395 
883.000000	 92.314603 
882.000000	 92.321160 
881.000000	 92.307553 
880.000000	 92.279401 
879.000000	 92.269301 
878.000000	 92.303468 
877.000000	 92.380931 
876.000000	 92.487704 
875.000000	 92.615499 
874.000000	 92.762487 
873.000000	 92.931207 
872.000000	 93.131062 
871.000000	 93.368519 
870.000000	 93.629580 
869.000000	 93.885139 
868.000000	 94.118638 
867.000000	 94.336676 
866.000000	 94.549656 
865.000000	 94.755406 
864.000000	 94.947228 
863.000000	 95.126129 
862.000000	 95.297326 
861.000000	 95.462918 
860.000000	 95.624793 
859.000000	 95.787683 
858.000000	 95.952447 
857.000000	 96.111211 
856.000000	 96.254621 
855.000000	 96.380539 
854.000000	 96.492478 
853.000000	 96.593063 
852.000000	 96.682183 
851.000000	 96.759641 
850.000000	 96.828569 
849.000000	 96.897364 
848.000000	 96.975327 
847.000000	 97.062377 
846.000000	 97.146946 
845.000000	 97.220270 
844.000000	 97.288088 
843.000000	 97.359681 
842.000000	 97.430010 
841.000000	 97.484320 
840.000000	 97.517786 
839.000000	 97.537657 
838.000000	 97.547079 
837.000000	 97.541588 
836.000000	 97.524824 
835.000000	 97.513825 
834.000000	 97.520947 
833.000000	 97.539518 
832.000000	 97.554231 
831.000000	 97.558681 
830.000000	 97.557872 
829.000000	 97.561490 
828.000000	 97.580740 
827.000000	 97.623730 
826.000000	 97.685453 
825.000000	 97.747469 
824.000000	 97.793667 
823.000000	 97.821113 
822.000000	 97.832409 
821.000000	 97.826849 
820.000000	 97.804959 
819.000000	 97.772916 
818.000000	 97.734223 
817.000000	 97.680545 
816.000000	 97.596315 
815.000000	 97.471095 
814.000000	 97.304128 
813.000000	 97.097125 
812.000000	 96.844038 
811.000000	 96.527846 
810.000000	 96.128414 
809.000000	 95.636135 
808.000000	 95.058169 
807.000000	 94.410647 
806.000000	 93.708717 
805.000000	 92.969927 
804.000000	 92.224222 
803.000000	 91.509024 
802.000000	 90.852043 
801.000000	 90.269726 
800.000000	 89.782892 
799.000000	 89.416972 
798.000000	 89.180679 
797.000000	 89.058334 
796.000000	 89.027499 
795.000000	 89.069988 
794.000000	 89.164017 
793.000000	 89.283556 
792.000000	 89.410802 
791.000000	 89.535967 
790.000000	 89.643253 
789.000000	 89.711547 
788.000000	 89.729603 
787.000000	 89.695281 
786.000000	 89.599800 
785.000000	 89.430225 
784.000000	 89.191409 
783.000000	 88.910411 
782.000000	 88.616046 
781.000000	 88.329968 
780.000000	 88.080044 
779.000000	 87.901352 
778.000000	 87.813936 
777.000000	 87.814320 
776.000000	 87.894787 
775.000000	 88.053892 
774.000000	 88.281297 
773.000000	 88.549662 
772.000000	 88.830378 
771.000000	 89.105557 
770.000000	 89.362585 
769.000000	 89.593541 
768.000000	 89.804350 
767.000000	 90.008150 
766.000000	 90.203372 
765.000000	 90.372924 
764.000000	 90.511287 
763.000000	 90.638452 
762.000000	 90.779639 
761.000000	 90.942357 
760.000000	 91.118867 
759.000000	 91.299064 
758.000000	 91.474407 
757.000000	 91.640052 
756.000000	 91.800709 
755.000000	 91.967920 
754.000000	 92.147172 
753.000000	 92.332098 
752.000000	 92.510628 
751.000000	 92.670323 
750.000000	 92.802258 
749.000000	 92.910629 
748.000000	 93.015331 
747.000000	 93.132525 
746.000000	 93.255279 
745.000000	 93.367092 
744.000000	 93.470623 
743.000000	 93.585692 
742.000000	 93.720685 
741.000000	 93.864918 
740.000000	 94.010038 
739.000000	 94.159252 
738.000000	 94.311187 
737.000000	 94.452766 
736.000000	 94.574913 
735.000000	 94.681206 
734.000000	 94.776597 
733.000000	 94.861128 
732.000000	 94.937774 
731.000000	 95.012406 
730.000000	 95.082555 
729.000000	 95.139402 
728.000000	 95.183380 
727.000000	 95.225843 
726.000000	 95.275018 
725.000000	 95.332693 
724.000000	 95.404039 
723.000000	 95.495110 
722.000000	 95.598138 
721.000000	 95.694002 
720.000000	 95.773502 
719.000000	 95.842827 
718.000000	 95.904606 
717.000000	 95.950660 
716.000000	 95.979621 
715.000000	 96.006081 
714.000000	 96.045377 
713.000000	 96.101774 
712.000000	 96.176508 
711.000000	 96.272672 
710.000000	 96.384398 
709.000000	 96.494166 
708.000000	 96.587638 
707.000000	 96.660407 
706.000000	 96.707252 
705.000000	 96.717222 
704.000000	 96.683698 
703.000000	 96.607131 
702.000000	 96.480175 
701.000000	 96.282170 
700.000000	 95.997774 
699.000000	 95.633437 
698.000000	 95.215813 
697.000000	 94.788983 
696.000000	 94.417199 
695.000000	 94.171650 
694.000000	 94.095349 
693.000000	 94.180903 
692.000000	 94.381837 
691.000000	 94.636810 
690.000000	 94.891439 
689.000000	 95.117511 
688.000000	 95.320201 
687.000000	 95.518182 
686.000000	 95.711967 
685.000000	 95.883737 
684.000000	 96.025805 
683.000000	 96.148506 
682.000000	 96.259907 
681.000000	 96.358331 
680.000000	 96.448386 
679.000000	 96.544539 
678.000000	 96.651252 
677.000000	 96.758236 
676.000000	 96.859204 
675.000000	 96.956925 
674.000000	 97.048610 
673.000000	 97.123121 
672.000000	 97.175163 
671.000000	 97.205398 
670.000000	 97.213595 
669.000000	 97.201428 
668.000000	 97.206852 
667.000000	 97.297395 
666.000000	 97.431336 
665.000000	 97.515497 
664.000000	 97.545240 
663.000000	 97.561916 
662.000000	 97.602777 
661.000000	 97.666002 
660.000000	 97.730975 
659.000000	 97.791474 
658.000000	 97.850950 
657.000000	 97.903055 
656.000000	 97.930909 
655.000000	 97.917837 
654.000000	 97.857888 
653.000000	 97.766114 
652.000000	 97.681980 
651.000000	 97.651368 
650.000000	 97.686890 

