4000.000000	98.216636 
3999.000000	98.216179 
3998.000000	98.214983 
3997.000000	98.213494 
3996.000000	98.211972 
3995.000000	98.210870 
3994.000000	98.210803 
3993.000000	98.211792 
3992.000000	98.212748 
3991.000000	98.212300 
3990.000000	98.210235 
3989.000000	98.207698 
3988.000000	98.205809 
3987.000000	98.204621 
3986.000000	98.203836 
3985.000000	98.203781 
3984.000000	98.204939 
3983.000000	98.206786 
3982.000000	98.207996 
3981.000000	98.207965 
3980.000000	98.207450 
3979.000000	98.207515 
3978.000000	98.208431 
3977.000000	98.209790 
3976.000000	98.211186 
3975.000000	98.212324 
3974.000000	98.212748 
3973.000000	98.211908 
3972.000000	98.209555 
3971.000000	98.206202 
3970.000000	98.203218 
3969.000000	98.202258 
3968.000000	98.204078 
3967.000000	98.207728 
3966.000000	98.211287 
3965.000000	98.213389 
3964.000000	98.213654 
3963.000000	98.212201 
3962.000000	98.209476 
3961.000000	98.206537 
3960.000000	98.204578 
3959.000000	98.203905 
3958.000000	98.203759 
3957.000000	98.203441 
3956.000000	98.202926 
3955.000000	98.202179 
3954.000000	98.200839 
3953.000000	98.198540 
3952.000000	98.195469 
3951.000000	98.192302 
3950.000000	98.189711 
3949.000000	98.188016 
3948.000000	98.186914 
3947.000000	98.186023 
3946.000000	98.185595 
3945.000000	98.186088 
3944.000000	98.187003 
3943.000000	98.186899 
3942.000000	98.185343 
3941.000000	98.183715 
3940.000000	98.183561 
3939.000000	98.184907 
3938.000000	98.186360 
3937.000000	98.186812 
3936.000000	98.186378 
3935.000000	98.185481 
3934.000000	98.184399 
3933.000000	98.183429 
3932.000000	98.183066 
3931.000000	98.183253 
3930.000000	98.183469 
3929.000000	98.184086 
3928.000000	98.186130 
3927.000000	98.189475 
3926.000000	98.191827 
3925.000000	98.190911 
3924.000000	98.187391 
3923.000000	98.183847 
3922.000000	98.181413 
3921.000000	98.179534 
3920.000000	98.178038 
3919.000000	98.177706 
3918.000000	98.178457 
3917.000000	98.178982 
3916.000000	98.178706 
3915.000000	98.178573 
3914.000000	98.179313 
3913.000000	98.180451 
3912.000000	98.181159 
3911.000000	98.181367 
3910.000000	98.181056 
3909.000000	98.180006 
3908.000000	98.178432 
3907.000000	98.176872 
3906.000000	98.175423 
3905.000000	98.172853 
3904.000000	98.168241 
3903.000000	98.162988 
3902.000000	98.159759 
3901.000000	98.159670 
3900.000000	98.161530 
3899.000000	98.163497 
3898.000000	98.165049 
3897.000000	98.166305 
3896.000000	98.166961 
3895.000000	98.167078 
3894.000000	98.167283 
3893.000000	98.168001 
3892.000000	98.168290 
3891.000000	98.166917 
3890.000000	98.164374 
3889.000000	98.162358 
3888.000000	98.161831 
3887.000000	98.162136 
3886.000000	98.162238 
3885.000000	98.162116 
3884.000000	98.162102 
3883.000000	98.161688 
3882.000000	98.160288 
3881.000000	98.158376 
3880.000000	98.157125 
3879.000000	98.156835 
3878.000000	98.156870 
3877.000000	98.156776 
3876.000000	98.156595 
3875.000000	98.156169 
3874.000000	98.155204 
3873.000000	98.153908 
3872.000000	98.152752 
3871.000000	98.151592 
3870.000000	98.150083 
3869.000000	98.148856 
3868.000000	98.148606 
3867.000000	98.148940 
3866.000000	98.148865 
3865.000000	98.148255 
3864.000000	98.147972 
3863.000000	98.148282 
3862.000000	98.148404 
3861.000000	98.148143 
3860.000000	98.148086 
3859.000000	98.148439 
3858.000000	98.148737 
3857.000000	98.148595 
3856.000000	98.148267 
3855.000000	98.148040 
3854.000000	98.147475 
3853.000000	98.146500 
3852.000000	98.145925 
3851.000000	98.146188 
3850.000000	98.146876 
3849.000000	98.147518 
3848.000000	98.148118 
3847.000000	98.148914 
3846.000000	98.149731 
3845.000000	98.150202 
3844.000000	98.150219 
3843.000000	98.149867 
3842.000000	98.149388 
3841.000000	98.149207 
3840.000000	98.149409 
3839.000000	98.149726 
3838.000000	98.149867 
3837.000000	98.149733 
3836.000000	98.149572 
3835.000000	98.149655 
3834.000000	98.149990 
3833.000000	98.150427 
3832.000000	98.150892 
3831.000000	98.151499 
3830.000000	98.152282 
3829.000000	98.153114 
3828.000000	98.153877 
3827.000000	98.154554 
3826.000000	98.155157 
3825.000000	98.155708 
3824.000000	98.156198 
3823.000000	98.156620 
3822.000000	98.156999 
3821.000000	98.157389 
3820.000000	98.157819 
3819.000000	98.158269 
3818.000000	98.158717 
3817.000000	98.159170 
3816.000000	98.159642 
3815.000000	98.160136 
3814.000000	98.160637 
3813.000000	98.161119 
3812.000000	98.161569 
3811.000000	98.161988 
3810.000000	98.162377 
3809.000000	98.162724 
3808.000000	98.163015 
3807.000000	98.163253 
3806.000000	98.163463 
3805.000000	98.163669 
3804.000000	98.163881 
3803.000000	98.164100 
3802.000000	98.164325 
3801.000000	98.164569 
3800.000000	98.164854 
3799.000000	98.165166 
3798.000000	98.165440 
3797.000000	98.165661 
3796.000000	98.165923 
3795.000000	98.166303 
3794.000000	98.166731 
3793.000000	98.167028 
3792.000000	98.167137 
3791.000000	98.167269 
3790.000000	98.167619 
3789.000000	98.167929 
3788.000000	98.167742 
3787.000000	98.167148 
3786.000000	98.166833 
3785.000000	98.166978 
3784.000000	98.166841 
3783.000000	98.165946 
3782.000000	98.164693 
3781.000000	98.163661 
3780.000000	98.162951 
3779.000000	98.162622 
3778.000000	98.162969 
3777.000000	98.164021 
3776.000000	98.164868 
3775.000000	98.164299 
3774.000000	98.162244 
3773.000000	98.160091 
3772.000000	98.159098 
3771.000000	98.158732 
3770.000000	98.157600 
3769.000000	98.155592 
3768.000000	98.153695 
3767.000000	98.152524 
3766.000000	98.151941 
3765.000000	98.151555 
3764.000000	98.151501 
3763.000000	98.151862 
3762.000000	98.151719 
3761.000000	98.150320 
3760.000000	98.148485 
3759.000000	98.147718 
3758.000000	98.146792 
3757.000000	98.143411 
3756.000000	98.138187 
3755.000000	98.133183 
3754.000000	98.128618 
3753.000000	98.123101 
3752.000000	98.117736 
3751.000000	98.115580 
3750.000000	98.115194 
3749.000000	98.112221 
3748.000000	98.107413 
3747.000000	98.105361 
3746.000000	98.107540 
3745.000000	98.110241 
3744.000000	98.112961 
3743.000000	98.117665 
3742.000000	98.120932 
3741.000000	98.118190 
3740.000000	98.110841 
3739.000000	98.106170 
3738.000000	98.108375 
3737.000000	98.111950 
3736.000000	98.109605 
3735.000000	98.103099 
3734.000000	98.099621 
3733.000000	98.100143 
3732.000000	98.100585 
3731.000000	98.099956 
3730.000000	98.100194 
3729.000000	98.101545 
3728.000000	98.101802 
3727.000000	98.099386 
3726.000000	98.096467 
3725.000000	98.096145 
3724.000000	98.097959 
3723.000000	98.099080 
3722.000000	98.098369 
3721.000000	98.097050 
3720.000000	98.095690 
3719.000000	98.094387 
3718.000000	98.092468 
3717.000000	98.088919 
3716.000000	98.084408 
3715.000000	98.079468 
3714.000000	98.073494 
3713.000000	98.066521 
3712.000000	98.060207 
3711.000000	98.056660 
3710.000000	98.055342 
3709.000000	98.053565 
3708.000000	98.048635 
3707.000000	98.039323 
3706.000000	98.027866 
3705.000000	98.018524 
3704.000000	98.013616 
3703.000000	98.011218 
3702.000000	98.006676 
3701.000000	97.997574 
3700.000000	97.985937 
3699.000000	97.975229 
3698.000000	97.966182 
3697.000000	97.956827 
3696.000000	97.947399 
3695.000000	97.940493 
3694.000000	97.935851 
3693.000000	97.930362 
3692.000000	97.922451 
3691.000000	97.914152 
3690.000000	97.907476 
3689.000000	97.902620 
3688.000000	97.899080 
3687.000000	97.896095 
3686.000000	97.893149 
3685.000000	97.889486 
3684.000000	97.884935 
3683.000000	97.881121 
3682.000000	97.879239 
3681.000000	97.876358 
3680.000000	97.868571 
3679.000000	97.856309 
3678.000000	97.843852 
3677.000000	97.831870 
3676.000000	97.816823 
3675.000000	97.801466 
3674.000000	97.791385 
3673.000000	97.785638 
3672.000000	97.778982 
3671.000000	97.770016 
3670.000000	97.763397 
3669.000000	97.763018 
3668.000000	97.764884 
3667.000000	97.762581 
3666.000000	97.756156 
3665.000000	97.750020 
3664.000000	97.746612 
3663.000000	97.744500 
3662.000000	97.740298 
3661.000000	97.732170 
3660.000000	97.722363 
3659.000000	97.714577 
3658.000000	97.710425 
3657.000000	97.706959 
3656.000000	97.700991 
3655.000000	97.693911 
3654.000000	97.687841 
3653.000000	97.681308 
3652.000000	97.670130 
3651.000000	97.653251 
3650.000000	97.636662 
3649.000000	97.626865 
3648.000000	97.622590 
3647.000000	97.620045 
3646.000000	97.620663 
3645.000000	97.627435 
3644.000000	97.638678 
3643.000000	97.648812 
3642.000000	97.653438 
3641.000000	97.653276 
3640.000000	97.651998 
3639.000000	97.650283 
3638.000000	97.646139 
3637.000000	97.639354 
3636.000000	97.632813 
3635.000000	97.627949 
3634.000000	97.622386 
3633.000000	97.613852 
3632.000000	97.603176 
3631.000000	97.592715 
3630.000000	97.583401 
3629.000000	97.576176 
3628.000000	97.572802 
3627.000000	97.572577 
3626.000000	97.573034 
3625.000000	97.574561 
3624.000000	97.579242 
3623.000000	97.586933 
3622.000000	97.594208 
3621.000000	97.596867 
3620.000000	97.593818 
3619.000000	97.588048 
3618.000000	97.582987 
3617.000000	97.581136 
3616.000000	97.585874 
3615.000000	97.598709 
3614.000000	97.616045 
3613.000000	97.631727 
3612.000000	97.641963 
3611.000000	97.646396 
3610.000000	97.646887 
3609.000000	97.646309 
3608.000000	97.647070 
3607.000000	97.649968 
3606.000000	97.653993 
3605.000000	97.658787 
3604.000000	97.666042 
3603.000000	97.677078 
3602.000000	97.690239 
3601.000000	97.700807 
3600.000000	97.705381 
3599.000000	97.704976 
3598.000000	97.703909 
3597.000000	97.706029 
3596.000000	97.712565 
3595.000000	97.720241 
3594.000000	97.724745 
3593.000000	97.725612 
3592.000000	97.725285 
3591.000000	97.725395 
3590.000000	97.725514 
3589.000000	97.724741 
3588.000000	97.723893 
3587.000000	97.724847 
3586.000000	97.727694 
3585.000000	97.731079 
3584.000000	97.735618 
3583.000000	97.743200 
3582.000000	97.754046 
3581.000000	97.764895 
3580.000000	97.771859 
3579.000000	97.773996 
3578.000000	97.773350 
3577.000000	97.772350 
3576.000000	97.771729 
3575.000000	97.771330 
3574.000000	97.770843 
3573.000000	97.770006 
3572.000000	97.767780 
3571.000000	97.763036 
3570.000000	97.755867 
3569.000000	97.747799 
3568.000000	97.740838 
3567.000000	97.736574 
3566.000000	97.735132 
3565.000000	97.735576 
3564.000000	97.737384 
3563.000000	97.740679 
3562.000000	97.744994 
3561.000000	97.749300 
3560.000000	97.752905 
3559.000000	97.755947 
3558.000000	97.758628 
3557.000000	97.760748 
3556.000000	97.762264 
3555.000000	97.764023 
3554.000000	97.767038 
3553.000000	97.770855 
3552.000000	97.773449 
3551.000000	97.772808 
3550.000000	97.768983 
3549.000000	97.764598 
3548.000000	97.762976 
3547.000000	97.764898 
3546.000000	97.767591 
3545.000000	97.767923 
3544.000000	97.766373 
3543.000000	97.766085 
3542.000000	97.768556 
3541.000000	97.772307 
3540.000000	97.775483 
3539.000000	97.777870 
3538.000000	97.779934 
3537.000000	97.781153 
3536.000000	97.780725 
3535.000000	97.778737 
3534.000000	97.776139 
3533.000000	97.773779 
3532.000000	97.772119 
3531.000000	97.771459 
3530.000000	97.771549 
3529.000000	97.771242 
3528.000000	97.769217 
3527.000000	97.765280 
3526.000000	97.760723 
3525.000000	97.757414 
3524.000000	97.756475 
3523.000000	97.757638 
3522.000000	97.759573 
3521.000000	97.761004 
3520.000000	97.761751 
3519.000000	97.762305 
3518.000000	97.762802 
3517.000000	97.762657 
3516.000000	97.761422 
3515.000000	97.759589 
3514.000000	97.758358 
3513.000000	97.758451 
3512.000000	97.759332 
3511.000000	97.759696 
3510.000000	97.758814 
3509.000000	97.757168 
3508.000000	97.755811 
3507.000000	97.755260 
3506.000000	97.755173 
3505.000000	97.754883 
3504.000000	97.754062 
3503.000000	97.752828 
3502.000000	97.751458 
3501.000000	97.750224 
3500.000000	97.749390 
3499.000000	97.749024 
3498.000000	97.748784 
3497.000000	97.748121 
3496.000000	97.746814 
3495.000000	97.745155 
3494.000000	97.743621 
3493.000000	97.742433 
3492.000000	97.741493 
3491.000000	97.740641 
3490.000000	97.739853 
3489.000000	97.739097 
3488.000000	97.738065 
3487.000000	97.736364 
3486.000000	97.734043 
3485.000000	97.731815 
3484.000000	97.730382 
3483.000000	97.729644 
3482.000000	97.728853 
3481.000000	97.727629 
3480.000000	97.726463 
3479.000000	97.725873 
3478.000000	97.725481 
3477.000000	97.724335 
3476.000000	97.722100 
3475.000000	97.719551 
3474.000000	97.717725 
3473.000000	97.716844 
3472.000000	97.716354 
3471.000000	97.715755 
3470.000000	97.715131 
3469.000000	97.714869 
3468.000000	97.715023 
3467.000000	97.715153 
3466.000000	97.714866 
3465.000000	97.714261 
3464.000000	97.713679 
3463.000000	97.713059 
3462.000000	97.711792 
3461.000000	97.709344 
3460.000000	97.705867 
3459.000000	97.702090 
3458.000000	97.698683 
3457.000000	97.695721 
3456.000000	97.692918 
3455.000000	97.690251 
3454.000000	97.688320 
3453.000000	97.687818 
3452.000000	97.688826 
3451.000000	97.690738 
3450.000000	97.692589 
3449.000000	97.693396 
3448.000000	97.692413 
3447.000000	97.689568 
3446.000000	97.685586 
3445.000000	97.681484 
3444.000000	97.677917 
3443.000000	97.675158 
3442.000000	97.673405 
3441.000000	97.672614 
3440.000000	97.672101 
3439.000000	97.670848 
3438.000000	97.668506 
3437.000000	97.665830 
3436.000000	97.664010 
3435.000000	97.663613 
3434.000000	97.664369 
3433.000000	97.665567 
3432.000000	97.666655 
3431.000000	97.667527 
3430.000000	97.668233 
3429.000000	97.668623 
3428.000000	97.668204 
3427.000000	97.666546 
3426.000000	97.663864 
3425.000000	97.661081 
3424.000000	97.659050 
3423.000000	97.657672 
3422.000000	97.656154 
3421.000000	97.654146 
3420.000000	97.652219 
3419.000000	97.651006 
3418.000000	97.650346 
3417.000000	97.649730 
3416.000000	97.649129 
3415.000000	97.648767 
3414.000000	97.648233 
3413.000000	97.646570 
3412.000000	97.643452 
3411.000000	97.639820 
3410.000000	97.637083 
3409.000000	97.635866 
3408.000000	97.635721 
3407.000000	97.635699 
3406.000000	97.635064 
3405.000000	97.633686 
3404.000000	97.632010 
3403.000000	97.630587 
3402.000000	97.629621 
3401.000000	97.628981 
3400.000000	97.628536 
3399.000000	97.628265 
3398.000000	97.628031 
3397.000000	97.627574 
3396.000000	97.626869 
3395.000000	97.626300 
3394.000000	97.626283 
3393.000000	97.626736 
3392.000000	97.627014 
3391.000000	97.626516 
3390.000000	97.625374 
3389.000000	97.624437 
3388.000000	97.624450 
3387.000000	97.625321 
3386.000000	97.626295 
3385.000000	97.626694 
3384.000000	97.626276 
3383.000000	97.624970 
3382.000000	97.622879 
3381.000000	97.620765 
3380.000000	97.619833 
3379.000000	97.620484 
3378.000000	97.621641 
3377.000000	97.621981 
3376.000000	97.621695 
3375.000000	97.622137 
3374.000000	97.623757 
3373.000000	97.625246 
3372.000000	97.625055 
3371.000000	97.623307 
3370.000000	97.621725 
3369.000000	97.621711 
3368.000000	97.622907 
3367.000000	97.623776 
3366.000000	97.623427 
3365.000000	97.622563 
3364.000000	97.622455 
3363.000000	97.623250 
3362.000000	97.623770 
3361.000000	97.623116 
3360.000000	97.622050 
3359.000000	97.622342 
3358.000000	97.624893 
3357.000000	97.628818 
3356.000000	97.632313 
3355.000000	97.634402 
3354.000000	97.635880 
3353.000000	97.638508 
3352.000000	97.643058 
3351.000000	97.648102 
3350.000000	97.651217 
3349.000000	97.651477 
3348.000000	97.650382 
3347.000000	97.650209 
3346.000000	97.651727 
3345.000000	97.654070 
3344.000000	97.656105 
3343.000000	97.657070 
3342.000000	97.656495 
3341.000000	97.654520 
3340.000000	97.652026 
3339.000000	97.649870 
3338.000000	97.648073 
3337.000000	97.646258 
3336.000000	97.644670 
3335.000000	97.644058 
3334.000000	97.644555 
3333.000000	97.645269 
3332.000000	97.645226 
3331.000000	97.644422 
3330.000000	97.643759 
3329.000000	97.644129 
3328.000000	97.645614 
3327.000000	97.647442 
3326.000000	97.648698 
3325.000000	97.649158 
3324.000000	97.649421 
3323.000000	97.650104 
3322.000000	97.651155 
3321.000000	97.652209 
3320.000000	97.653330 
3319.000000	97.655021 
3318.000000	97.657421 
3317.000000	97.659791 
3316.000000	97.661150 
3315.000000	97.661460 
3314.000000	97.661935 
3313.000000	97.663816 
3312.000000	97.666898 
3311.000000	97.669719 
3310.000000	97.671432 
3309.000000	97.672887 
3308.000000	97.675172 
3307.000000	97.677470 
3306.000000	97.677654 
3305.000000	97.675146 
3304.000000	97.672082 
3303.000000	97.671269 
3302.000000	97.673192 
3301.000000	97.675896 
3300.000000	97.677273 
3299.000000	97.676836 
3298.000000	97.675289 
3297.000000	97.673355 
3296.000000	97.671506 
3295.000000	97.670369 
3294.000000	97.670594 
3293.000000	97.672183 
3292.000000	97.674303 
3291.000000	97.675964 
3290.000000	97.676826 
3289.000000	97.677241 
3288.000000	97.677697 
3287.000000	97.678356 
3286.000000	97.678951 
3285.000000	97.678973 
3284.000000	97.678066 
3283.000000	97.676533 
3282.000000	97.675465 
3281.000000	97.675922 
3280.000000	97.677771 
3279.000000	97.679594 
3278.000000	97.680284 
3277.000000	97.680382 
3276.000000	97.681178 
3275.000000	97.682768 
3274.000000	97.683957 
3273.000000	97.684240 
3272.000000	97.684775 
3271.000000	97.686747 
3270.000000	97.689593 
3269.000000	97.691704 
3268.000000	97.692428 
3267.000000	97.692456 
3266.000000	97.692646 
3265.000000	97.693454 
3264.000000	97.695315 
3263.000000	97.698420 
3262.000000	97.701781 
3261.000000	97.703525 
3260.000000	97.702669 
3259.000000	97.700169 
3258.000000	97.697898 
3257.000000	97.696770 
3256.000000	97.696247 
3255.000000	97.695276 
3254.000000	97.693534 
3253.000000	97.691898 
3252.000000	97.691666 
3251.000000	97.693190 
3250.000000	97.695429 
3249.000000	97.697112 
3248.000000	97.697992 
3247.000000	97.698523 
3246.000000	97.698737 
3245.000000	97.698296 
3244.000000	97.697565 
3243.000000	97.697597 
3242.000000	97.698677 
3241.000000	97.699773 
3240.000000	97.700043 
3239.000000	97.700358 
3238.000000	97.702421 
3237.000000	97.706547 
3236.000000	97.711036 
3235.000000	97.713927 
3234.000000	97.714949 
3233.000000	97.715262 
3232.000000	97.715741 
3231.000000	97.716173 
3230.000000	97.716249 
3229.000000	97.716531 
3228.000000	97.717729 
3227.000000	97.719479 
3226.000000	97.720832 
3225.000000	97.721928 
3224.000000	97.724102 
3223.000000	97.727756 
3222.000000	97.731040 
3221.000000	97.731852 
3220.000000	97.730612 
3219.000000	97.730008 
3218.000000	97.731678 
3217.000000	97.734195 
3216.000000	97.735179 
3215.000000	97.734450 
3214.000000	97.734043 
3213.000000	97.735257 
3212.000000	97.736840 
3211.000000	97.736786 
3210.000000	97.734991 
3209.000000	97.733279 
3208.000000	97.732960 
3207.000000	97.733339 
3206.000000	97.733065 
3205.000000	97.732292 
3204.000000	97.732699 
3203.000000	97.735387 
3202.000000	97.739462 
3201.000000	97.742786 
3200.000000	97.744003 
3199.000000	97.743598 
3198.000000	97.743167 
3197.000000	97.743794 
3196.000000	97.745144 
3195.000000	97.746079 
3194.000000	97.746074 
3193.000000	97.745843 
3192.000000	97.746555 
3191.000000	97.748560 
3190.000000	97.751115 
3189.000000	97.753227 
3188.000000	97.754566 
3187.000000	97.755689 
3186.000000	97.757540 
3185.000000	97.760725 
3184.000000	97.765040 
3183.000000	97.769663 
3182.000000	97.773735 
3181.000000	97.776637 
3180.000000	97.778024 
3179.000000	97.778085 
3178.000000	97.777794 
3177.000000	97.778364 
3176.000000	97.780185 
3175.000000	97.782818 
3174.000000	97.786038 
3173.000000	97.790015 
3172.000000	97.794191 
3171.000000	97.796937 
3170.000000	97.797266 
3169.000000	97.796360 
3168.000000	97.796317 
3167.000000	97.797486 
3166.000000	97.798119 
3165.000000	97.796661 
3164.000000	97.793470 
3163.000000	97.790321 
3162.000000	97.788775 
3161.000000	97.789009 
3160.000000	97.789948 
3159.000000	97.790522 
3158.000000	97.790985 
3157.000000	97.792521 
3156.000000	97.795341 
3155.000000	97.797995 
3154.000000	97.799217 
3153.000000	97.799726 
3152.000000	97.801118 
3151.000000	97.803383 
3150.000000	97.804808 
3149.000000	97.804434 
3148.000000	97.803443 
3147.000000	97.803709 
3146.000000	97.805828 
3145.000000	97.809077 
3144.000000	97.812500 
3143.000000	97.815476 
3142.000000	97.817662 
3141.000000	97.819091 
3140.000000	97.820273 
3139.000000	97.821797 
3138.000000	97.823833 
3137.000000	97.826088 
3136.000000	97.828062 
3135.000000	97.829314 
3134.000000	97.829793 
3133.000000	97.830042 
3132.000000	97.830780 
3131.000000	97.832095 
3130.000000	97.833343 
3129.000000	97.834048 
3128.000000	97.834674 
3127.000000	97.836167 
3126.000000	97.838813 
3125.000000	97.841760 
3124.000000	97.843809 
3123.000000	97.844630 
3122.000000	97.844910 
3121.000000	97.845472 
3120.000000	97.846354 
3119.000000	97.847065 
3118.000000	97.847536 
3117.000000	97.848366 
3116.000000	97.849920 
3115.000000	97.851552 
3114.000000	97.852251 
3113.000000	97.852000 
3112.000000	97.852005 
3111.000000	97.853321 
3110.000000	97.855719 
3109.000000	97.858171 
3108.000000	97.860192 
3107.000000	97.862176 
3106.000000	97.864442 
3105.000000	97.866552 
3104.000000	97.867827 
3103.000000	97.868183 
3102.000000	97.868083 
3101.000000	97.867901 
3100.000000	97.867731 
3099.000000	97.867795 
3098.000000	97.868696 
3097.000000	97.871015 
3096.000000	97.874644 
3095.000000	97.878643 
3094.000000	97.881969 
3093.000000	97.884284 
3092.000000	97.885836 
3091.000000	97.886556 
3090.000000	97.885790 
3089.000000	97.883343 
3088.000000	97.880525 
3087.000000	97.879476 
3086.000000	97.881022 
3085.000000	97.883418 
3084.000000	97.883727 
3083.000000	97.880772 
3082.000000	97.876428 
3081.000000	97.873544 
3080.000000	97.872586 
3079.000000	97.871480 
3078.000000	97.869185 
3077.000000	97.867844 
3076.000000	97.869767 
3075.000000	97.873423 
3074.000000	97.874882 
3073.000000	97.873220 
3072.000000	97.871862 
3071.000000	97.873656 
3070.000000	97.877040 
3069.000000	97.878742 
3068.000000	97.878293 
3067.000000	97.877657 
3066.000000	97.877803 
3065.000000	97.878230 
3064.000000	97.879110 
3063.000000	97.881230 
3062.000000	97.883951 
3061.000000	97.885646 
3060.000000	97.886337 
3059.000000	97.887917 
3058.000000	97.891594 
3057.000000	97.896785 
3056.000000	97.902491 
3055.000000	97.907628 
3054.000000	97.910014 
3053.000000	97.907668 
3052.000000	97.902131 
3051.000000	97.898288 
3050.000000	97.899176 
3049.000000	97.902449 
3048.000000	97.903440 
3047.000000	97.900192 
3046.000000	97.893896 
3045.000000	97.886156 
3044.000000	97.878339 
3043.000000	97.872938 
3042.000000	97.872355 
3041.000000	97.875136 
3040.000000	97.875521 
3039.000000	97.868700 
3038.000000	97.855737 
3037.000000	97.841903 
3036.000000	97.830446 
3035.000000	97.819824 
3034.000000	97.807659 
3033.000000	97.795141 
3032.000000	97.785616 
3031.000000	97.779960 
3030.000000	97.775643 
3029.000000	97.770020 
3028.000000	97.762161 
3027.000000	97.751421 
3026.000000	97.736908 
3025.000000	97.719604 
3024.000000	97.703074 
3023.000000	97.690350 
3022.000000	97.681190 
3021.000000	97.673667 
3020.000000	97.666883 
3019.000000	97.660362 
3018.000000	97.652191 
3017.000000	97.640331 
3016.000000	97.625367 
3015.000000	97.609817 
3014.000000	97.595104 
3013.000000	97.581018 
3012.000000	97.567439 
3011.000000	97.554076 
3010.000000	97.538798 
3009.000000	97.519003 
3008.000000	97.495186 
3007.000000	97.471002 
3006.000000	97.448979 
3005.000000	97.427998 
3004.000000	97.405916 
3003.000000	97.382972 
3002.000000	97.361500 
3001.000000	97.343489 
3000.000000	97.329267 
2999.000000	97.317416 
2998.000000	97.305232 
2997.000000	97.290538 
2996.000000	97.273618 
2995.000000	97.256140 
2994.000000	97.237595 
2993.000000	97.214490 
2992.000000	97.184586 
2991.000000	97.151086 
2990.000000	97.121341 
2989.000000	97.101778 
2988.000000	97.094665 
2987.000000	97.098441 
2986.000000	97.109364 
2985.000000	97.123063 
2984.000000	97.136044 
2983.000000	97.146875 
2982.000000	97.156088 
2981.000000	97.164634 
2980.000000	97.171989 
2979.000000	97.175719 
2978.000000	97.173760 
2977.000000	97.167560 
2976.000000	97.161821 
2975.000000	97.159903 
2974.000000	97.160707 
2973.000000	97.162002 
2972.000000	97.165600 
2971.000000	97.175661 
2970.000000	97.191708 
2969.000000	97.207328 
2968.000000	97.217765 
2967.000000	97.225585 
2966.000000	97.235781 
2965.000000	97.248090 
2964.000000	97.258231 
2963.000000	97.265317 
2962.000000	97.273323 
2961.000000	97.284564 
2960.000000	97.296021 
2959.000000	97.304094 
2958.000000	97.310054 
2957.000000	97.317898 
2956.000000	97.328290 
2955.000000	97.337568 
2954.000000	97.342711 
2953.000000	97.345176 
2952.000000	97.349078 
2951.000000	97.356666 
2950.000000	97.366342 
2949.000000	97.374702 
2948.000000	97.379738 
2947.000000	97.381960 
2946.000000	97.383070 
2945.000000	97.384369 
2944.000000	97.386508 
2943.000000	97.389842 
2942.000000	97.393987 
2941.000000	97.397298 
2940.000000	97.398215 
2939.000000	97.397825 
2938.000000	97.399887 
2937.000000	97.407012 
2936.000000	97.417158 
2935.000000	97.425041 
2934.000000	97.427209 
2933.000000	97.424772 
2932.000000	97.421139 
2931.000000	97.418200 
2930.000000	97.415768 
2929.000000	97.414087 
2928.000000	97.414806 
2927.000000	97.418451 
2926.000000	97.422227 
2925.000000	97.422227 
2924.000000	97.417846 
2923.000000	97.412515 
2922.000000	97.409633 
2921.000000	97.409066 
2920.000000	97.408580 
2919.000000	97.407304 
2918.000000	97.405985 
2917.000000	97.404237 
2916.000000	97.399725 
2915.000000	97.391072 
2914.000000	97.380375 
2913.000000	97.371467 
2912.000000	97.366077 
2911.000000	97.362809 
2910.000000	97.359743 
2909.000000	97.356728 
2908.000000	97.354702 
2907.000000	97.353722 
2906.000000	97.352526 
2905.000000	97.349332 
2904.000000	97.342746 
2903.000000	97.332906 
2902.000000	97.324023 
2901.000000	97.323367 
2900.000000	97.336050 
2899.000000	97.359602 
2898.000000	97.384435 
2897.000000	97.401854 
2896.000000	97.410600 
2895.000000	97.414780 
2894.000000	97.417970 
2893.000000	97.421514 
2892.000000	97.426718 
2891.000000	97.434799 
2890.000000	97.444321 
2889.000000	97.451839 
2888.000000	97.456295 
2887.000000	97.460336 
2886.000000	97.465857 
2885.000000	97.470841 
2884.000000	97.473016 
2883.000000	97.474720 
2882.000000	97.480880 
2881.000000	97.492733 
2880.000000	97.506573 
2879.000000	97.518791 
2878.000000	97.529412 
2877.000000	97.539820 
2876.000000	97.549564 
2875.000000	97.557268 
2874.000000	97.563168 
2873.000000	97.568864 
2872.000000	97.575214 
2871.000000	97.581857 
2870.000000	97.588350 
2869.000000	97.594513 
2868.000000	97.600141 
2867.000000	97.605754 
2866.000000	97.613414 
2865.000000	97.625222 
2864.000000	97.640689 
2863.000000	97.656867 
2862.000000	97.671732 
2861.000000	97.686306 
2860.000000	97.702474 
2859.000000	97.719749 
2858.000000	97.735767 
2857.000000	97.749796 
2856.000000	97.764016 
2855.000000	97.780345 
2854.000000	97.797284 
2853.000000	97.811295 
2852.000000	97.820552 
2851.000000	97.826136 
2850.000000	97.830105 
2849.000000	97.833692 
2848.000000	97.837505 
2847.000000	97.842016 
2846.000000	97.846990 
2845.000000	97.851480 
2844.000000	97.855352 
2843.000000	97.860079 
2842.000000	97.866850 
2841.000000	97.874318 
2840.000000	97.879636 
2839.000000	97.881827 
2838.000000	97.882947 
2837.000000	97.885529 
2836.000000	97.889912 
2835.000000	97.894792 
2834.000000	97.899548 
2833.000000	97.905008 
2832.000000	97.911999 
2831.000000	97.919856 
2830.000000	97.926616 
2829.000000	97.930660 
2828.000000	97.932326 
2827.000000	97.934034 
2826.000000	97.938449 
2825.000000	97.945950 
2824.000000	97.953947 
2823.000000	97.959076 
2822.000000	97.960279 
2821.000000	97.959631 
2820.000000	97.960020 
2819.000000	97.962269 
2818.000000	97.965016 
2817.000000	97.967271 
2816.000000	97.970006 
2815.000000	97.974384 
2814.000000	97.979165 
2813.000000	97.981485 
2812.000000	97.980419 
2811.000000	97.978277 
2810.000000	97.977642 
2809.000000	97.978357 
2808.000000	97.978820 
2807.000000	97.979216 
2806.000000	97.981417 
2805.000000	97.985700 
2804.000000	97.989445 
2803.000000	97.990026 
2802.000000	97.987866 
2801.000000	97.985769 
2800.000000	97.985737 
2799.000000	97.987162 
2798.000000	97.987949 
2797.000000	97.986786 
2796.000000	97.984353 
2795.000000	97.982605 
2794.000000	97.982828 
2793.000000	97.984528 
2792.000000	97.986469 
2791.000000	97.988405 
2790.000000	97.990901 
2789.000000	97.993609 
2788.000000	97.995189 
2787.000000	97.995466 
2786.000000	97.996220 
2785.000000	97.998832 
2784.000000	98.002354 
2783.000000	98.005053 
2782.000000	98.006963 
2781.000000	98.009396 
2780.000000	98.012492 
2779.000000	98.014998 
2778.000000	98.016441 
2777.000000	98.017823 
2776.000000	98.019825 
2775.000000	98.021710 
2774.000000	98.022725 
2773.000000	98.023463 
2772.000000	98.024919 
2771.000000	98.026905 
2770.000000	98.028348 
2769.000000	98.028830 
2768.000000	98.029005 
2767.000000	98.029630 
2766.000000	98.030840 
2765.000000	98.032374 
2764.000000	98.033916 
2763.000000	98.035005 
2762.000000	98.035064 
2761.000000	98.033904 
2760.000000	98.032198 
2759.000000	98.031179 
2758.000000	98.031541 
2757.000000	98.032667 
2756.000000	98.033231 
2755.000000	98.032776 
2754.000000	98.032356 
2753.000000	98.033206 
2752.000000	98.035234 
2751.000000	98.037470 
2750.000000	98.039620 
2749.000000	98.042199 
2748.000000	98.045025 
2747.000000	98.046705 
2746.000000	98.046326 
2745.000000	98.044881 
2744.000000	98.044281 
2743.000000	98.045126 
2742.000000	98.046507 
2741.000000	98.047735 
2740.000000	98.049198 
2739.000000	98.051203 
2738.000000	98.053027 
2737.000000	98.053821 
2736.000000	98.053878 
2735.000000	98.054309 
2734.000000	98.055668 
2733.000000	98.057461 
2732.000000	98.058954 
2731.000000	98.060003 
2730.000000	98.061023 
2729.000000	98.062448 
2728.000000	98.064185 
2727.000000	98.065407 
2726.000000	98.065089 
2725.000000	98.063065 
2724.000000	98.060491 
2723.000000	98.058820 
2722.000000	98.058300 
2721.000000	98.058064 
2720.000000	98.057723 
2719.000000	98.058106 
2718.000000	98.059914 
2717.000000	98.062228 
2716.000000	98.063249 
2715.000000	98.062575 
2714.000000	98.061719 
2713.000000	98.062076 
2712.000000	98.063130 
2711.000000	98.063320 
2710.000000	98.062236 
2709.000000	98.061072 
2708.000000	98.061048 
2707.000000	98.062330 
2706.000000	98.064625 
2705.000000	98.067826 
2704.000000	98.071433 
2703.000000	98.074180 
2702.000000	98.075200 
2701.000000	98.075280 
2700.000000	98.076193 
2699.000000	98.078760 
2698.000000	98.082059 
2697.000000	98.084533 
2696.000000	98.085366 
2695.000000	98.084748 
2694.000000	98.083460 
2693.000000	98.082465 
2692.000000	98.082372 
2691.000000	98.082951 
2690.000000	98.083318 
2689.000000	98.082835 
2688.000000	98.081778 
2687.000000	98.081001 
2686.000000	98.081065 
2685.000000	98.081907 
2684.000000	98.083166 
2683.000000	98.084477 
2682.000000	98.085333 
2681.000000	98.084986 
2680.000000	98.083002 
2679.000000	98.080206 
2678.000000	98.078643 
2677.000000	98.079771 
2676.000000	98.082553 
2675.000000	98.084020 
2674.000000	98.082464 
2673.000000	98.079450 
2672.000000	98.077761 
2671.000000	98.077876 
2670.000000	98.077960 
2669.000000	98.077263 
2668.000000	98.077713 
2667.000000	98.080991 
2666.000000	98.085537 
2665.000000	98.088123 
2664.000000	98.088046 
2663.000000	98.087921 
2662.000000	98.090019 
2661.000000	98.093329 
2660.000000	98.095211 
2659.000000	98.094949 
2658.000000	98.094300 
2657.000000	98.095026 
2656.000000	98.097154 
2655.000000	98.099843 
2654.000000	98.102535 
2653.000000	98.104592 
2652.000000	98.104900 
2651.000000	98.103048 
2650.000000	98.100616 
2649.000000	98.099940 
2648.000000	98.101286 
2647.000000	98.102164 
2646.000000	98.100030 
2645.000000	98.094949 
2644.000000	98.089066 
2643.000000	98.084149 
2642.000000	98.080452 
2641.000000	98.077867 
2640.000000	98.076842 
2639.000000	98.077508 
2638.000000	98.078679 
2637.000000	98.078736 
2636.000000	98.077635 
2635.000000	98.077164 
2634.000000	98.078677 
2633.000000	98.081038 
2632.000000	98.081677 
2631.000000	98.079702 
2630.000000	98.076971 
2629.000000	98.075597 
2628.000000	98.075403 
2627.000000	98.074934 
2626.000000	98.074287 
2625.000000	98.075074 
2624.000000	98.077561 
2623.000000	98.079853 
2622.000000	98.080559 
2621.000000	98.080643 
2620.000000	98.081376 
2619.000000	98.081913 
2618.000000	98.080673 
2617.000000	98.078365 
2616.000000	98.077692 
2615.000000	98.079777 
2614.000000	98.082578 
2613.000000	98.083696 
2612.000000	98.083732 
2611.000000	98.085030 
2610.000000	98.087728 
2609.000000	98.089354 
2608.000000	98.088577 
2607.000000	98.087182 
2606.000000	98.087376 
2605.000000	98.088462 
2604.000000	98.087898 
2603.000000	98.084957 
2602.000000	98.081897 
2601.000000	98.081241 
2600.000000	98.082749 
2599.000000	98.083671 
2598.000000	98.081869 
2597.000000	98.078135 
2596.000000	98.074906 
2595.000000	98.073067 
2594.000000	98.071313 
2593.000000	98.069080 
2592.000000	98.068526 
2591.000000	98.071920 
2590.000000	98.077826 
2589.000000	98.081748 
2588.000000	98.081152 
2587.000000	98.078428 
2586.000000	98.078273 
2585.000000	98.082877 
2584.000000	98.089996 
2583.000000	98.095216 
2582.000000	98.096178 
2581.000000	98.094920 
2580.000000	98.095768 
2579.000000	98.100307 
2578.000000	98.105526 
2577.000000	98.108188 
2576.000000	98.109448 
2575.000000	98.112456 
2574.000000	98.116126 
2573.000000	98.115392 
2572.000000	98.108602 
2571.000000	98.100777 
2570.000000	98.097218 
2569.000000	98.096584 
2568.000000	98.093798 
2567.000000	98.087792 
2566.000000	98.082354 
2565.000000	98.079589 
2564.000000	98.076351 
2563.000000	98.068795 
2562.000000	98.058098 
2561.000000	98.049590 
2560.000000	98.046958 
2559.000000	98.049009 
2558.000000	98.051872 
2557.000000	98.053227 
2556.000000	98.053858 
2555.000000	98.055130 
2554.000000	98.056131 
2553.000000	98.054711 
2552.000000	98.051215 
2551.000000	98.049261 
2550.000000	98.051413 
2549.000000	98.055322 
2548.000000	98.056255 
2547.000000	98.053402 
2546.000000	98.051266 
2545.000000	98.053881 
2544.000000	98.059768 
2543.000000	98.064213 
2542.000000	98.065414 
2541.000000	98.066186 
2540.000000	98.069642 
2539.000000	98.075272 
2538.000000	98.080212 
2537.000000	98.083025 
2536.000000	98.084645 
2535.000000	98.086105 
2534.000000	98.087067 
2533.000000	98.086991 
2532.000000	98.086381 
2531.000000	98.085851 
2530.000000	98.084856 
2529.000000	98.082625 
2528.000000	98.079800 
2527.000000	98.077963 
2526.000000	98.077681 
2525.000000	98.078241 
2524.000000	98.079353 
2523.000000	98.081619 
2522.000000	98.084764 
2521.000000	98.086814 
2520.000000	98.086308 
2519.000000	98.084273 
2518.000000	98.082917 
2517.000000	98.082831 
2516.000000	98.082769 
2515.000000	98.081931 
2514.000000	98.081119 
2513.000000	98.081412 
2512.000000	98.082744 
2511.000000	98.084279 
2510.000000	98.085412 
2509.000000	98.086068 
2508.000000	98.086304 
2507.000000	98.086192 
2506.000000	98.085991 
2505.000000	98.086027 
2504.000000	98.086333 
2503.000000	98.086626 
2502.000000	98.086659 
2501.000000	98.086483 
2500.000000	98.086297 
2499.000000	98.086156 
2498.000000	98.085959 
2497.000000	98.085691 
2496.000000	98.085482 
2495.000000	98.085406 
2494.000000	98.085368 
2493.000000	98.085218 
2492.000000	98.084944 
2491.000000	98.084670 
2490.000000	98.084521 
2489.000000	98.084471 
2488.000000	98.084368 
2487.000000	98.084101 
2486.000000	98.083703 
2485.000000	98.083318 
2484.000000	98.083056 
2483.000000	98.082970 
2482.000000	98.083066 
2481.000000	98.083240 
2480.000000	98.083256 
2479.000000	98.082986 
2478.000000	98.082650 
2477.000000	98.082630 
2476.000000	98.082897 
2475.000000	98.082884 
2474.000000	98.082138 
2473.000000	98.080978 
2472.000000	98.080157 
2471.000000	98.079844 
2470.000000	98.079534 
2469.000000	98.079044 
2468.000000	98.079025 
2467.000000	98.080129 
2466.000000	98.081968 
2465.000000	98.083395 
2464.000000	98.083904 
2463.000000	98.084357 
2462.000000	98.086098 
2461.000000	98.089385 
2460.000000	98.092872 
2459.000000	98.094862 
2458.000000	98.094877 
2457.000000	98.093641 
2456.000000	98.091818 
2455.000000	98.089557 
2454.000000	98.087359 
2453.000000	98.086357 
2452.000000	98.087050 
2451.000000	98.088592 
2450.000000	98.090147 
2449.000000	98.092079 
2448.000000	98.094799 
2447.000000	98.097254 
2446.000000	98.097971 
2445.000000	98.097189 
2444.000000	98.096546 
2443.000000	98.096786 
2442.000000	98.097189 
2441.000000	98.097371 
2440.000000	98.098196 
2439.000000	98.100418 
2438.000000	98.103509 
2437.000000	98.106472 
2436.000000	98.109123 
2435.000000	98.111930 
2434.000000	98.114860 
2433.000000	98.116894 
2432.000000	98.116989 
2431.000000	98.115616 
2430.000000	98.115088 
2429.000000	98.117299 
2428.000000	98.120875 
2427.000000	98.121944 
2426.000000	98.118405 
2425.000000	98.111926 
2424.000000	98.104984 
2423.000000	98.097690 
2422.000000	98.090033 
2421.000000	98.085166 
2420.000000	98.086301 
2419.000000	98.091081 
2418.000000	98.093177 
2417.000000	98.090812 
2416.000000	98.089086 
2415.000000	98.091830 
2414.000000	98.095927 
2413.000000	98.096742 
2412.000000	98.095414 
2411.000000	98.096095 
2410.000000	98.098497 
2409.000000	98.098425 
2408.000000	98.094973 
2407.000000	98.092198 
2406.000000	98.092932 
2405.000000	98.094996 
2404.000000	98.094915 
2403.000000	98.092537 
2402.000000	98.090487 
2401.000000	98.091063 
2400.000000	98.094837 
2399.000000	98.100762 
2398.000000	98.106902 
2397.000000	98.112150 
2396.000000	98.117166 
2395.000000	98.122233 
2394.000000	98.124899 
2393.000000	98.122475 
2392.000000	98.116790 
2391.000000	98.113428 
2390.000000	98.115116 
2389.000000	98.118503 
2388.000000	98.119219 
2387.000000	98.117627 
2386.000000	98.117274 
2385.000000	98.119187 
2384.000000	98.120394 
2383.000000	98.117663 
2382.000000	98.110445 
2381.000000	98.100276 
2380.000000	98.089308 
2379.000000	98.079316 
2378.000000	98.070652 
2377.000000	98.062039 
2376.000000	98.052843 
2375.000000	98.045684 
2374.000000	98.044385 
2373.000000	98.048914 
2372.000000	98.054642 
2371.000000	98.057776 
2370.000000	98.059225 
2369.000000	98.060929 
2368.000000	98.060876 
2367.000000	98.055451 
2366.000000	98.045561 
2365.000000	98.036637 
2364.000000	98.032109 
2363.000000	98.030475 
2362.000000	98.029125 
2361.000000	98.027472 
2360.000000	98.026970 
2359.000000	98.028503 
2358.000000	98.029236 
2357.000000	98.025721 
2356.000000	98.017227 
2355.000000	98.006625 
2354.000000	97.994633 
2353.000000	97.979911 
2352.000000	97.966999 
2351.000000	97.961891 
2350.000000	97.964875 
2349.000000	97.970453 
2348.000000	97.974334 
2347.000000	97.976550 
2346.000000	97.978635 
2345.000000	97.984838 
2344.000000	97.995272 
2343.000000	98.003833 
2342.000000	98.005380 
2341.000000	98.003491 
2340.000000	98.005338 
2339.000000	98.007369 
2338.000000	98.001502 
2337.000000	97.988049 
2336.000000	97.977700 
2335.000000	97.975398 
2334.000000	97.974883 
2333.000000	97.969741 
2332.000000	97.966139 
2331.000000	97.971129 
2330.000000	97.982132 
2329.000000	97.991213 
2328.000000	97.998655 
2327.000000	98.010518 
2326.000000	98.024249 
2325.000000	98.033569 
2324.000000	98.037749 
2323.000000	98.044913 
2322.000000	98.058338 
2321.000000	98.070970 
2320.000000	98.077766 
2319.000000	98.081990 
2318.000000	98.089446 
2317.000000	98.097488 
2316.000000	98.100531 
2315.000000	98.097402 
2314.000000	98.092791 
2313.000000	98.090972 
2312.000000	98.093467 
2311.000000	98.099882 
2310.000000	98.107431 
2309.000000	98.111586 
2308.000000	98.109675 
2307.000000	98.104728 
2306.000000	98.101937 
2305.000000	98.102947 
2304.000000	98.104858 
2303.000000	98.105363 
2302.000000	98.105815 
2301.000000	98.108266 
2300.000000	98.111516 
2299.000000	98.111573 
2298.000000	98.105987 
2297.000000	98.096510 
2296.000000	98.087292 
2295.000000	98.081335 
2294.000000	98.078244 
2293.000000	98.076212 
2292.000000	98.074282 
2291.000000	98.073609 
2290.000000	98.075994 
2289.000000	98.082683 
2288.000000	98.092648 
2287.000000	98.101963 
2286.000000	98.105753 
2285.000000	98.103304 
2284.000000	98.100105 
2283.000000	98.102166 
2282.000000	98.108389 
2281.000000	98.111989 
2280.000000	98.109843 
2279.000000	98.105822 
2278.000000	98.103883 
2277.000000	98.102044 
2276.000000	98.097226 
2275.000000	98.091538 
2274.000000	98.089433 
2273.000000	98.090941 
2272.000000	98.092472 
2271.000000	98.092785 
2270.000000	98.093403 
2269.000000	98.093893 
2268.000000	98.091354 
2267.000000	98.085278 
2266.000000	98.078694 
2265.000000	98.073438 
2264.000000	98.067393 
2263.000000	98.057827 
2262.000000	98.045150 
2261.000000	98.032125 
2260.000000	98.020535 
2259.000000	98.010131 
2258.000000	98.000327 
2257.000000	97.992091 
2256.000000	97.987962 
2255.000000	97.989495 
2254.000000	97.995138 
2253.000000	98.001230 
2252.000000	98.005136 
2251.000000	98.005834 
2250.000000	98.002374 
2249.000000	97.994530 
2248.000000	97.986052 
2247.000000	97.983518 
2246.000000	97.989485 
2245.000000	97.999423 
2244.000000	98.006894 
2243.000000	98.009864 
2242.000000	98.010078 
2241.000000	98.009864 
2240.000000	98.012239 
2239.000000	98.020405 
2238.000000	98.032664 
2237.000000	98.040801 
2236.000000	98.039069 
2235.000000	98.032450 
2234.000000	98.030561 
2233.000000	98.034325 
2232.000000	98.036031 
2231.000000	98.032201 
2230.000000	98.027522 
2229.000000	98.024280 
2228.000000	98.017125 
2227.000000	98.003666 
2226.000000	97.992354 
2225.000000	97.992027 
2224.000000	97.998320 
2223.000000	97.998806 
2222.000000	97.989445 
2221.000000	97.977562 
2220.000000	97.968949 
2219.000000	97.960603 
2218.000000	97.949096 
2217.000000	97.938942 
2216.000000	97.937309 
2215.000000	97.944112 
2214.000000	97.952004 
2213.000000	97.954962 
2212.000000	97.953516 
2211.000000	97.951903 
2210.000000	97.953337 
2209.000000	97.958246 
2208.000000	97.964462 
2207.000000	97.968613 
2206.000000	97.969579 
2205.000000	97.971451 
2204.000000	97.980910 
2203.000000	97.999860 
2202.000000	98.021699 
2201.000000	98.036642 
2200.000000	98.040073 
2199.000000	98.034145 
2198.000000	98.023196 
2197.000000	98.010836 
2196.000000	98.000694 
2195.000000	97.995543 
2194.000000	97.993837 
2193.000000	97.990111 
2192.000000	97.981063 
2191.000000	97.969220 
2190.000000	97.959090 
2189.000000	97.951814 
2188.000000	97.945531 
2187.000000	97.938096 
2186.000000	97.926571 
2185.000000	97.907375 
2184.000000	97.882138 
2183.000000	97.861762 
2182.000000	97.857882 
2181.000000	97.869119 
2180.000000	97.880154 
2179.000000	97.877421 
2178.000000	97.862284 
2177.000000	97.846061 
2176.000000	97.836391 
2175.000000	97.832716 
2174.000000	97.832998 
2173.000000	97.838791 
2172.000000	97.852158 
2171.000000	97.870958 
2170.000000	97.889117 
2169.000000	97.901125 
2168.000000	97.905642 
2167.000000	97.905267 
2166.000000	97.903678 
2165.000000	97.902785 
2164.000000	97.901817 
2163.000000	97.898998 
2162.000000	97.894587 
2161.000000	97.892136 
2160.000000	97.895490 
2159.000000	97.904023 
2158.000000	97.912601 
2157.000000	97.917799 
2156.000000	97.921790 
2155.000000	97.927708 
2154.000000	97.934021 
2153.000000	97.937091 
2152.000000	97.937706 
2151.000000	97.940204 
2150.000000	97.944360 
2149.000000	97.943448 
2148.000000	97.933689 
2147.000000	97.921694 
2146.000000	97.917365 
2145.000000	97.921361 
2144.000000	97.925627 
2143.000000	97.926163 
2142.000000	97.928995 
2141.000000	97.940336 
2140.000000	97.956554 
2139.000000	97.968484 
2138.000000	97.973853 
2137.000000	97.979626 
2136.000000	97.991264 
2135.000000	98.004233 
2134.000000	98.009693 
2133.000000	98.006548 
2132.000000	98.003779 
2131.000000	98.010116 
2130.000000	98.024134 
2129.000000	98.036460 
2128.000000	98.040861 
2127.000000	98.040929 
2126.000000	98.045468 
2125.000000	98.058820 
2124.000000	98.076560 
2123.000000	98.089785 
2122.000000	98.092780 
2121.000000	98.087267 
2120.000000	98.080446 
2119.000000	98.077995 
2118.000000	98.078985 
2117.000000	98.078790 
2116.000000	98.075845 
2115.000000	98.072357 
2114.000000	98.068288 
2113.000000	98.059400 
2112.000000	98.044102 
2111.000000	98.028846 
2110.000000	98.022058 
2109.000000	98.024149 
2108.000000	98.027844 
2107.000000	98.027835 
2106.000000	98.025902 
2105.000000	98.025816 
2104.000000	98.027757 
2103.000000	98.029520 
2102.000000	98.029340 
2101.000000	98.025448 
2100.000000	98.016495 
2099.000000	98.005520 
2098.000000	98.000588 
2097.000000	98.006979 
2096.000000	98.020535 
2095.000000	98.032331 
2094.000000	98.039223 
2093.000000	98.045395 
2092.000000	98.053529 
2091.000000	98.060242 
2090.000000	98.062503 
2089.000000	98.064066 
2088.000000	98.070654 
2087.000000	98.080313 
2086.000000	98.084041 
2085.000000	98.077370 
2084.000000	98.066788 
2083.000000	98.061625 
2082.000000	98.062658 
2081.000000	98.063891 
2080.000000	98.063513 
2079.000000	98.065916 
2078.000000	98.071619 
2077.000000	98.072565 
2076.000000	98.062647 
2075.000000	98.047717 
2074.000000	98.038421 
2073.000000	98.035479 
2072.000000	98.029798 
2071.000000	98.016662 
2070.000000	98.002147 
2069.000000	97.993155 
2068.000000	97.987992 
2067.000000	97.981101 
2066.000000	97.972160 
2065.000000	97.965239 
2064.000000	97.961903 
2063.000000	97.960853 
2062.000000	97.962738 
2061.000000	97.969701 
2060.000000	97.981447 
2059.000000	97.996425 
2058.000000	98.014732 
2057.000000	98.034610 
2056.000000	98.047988 
2055.000000	98.046812 
2054.000000	98.035137 
2053.000000	98.028796 
2052.000000	98.037842 
2051.000000	98.053720 
2050.000000	98.059550 
2049.000000	98.051021 
2048.000000	98.040391 
2047.000000	98.038773 
2046.000000	98.042614 
2045.000000	98.042911 
2044.000000	98.039121 
2043.000000	98.036611 
2042.000000	98.035582 
2041.000000	98.031418 
2040.000000	98.024544 
2039.000000	98.021326 
2038.000000	98.023655 
2037.000000	98.024340 
2036.000000	98.015525 
2035.000000	97.996790 
2034.000000	97.973084 
2033.000000	97.949889 
2032.000000	97.933009 
2031.000000	97.927300 
2030.000000	97.930499 
2029.000000	97.932056 
2028.000000	97.923861 
2027.000000	97.909765 
2026.000000	97.899264 
2025.000000	97.895515 
2024.000000	97.896132 
2023.000000	97.902893 
2022.000000	97.922174 
2021.000000	97.953603 
2020.000000	97.984612 
2019.000000	98.000485 
2018.000000	97.996929 
2017.000000	97.981752 
2016.000000	97.967637 
2015.000000	97.963406 
2014.000000	97.969599 
2013.000000	97.979557 
2012.000000	97.986274 
2011.000000	97.990371 
2010.000000	97.999355 
2009.000000	98.017750 
2008.000000	98.040229 
2007.000000	98.056562 
2006.000000	98.061161 
2005.000000	98.055423 
2004.000000	98.044042 
2003.000000	98.032417 
2002.000000	98.025540 
2001.000000	98.024686 
2000.000000	98.024577 
1999.000000	98.016177 
1998.000000	97.994011 
1997.000000	97.962750 
1996.000000	97.935570 
1995.000000	97.922813 
1994.000000	97.922122 
1993.000000	97.921317 
1992.000000	97.912472 
1991.000000	97.901421 
1990.000000	97.899345 
1989.000000	97.908370 
1988.000000	97.920332 
1987.000000	97.926872 
1986.000000	97.925787 
1985.000000	97.918344 
1984.000000	97.907013 
1983.000000	97.897955 
1982.000000	97.899985 
1981.000000	97.915893 
1980.000000	97.937721 
1979.000000	97.954262 
1978.000000	97.961826 
1977.000000	97.965312 
1976.000000	97.970572 
1975.000000	97.980229 
1974.000000	97.995697 
1973.000000	98.017308 
1972.000000	98.041232 
1971.000000	98.060645 
1970.000000	98.071201 
1969.000000	98.072234 
1968.000000	98.062507 
1967.000000	98.040626 
1966.000000	98.013362 
1965.000000	97.996753 
1964.000000	98.001519 
1963.000000	98.020748 
1962.000000	98.036308 
1961.000000	98.036973 
1960.000000	98.025539 
1959.000000	98.009219 
1958.000000	97.991204 
1957.000000	97.973917 
1956.000000	97.961965 
1955.000000	97.956460 
1954.000000	97.951563 
1953.000000	97.942112 
1952.000000	97.930614 
1951.000000	97.922425 
1950.000000	97.918865 
1949.000000	97.919219 
1948.000000	97.926053 
1947.000000	97.942091 
1946.000000	97.962344 
1945.000000	97.976005 
1944.000000	97.977544 
1943.000000	97.972027 
1942.000000	97.968416 
1941.000000	97.969873 
1940.000000	97.973253 
1939.000000	97.975613 
1938.000000	97.977893 
1937.000000	97.984001 
1936.000000	97.996681 
1935.000000	98.012939 
1934.000000	98.025533 
1933.000000	98.031596 
1932.000000	98.036379 
1931.000000	98.046128 
1930.000000	98.060280 
1929.000000	98.072187 
1928.000000	98.077429 
1927.000000	98.076710 
1926.000000	98.072498 
1925.000000	98.067129 
1924.000000	98.062075 
1923.000000	98.056762 
1922.000000	98.047901 
1921.000000	98.034157 
1920.000000	98.020994 
1919.000000	98.015028 
1918.000000	98.013493 
1917.000000	98.005923 
1916.000000	97.989986 
1915.000000	97.977407 
1914.000000	97.978330 
1913.000000	97.988807 
1912.000000	97.997454 
1911.000000	98.000473 
1910.000000	98.003980 
1909.000000	98.012566 
1908.000000	98.024820 
1907.000000	98.037503 
1906.000000	98.047732 
1905.000000	98.051932 
1904.000000	98.048882 
1903.000000	98.045917 
1902.000000	98.053002 
1901.000000	98.069604 
1900.000000	98.086023 
1899.000000	98.096796 
1898.000000	98.105444 
1897.000000	98.115658 
1896.000000	98.123618 
1895.000000	98.124103 
1894.000000	98.118787 
1893.000000	98.113687 
1892.000000	98.112326 
1891.000000	98.113956 
1890.000000	98.115668 
1889.000000	98.115137 
1888.000000	98.112347 
1887.000000	98.109406 
1886.000000	98.107266 
1885.000000	98.103017 
1884.000000	98.092898 
1883.000000	98.077969 
1882.000000	98.064062 
1881.000000	98.055879 
1880.000000	98.053799 
1879.000000	98.053689 
1878.000000	98.048786 
1877.000000	98.036486 
1876.000000	98.023349 
1875.000000	98.019379 
1874.000000	98.026433 
1873.000000	98.035147 
1872.000000	98.036625 
1871.000000	98.033260 
1870.000000	98.032825 
1869.000000	98.036105 
1868.000000	98.037896 
1867.000000	98.039204 
1866.000000	98.045557 
1865.000000	98.054683 
1864.000000	98.058736 
1863.000000	98.057439 
1862.000000	98.059355 
1861.000000	98.068703 
1860.000000	98.079484 
1859.000000	98.086110 
1858.000000	98.091414 
1857.000000	98.098991 
1856.000000	98.106016 
1855.000000	98.108553 
1854.000000	98.107749 
1853.000000	98.106259 
1852.000000	98.105375 
1851.000000	98.106444 
1850.000000	98.109839 
1849.000000	98.113582 
1848.000000	98.114296 
1847.000000	98.111543 
1846.000000	98.108095 
1845.000000	98.106339 
1844.000000	98.106320 
1843.000000	98.106629 
1842.000000	98.105546 
1841.000000	98.102703 
1840.000000	98.100869 
1839.000000	98.102743 
1838.000000	98.106912 
1837.000000	98.108327 
1836.000000	98.104996 
1835.000000	98.102322 
1834.000000	98.105332 
1833.000000	98.111955 
1832.000000	98.118502 
1831.000000	98.124578 
1830.000000	98.130668 
1829.000000	98.136180 
1828.000000	98.140464 
1827.000000	98.145489 
1826.000000	98.153763 
1825.000000	98.163307 
1824.000000	98.168924 
1823.000000	98.169163 
1822.000000	98.168665 
1821.000000	98.170916 
1820.000000	98.173200 
1819.000000	98.171313 
1818.000000	98.167512 
1817.000000	98.167616 
1816.000000	98.171011 
1815.000000	98.173569 
1814.000000	98.175294 
1813.000000	98.179619 
1812.000000	98.185499 
1811.000000	98.185731 
1810.000000	98.178320 
1809.000000	98.168645 
1808.000000	98.160194 
1807.000000	98.153073 
1806.000000	98.148838 
1805.000000	98.149140 
1804.000000	98.150820 
1803.000000	98.148628 
1802.000000	98.140806 
1801.000000	98.131234 
1800.000000	98.124325 
1799.000000	98.120496 
1798.000000	98.119678 
1797.000000	98.120393 
1796.000000	98.119340 
1795.000000	98.116746 
1794.000000	98.116580 
1793.000000	98.120784 
1792.000000	98.125162 
1791.000000	98.125396 
1790.000000	98.124504 
1789.000000	98.126536 
1788.000000	98.131293 
1787.000000	98.137117 
1786.000000	98.144077 
1785.000000	98.151302 
1784.000000	98.155306 
1783.000000	98.156511 
1782.000000	98.158589 
1781.000000	98.162578 
1780.000000	98.166208 
1779.000000	98.167549 
1778.000000	98.169159 
1777.000000	98.172762 
1776.000000	98.176558 
1775.000000	98.178849 
1774.000000	98.179194 
1773.000000	98.177962 
1772.000000	98.175239 
1771.000000	98.169815 
1770.000000	98.162661 
1769.000000	98.158275 
1768.000000	98.158812 
1767.000000	98.161432 
1766.000000	98.162610 
1765.000000	98.163277 
1764.000000	98.166164 
1763.000000	98.169597 
1762.000000	98.169186 
1761.000000	98.166173 
1760.000000	98.165449 
1759.000000	98.167755 
1758.000000	98.170457 
1757.000000	98.171359 
1756.000000	98.173462 
1755.000000	98.178040 
1754.000000	98.180834 
1753.000000	98.178649 
1752.000000	98.174841 
1751.000000	98.176543 
1750.000000	98.185004 
1749.000000	98.194380 
1748.000000	98.201294 
1747.000000	98.207932 
1746.000000	98.213581 
1745.000000	98.215507 
1744.000000	98.214343 
1743.000000	98.213140 
1742.000000	98.213818 
1741.000000	98.216107 
1740.000000	98.217837 
1739.000000	98.217649 
1738.000000	98.216172 
1737.000000	98.215683 
1736.000000	98.216971 
1735.000000	98.217222 
1734.000000	98.214332 
1733.000000	98.209578 
1732.000000	98.204246 
1731.000000	98.200124 
1730.000000	98.199277 
1729.000000	98.199759 
1728.000000	98.199750 
1727.000000	98.198762 
1726.000000	98.197012 
1725.000000	98.194942 
1724.000000	98.192868 
1723.000000	98.190355 
1722.000000	98.187774 
1721.000000	98.185737 
1720.000000	98.184863 
1719.000000	98.184463 
1718.000000	98.183788 
1717.000000	98.183935 
1716.000000	98.183224 
1715.000000	98.180243 
1714.000000	98.178707 
1713.000000	98.180344 
1712.000000	98.182369 
1711.000000	98.182880 
1710.000000	98.182609 
1709.000000	98.182204 
1708.000000	98.182002 
1707.000000	98.182883 
1706.000000	98.185133 
1705.000000	98.186638 
1704.000000	98.184062 
1703.000000	98.178246 
1702.000000	98.173107 
1701.000000	98.172072 
1700.000000	98.172968 
1699.000000	98.170420 
1698.000000	98.166992 
1697.000000	98.167301 
1696.000000	98.168653 
1695.000000	98.166535 
1694.000000	98.161734 
1693.000000	98.157701 
1692.000000	98.155559 
1691.000000	98.153085 
1690.000000	98.148717 
1689.000000	98.143413 
1688.000000	98.139079 
1687.000000	98.136117 
1686.000000	98.133934 
1685.000000	98.133205 
1684.000000	98.132764 
1683.000000	98.131006 
1682.000000	98.126826 
1681.000000	98.120043 
1680.000000	98.114660 
1679.000000	98.112008 
1678.000000	98.110740 
1677.000000	98.108880 
1676.000000	98.108535 
1675.000000	98.111767 
1674.000000	98.114065 
1673.000000	98.111357 
1672.000000	98.107972 
1671.000000	98.109689 
1670.000000	98.115414 
1669.000000	98.117864 
1668.000000	98.116083 
1667.000000	98.115014 
1666.000000	98.115918 
1665.000000	98.117819 
1664.000000	98.120179 
1663.000000	98.122790 
1662.000000	98.122928 
1661.000000	98.116009 
1660.000000	98.104981 
1659.000000	98.096817 
1658.000000	98.094663 
1657.000000	98.093782 
1656.000000	98.092532 
1655.000000	98.091882 
1654.000000	98.091312 
1653.000000	98.089349 
1652.000000	98.082440 
1651.000000	98.065749 
1650.000000	98.044474 
1649.000000	98.033111 
1648.000000	98.029433 
1647.000000	98.025674 
1646.000000	98.018738 
1645.000000	98.015433 
1644.000000	98.013850 
1643.000000	98.012621 
1642.000000	98.012031 
1641.000000	98.012340 
1640.000000	98.013524 
1639.000000	98.014337 
1638.000000	98.014678 
1637.000000	98.015304 
1636.000000	98.018051 
1635.000000	98.026191 
1634.000000	98.035032 
1633.000000	98.037667 
1632.000000	98.036292 
1631.000000	98.037076 
1630.000000	98.042276 
1629.000000	98.047164 
1628.000000	98.047758 
1627.000000	98.048663 
1626.000000	98.054720 
1625.000000	98.062702 
1624.000000	98.066934 
1623.000000	98.068514 
1622.000000	98.072488 
1621.000000	98.076427 
1620.000000	98.076867 
1619.000000	98.076119 
1618.000000	98.077798 
1617.000000	98.079916 
1616.000000	98.077297 
1615.000000	98.070580 
1614.000000	98.062822 
1613.000000	98.055554 
1612.000000	98.049177 
1611.000000	98.046018 
1610.000000	98.047147 
1609.000000	98.049666 
1608.000000	98.052480 
1607.000000	98.059098 
1606.000000	98.069910 
1605.000000	98.079741 
1604.000000	98.086341 
1603.000000	98.091229 
1602.000000	98.095932 
1601.000000	98.101134 
1600.000000	98.108037 
1599.000000	98.117040 
1598.000000	98.125761 
1597.000000	98.132494 
1596.000000	98.138734 
1595.000000	98.146211 
1594.000000	98.153467 
1593.000000	98.158063 
1592.000000	98.161462 
1591.000000	98.167240 
1590.000000	98.174642 
1589.000000	98.179141 
1588.000000	98.180587 
1587.000000	98.184156 
1586.000000	98.191416 
1585.000000	98.196016 
1584.000000	98.194511 
1583.000000	98.191964 
1582.000000	98.191953 
1581.000000	98.191444 
1580.000000	98.188313 
1579.000000	98.186882 
1578.000000	98.191372 
1577.000000	98.198951 
1576.000000	98.202108 
1575.000000	98.199124 
1574.000000	98.192589 
1573.000000	98.185594 
1572.000000	98.182187 
1571.000000	98.183604 
1570.000000	98.186701 
1569.000000	98.185274 
1568.000000	98.180677 
1567.000000	98.177849 
1566.000000	98.178235 
1565.000000	98.179668 
1564.000000	98.181635 
1563.000000	98.183127 
1562.000000	98.183330 
1561.000000	98.181053 
1560.000000	98.182933 
1559.000000	98.189998 
1558.000000	98.195871 
1557.000000	98.199193 
1556.000000	98.198024 
1555.000000	98.200135 
1554.000000	98.202014 
1553.000000	98.203144 
1552.000000	98.203330 
1551.000000	98.203115 
1550.000000	98.200179 
1549.000000	98.195283 
1548.000000	98.192013 
1547.000000	98.192906 
1546.000000	98.195511 
1545.000000	98.194841 
1544.000000	98.189837 
1543.000000	98.184869 
1542.000000	98.185081 
1541.000000	98.188431 
1540.000000	98.183253 
1539.000000	98.170390 
1538.000000	98.158322 
1537.000000	98.145952 
1536.000000	98.133807 
1535.000000	98.124617 
1534.000000	98.120911 
1533.000000	98.121911 
1532.000000	98.123551 
1531.000000	98.120978 
1530.000000	98.115726 
1529.000000	98.111608 
1528.000000	98.108330 
1527.000000	98.103996 
1526.000000	98.099440 
1525.000000	98.097682 
1524.000000	98.100295 
1523.000000	98.106066 
1522.000000	98.111515 
1521.000000	98.113067 
1520.000000	98.108925 
1519.000000	98.099410 
1518.000000	98.087911 
1517.000000	98.078828 
1516.000000	98.074290 
1515.000000	98.073838 
1514.000000	98.074391 
1513.000000	98.075255 
1512.000000	98.076160 
1511.000000	98.074140 
1510.000000	98.068473 
1509.000000	98.063249 
1508.000000	98.061686 
1507.000000	98.055929 
1506.000000	98.046766 
1505.000000	98.036604 
1504.000000	98.017771 
1503.000000	97.996082 
1502.000000	97.977164 
1501.000000	97.962777 
1500.000000	97.951086 
1499.000000	97.940136 
1498.000000	97.927969 
1497.000000	97.917542 
1496.000000	97.911046 
1495.000000	97.905843 
1494.000000	97.902039 
1493.000000	97.902941 
1492.000000	97.908662 
1491.000000	97.914350 
1490.000000	97.916614 
1489.000000	97.918903 
1488.000000	97.920863 
1487.000000	97.917177 
1486.000000	97.910564 
1485.000000	97.903193 
1484.000000	97.895444 
1483.000000	97.889927 
1482.000000	97.888282 
1481.000000	97.889614 
1480.000000	97.889289 
1479.000000	97.884903 
1478.000000	97.879034 
1477.000000	97.875969 
1476.000000	97.874037 
1475.000000	97.868597 
1474.000000	97.859753 
1473.000000	97.852976 
1472.000000	97.853083 
1471.000000	97.855015 
1470.000000	97.851456 
1469.000000	97.842342 
1468.000000	97.831065 
1467.000000	97.820201 
1466.000000	97.812130 
1465.000000	97.807293 
1464.000000	97.804786 
1463.000000	97.799688 
1462.000000	97.787982 
1461.000000	97.771977 
1460.000000	97.757398 
1459.000000	97.747833 
1458.000000	97.736214 
1457.000000	97.718130 
1456.000000	97.704092 
1455.000000	97.696302 
1454.000000	97.688513 
1453.000000	97.684210 
1452.000000	97.684481 
1451.000000	97.688460 
1450.000000	97.697466 
1449.000000	97.716035 
1448.000000	97.739488 
1447.000000	97.755869 
1446.000000	97.761266 
1445.000000	97.763501 
1444.000000	97.770837 
1443.000000	97.779194 
1442.000000	97.781453 
1441.000000	97.778591 
1440.000000	97.777086 
1439.000000	97.778115 
1438.000000	97.776825 
1437.000000	97.772889 
1436.000000	97.771762 
1435.000000	97.771126 
1434.000000	97.764390 
1433.000000	97.755806 
1432.000000	97.752407 
1431.000000	97.754059 
1430.000000	97.753246 
1429.000000	97.746669 
1428.000000	97.737683 
1427.000000	97.729981 
1426.000000	97.723477 
1425.000000	97.716128 
1424.000000	97.709895 
1423.000000	97.704244 
1422.000000	97.694725 
1421.000000	97.680848 
1420.000000	97.668921 
1419.000000	97.660623 
1418.000000	97.648562 
1417.000000	97.632421 
1416.000000	97.620371 
1415.000000	97.616957 
1414.000000	97.616888 
1413.000000	97.612742 
1412.000000	97.604032 
1411.000000	97.595785 
1410.000000	97.591448 
1409.000000	97.592072 
1408.000000	97.596062 
1407.000000	97.601121 
1406.000000	97.607447 
1405.000000	97.617994 
1404.000000	97.635127 
1403.000000	97.653143 
1402.000000	97.665566 
1401.000000	97.676029 
1400.000000	97.692152 
1399.000000	97.711840 
1398.000000	97.722635 
1397.000000	97.717464 
1396.000000	97.701284 
1395.000000	97.686029 
1394.000000	97.681437 
1393.000000	97.690647 
1392.000000	97.711868 
1391.000000	97.737687 
1390.000000	97.757904 
1389.000000	97.766231 
1388.000000	97.763702 
1387.000000	97.755571 
1386.000000	97.746034 
1385.000000	97.737663 
1384.000000	97.734467 
1383.000000	97.738718 
1382.000000	97.747252 
1381.000000	97.755212 
1380.000000	97.761419 
1379.000000	97.769608 
1378.000000	97.782877 
1377.000000	97.799765 
1376.000000	97.816709 
1375.000000	97.832344 
1374.000000	97.847577 
1373.000000	97.864024 
1372.000000	97.882410 
1371.000000	97.903377 
1370.000000	97.927056 
1369.000000	97.949723 
1368.000000	97.968131 
1367.000000	97.983392 
1366.000000	98.000450 
1365.000000	98.023218 
1364.000000	98.048300 
1363.000000	98.066086 
1362.000000	98.073122 
1361.000000	98.077515 
1360.000000	98.087391 
1359.000000	98.101925 
1358.000000	98.115377 
1357.000000	98.124756 
1356.000000	98.131694 
1355.000000	98.137458 
1354.000000	98.140850 
1353.000000	98.142433 
1352.000000	98.144107 
1351.000000	98.146767 
1350.000000	98.149500 
1349.000000	98.149489 
1348.000000	98.146732 
1347.000000	98.143165 
1346.000000	98.140202 
1345.000000	98.138291 
1344.000000	98.138854 
1343.000000	98.142784 
1342.000000	98.147551 
1341.000000	98.148147 
1340.000000	98.143303 
1339.000000	98.138441 
1338.000000	98.138272 
1337.000000	98.140687 
1336.000000	98.142176 
1335.000000	98.144036 
1334.000000	98.149756 
1333.000000	98.158952 
1332.000000	98.167357 
1331.000000	98.173002 
1330.000000	98.178486 
1329.000000	98.186276 
1328.000000	98.195282 
1327.000000	98.203894 
1326.000000	98.212191 
1325.000000	98.218883 
1324.000000	98.221392 
1323.000000	98.219174 
1322.000000	98.215952 
1321.000000	98.216088 
1320.000000	98.219298 
1319.000000	98.221230 
1318.000000	98.219786 
1317.000000	98.217726 
1316.000000	98.217199 
1315.000000	98.215050 
1314.000000	98.207236 
1313.000000	98.196265 
1312.000000	98.189140 
1311.000000	98.187725 
1310.000000	98.186315 
1309.000000	98.180391 
1308.000000	98.172604 
1307.000000	98.168024 
1306.000000	98.167142 
1305.000000	98.166770 
1304.000000	98.166169 
1303.000000	98.166132 
1302.000000	98.164894 
1301.000000	98.160138 
1300.000000	98.154811 
1299.000000	98.155047 
1298.000000	98.161826 
1297.000000	98.169265 
1296.000000	98.172838 
1295.000000	98.175337 
1294.000000	98.181478 
1293.000000	98.190579 
1292.000000	98.198250 
1291.000000	98.203166 
1290.000000	98.208094 
1289.000000	98.214380 
1288.000000	98.219234 
1287.000000	98.219964 
1286.000000	98.218200 
1285.000000	98.217961 
1284.000000	98.220935 
1283.000000	98.225482 
1282.000000	98.229119 
1281.000000	98.229534 
1280.000000	98.224656 
1279.000000	98.214842 
1278.000000	98.204823 
1277.000000	98.200121 
1276.000000	98.199807 
1275.000000	98.196691 
1274.000000	98.186385 
1273.000000	98.172902 
1272.000000	98.162166 
1271.000000	98.152857 
1270.000000	98.138945 
1269.000000	98.119959 
1268.000000	98.102643 
1267.000000	98.091207 
1266.000000	98.081765 
1265.000000	98.069893 
1264.000000	98.058379 
1263.000000	98.052444 
1262.000000	98.050979 
1261.000000	98.048158 
1260.000000	98.042526 
1259.000000	98.038888 
1258.000000	98.040375 
1257.000000	98.044167 
1256.000000	98.046284 
1255.000000	98.046850 
1254.000000	98.048421 
1253.000000	98.051772 
1252.000000	98.055734 
1251.000000	98.059901 
1250.000000	98.064920 
1249.000000	98.070771 
1248.000000	98.077192 
1247.000000	98.085302 
1246.000000	98.095572 
1245.000000	98.103735 
1244.000000	98.102396 
1243.000000	98.090360 
1242.000000	98.078262 
1241.000000	98.079133 
1240.000000	98.092332 
1239.000000	98.102667 
1238.000000	98.098118 
1237.000000	98.082377 
1236.000000	98.065890 
1235.000000	98.050493 
1234.000000	98.030983 
1233.000000	98.007945 
1232.000000	97.988257 
1231.000000	97.972999 
1230.000000	97.955695 
1229.000000	97.935277 
1228.000000	97.920311 
1227.000000	97.915140 
1226.000000	97.911004 
1225.000000	97.898361 
1224.000000	97.880755 
1223.000000	97.867934 
1222.000000	97.860618 
1221.000000	97.851748 
1220.000000	97.839587 
1219.000000	97.829406 
1218.000000	97.822708 
1217.000000	97.814152 
1216.000000	97.800473 
1215.000000	97.784701 
1214.000000	97.769670 
1213.000000	97.754145 
1212.000000	97.737687 
1211.000000	97.722570 
1210.000000	97.707529 
1209.000000	97.685459 
1208.000000	97.652324 
1207.000000	97.614343 
1206.000000	97.580843 
1205.000000	97.551684 
1204.000000	97.517872 
1203.000000	97.474853 
1202.000000	97.429184 
1201.000000	97.389174 
1200.000000	97.352835 
1199.000000	97.310585 
1198.000000	97.258605 
1197.000000	97.203630 
1196.000000	97.152726 
1195.000000	97.104338 
1194.000000	97.054020 
1193.000000	97.003519 
1192.000000	96.957142 
1191.000000	96.912054 
1190.000000	96.861000 
1189.000000	96.804323 
1188.000000	96.750304 
1187.000000	96.701974 
1186.000000	96.652821 
1185.000000	96.599048 
1184.000000	96.546518 
1183.000000	96.499925 
1182.000000	96.454070 
1181.000000	96.403467 
1180.000000	96.352713 
1179.000000	96.307780 
1178.000000	96.263233 
1177.000000	96.209343 
1176.000000	96.147867 
1175.000000	96.089057 
1174.000000	96.034882 
1173.000000	95.977364 
1172.000000	95.914161 
1171.000000	95.853255 
1170.000000	95.798591 
1169.000000	95.742448 
1168.000000	95.678421 
1167.000000	95.613618 
1166.000000	95.560429 
1165.000000	95.522289 
1164.000000	95.495133 
1163.000000	95.478602 
1162.000000	95.477351 
1161.000000	95.490985 
1160.000000	95.508543 
1159.000000	95.515775 
1158.000000	95.505733 
1157.000000	95.480041 
1156.000000	95.441393 
1155.000000	95.388608 
1154.000000	95.321201 
1153.000000	95.246239 
1152.000000	95.175588 
1151.000000	95.115210 
1150.000000	95.061583 
1149.000000	95.010127 
1148.000000	94.961418 
1147.000000	94.915882 
1146.000000	94.868930 
1145.000000	94.817415 
1144.000000	94.765568 
1143.000000	94.717706 
1142.000000	94.670020 
1141.000000	94.617825 
1140.000000	94.565888 
1139.000000	94.521213 
1138.000000	94.479231 
1137.000000	94.429485 
1136.000000	94.373121 
1135.000000	94.321386 
1134.000000	94.275834 
1133.000000	94.224250 
1132.000000	94.160407 
1131.000000	94.093947 
1130.000000	94.033810 
1129.000000	93.973278 
1128.000000	93.901402 
1127.000000	93.820253 
1126.000000	93.740153 
1125.000000	93.663153 
1124.000000	93.582470 
1123.000000	93.496074 
1122.000000	93.410325 
1121.000000	93.329302 
1120.000000	93.248793 
1119.000000	93.163780 
1118.000000	93.076325 
1117.000000	92.992279 
1116.000000	92.913215 
1115.000000	92.836047 
1114.000000	92.760396 
1113.000000	92.691813 
1112.000000	92.633995 
1111.000000	92.580948 
1110.000000	92.523453 
1109.000000	92.462369 
1108.000000	92.407012 
1107.000000	92.358674 
1106.000000	92.306685 
1105.000000	92.245943 
1104.000000	92.187076 
1103.000000	92.140255 
1102.000000	92.098768 
1101.000000	92.051221 
1100.000000	92.000956 
1099.000000	91.958118 
1098.000000	91.921319 
1097.000000	91.880856 
1096.000000	91.836955 
1095.000000	91.796123 
1094.000000	91.751589 
1093.000000	91.687229 
1092.000000	91.603639 
1091.000000	91.521726 
1090.000000	91.454247 
1089.000000	91.390384 
1088.000000	91.316879 
1087.000000	91.237781 
1086.000000	91.161904 
1085.000000	91.084557 
1084.000000	90.996620 
1083.000000	90.903211 
1082.000000	90.818480 
1081.000000	90.745390 
1080.000000	90.673487 
1079.000000	90.596443 
1078.000000	90.521180 
1077.000000	90.456585 
1076.000000	90.399994 
1075.000000	90.340292 
1074.000000	90.272945 
1073.000000	90.206389 
1072.000000	90.148710 
1071.000000	90.089637 
1070.000000	90.004718 
1069.000000	89.881959 
1068.000000	89.737190 
1067.000000	89.598120 
1066.000000	89.480439 
1065.000000	89.386480 
1064.000000	89.315223 
1063.000000	89.256461 
1062.000000	89.182216 
1061.000000	89.065372 
1060.000000	88.908408 
1059.000000	88.739451 
1058.000000	88.579271 
1057.000000	88.427070 
1056.000000	88.278252 
1055.000000	88.134860 
1054.000000	87.992683 
1053.000000	87.838383 
1052.000000	87.670633 
1051.000000	87.506824 
1050.000000	87.355062 
1049.000000	87.197059 
1048.000000	87.015671 
1047.000000	86.822812 
1046.000000	86.641782 
1045.000000	86.474990 
1044.000000	86.307025 
1043.000000	86.131806 
1042.000000	85.960000 
1041.000000	85.800425 
1040.000000	85.647934 
1039.000000	85.494759 
1038.000000	85.346591 
1037.000000	85.220094 
1036.000000	85.124546 
1035.000000	85.051061 
1034.000000	84.984139 
1033.000000	84.920512 
1032.000000	84.866689 
1031.000000	84.818695 
1030.000000	84.760826 
1029.000000	84.692670 
1028.000000	84.641009 
1027.000000	84.629942 
1026.000000	84.650923 
1025.000000	84.677234 
1024.000000	84.696795 
1023.000000	84.711974 
1022.000000	84.718745 
1021.000000	84.710534 
1020.000000	84.696427 
1019.000000	84.691113 
1018.000000	84.689797 
1017.000000	84.676399 
1016.000000	84.654218 
1015.000000	84.642990 
1014.000000	84.645394 
1013.000000	84.642746 
1012.000000	84.627426 
1011.000000	84.613733 
1010.000000	84.610081 
1009.000000	84.605982 
1008.000000	84.596793 
1007.000000	84.597926 
1006.000000	84.620884 
1005.000000	84.654912 
1004.000000	84.686523 
1003.000000	84.720621 
1002.000000	84.766694 
1001.000000	84.818429 
1000.000000	84.864226 
999.000000	 84.908887 
998.000000	 84.968362 
997.000000	 85.046947 
996.000000	 85.133157 
995.000000	 85.217469 
994.000000	 85.304645 
993.000000	 85.405512 
992.000000	 85.520831 
991.000000	 85.637460 
990.000000	 85.742549 
989.000000	 85.839963 
988.000000	 85.945731 
987.000000	 86.066065 
986.000000	 86.190383 
985.000000	 86.311448 
984.000000	 86.439439 
983.000000	 86.584146 
982.000000	 86.735436 
981.000000	 86.877382 
980.000000	 87.012636 
979.000000	 87.153733 
978.000000	 87.297295 
977.000000	 87.428692 
976.000000	 87.549265 
975.000000	 87.676346 
974.000000	 87.815347 
973.000000	 87.953190 
972.000000	 88.082524 
971.000000	 88.211467 
970.000000	 88.343691 
969.000000	 88.469108 
968.000000	 88.582892 
967.000000	 88.695773 
966.000000	 88.815463 
965.000000	 88.934175 
964.000000	 89.046198 
963.000000	 89.162691 
962.000000	 89.294570 
961.000000	 89.432333 
960.000000	 89.559138 
959.000000	 89.676398 
958.000000	 89.799740 
957.000000	 89.932140 
956.000000	 90.057765 
955.000000	 90.166704 
954.000000	 90.272721 
953.000000	 90.396719 
952.000000	 90.537744 
951.000000	 90.672171 
950.000000	 90.783526 
949.000000	 90.882343 
948.000000	 90.988751 
947.000000	 91.102385 
946.000000	 91.204346 
945.000000	 91.287032 
944.000000	 91.364027 
943.000000	 91.445087 
942.000000	 91.519036 
941.000000	 91.574751 
940.000000	 91.623458 
939.000000	 91.682690 
938.000000	 91.747957 
937.000000	 91.801230 
936.000000	 91.840991 
935.000000	 91.882160 
934.000000	 91.928399 
933.000000	 91.967475 
932.000000	 91.996391 
931.000000	 92.028749 
930.000000	 92.070493 
929.000000	 92.108171 
928.000000	 92.131699 
927.000000	 92.151779 
926.000000	 92.182417 
925.000000	 92.219325 
924.000000	 92.249146 
923.000000	 92.270224 
922.000000	 92.291202 
921.000000	 92.316310 
920.000000	 92.344857 
919.000000	 92.380342 
918.000000	 92.426978 
917.000000	 92.478829 
916.000000	 92.524533 
915.000000	 92.564521 
914.000000	 92.613826 
913.000000	 92.683854 
912.000000	 92.768985 
911.000000	 92.856940 
910.000000	 92.947303 
909.000000	 93.049829 
908.000000	 93.165193 
907.000000	 93.279918 
906.000000	 93.386797 
905.000000	 93.498890 
904.000000	 93.629331 
903.000000	 93.765509 
902.000000	 93.882396 
901.000000	 93.979296 
900.000000	 94.080507 
899.000000	 94.195915 
898.000000	 94.305246 
897.000000	 94.392402 
896.000000	 94.470387 
895.000000	 94.553907 
894.000000	 94.628983 
893.000000	 94.676986 
892.000000	 94.713226 
891.000000	 94.770193 
890.000000	 94.848026 
889.000000	 94.914137 
888.000000	 94.952783 
887.000000	 94.983738 
886.000000	 95.025425 
885.000000	 95.068339 
884.000000	 95.099248 
883.000000	 95.126665 
882.000000	 95.163876 
881.000000	 95.206367 
880.000000	 95.247510 
879.000000	 95.301762 
878.000000	 95.388064 
877.000000	 95.497761 
876.000000	 95.601558 
875.000000	 95.687509 
874.000000	 95.772500 
873.000000	 95.873538 
872.000000	 95.986244 
871.000000	 96.098673 
870.000000	 96.211304 
869.000000	 96.329968 
868.000000	 96.446341 
867.000000	 96.542088 
866.000000	 96.614786 
865.000000	 96.685778 
864.000000	 96.773178 
863.000000	 96.867049 
862.000000	 96.946147 
861.000000	 97.011495 
860.000000	 97.082469 
859.000000	 97.159867 
858.000000	 97.218890 
857.000000	 97.248508 
856.000000	 97.272162 
855.000000	 97.311055 
854.000000	 97.347738 
853.000000	 97.354084 
852.000000	 97.338823 
851.000000	 97.336081 
850.000000	 97.354605 
849.000000	 97.373911 
848.000000	 97.389012 
847.000000	 97.419987 
846.000000	 97.469729 
845.000000	 97.509980 
844.000000	 97.526725 
843.000000	 97.546853 
842.000000	 97.595737 
841.000000	 97.654425 
840.000000	 97.688843 
839.000000	 97.703128 
838.000000	 97.730626 
837.000000	 97.780311 
836.000000	 97.826563 
835.000000	 97.854879 
834.000000	 97.886191 
833.000000	 97.941993 
832.000000	 98.007654 
831.000000	 98.051010 
830.000000	 98.066123 
829.000000	 98.077514 
828.000000	 98.103970 
827.000000	 98.139271 
826.000000	 98.173198 
825.000000	 98.209472 
824.000000	 98.248562 
823.000000	 98.271889 
822.000000	 98.265373 
821.000000	 98.243738 
820.000000	 98.227008 
819.000000	 98.205219 
818.000000	 98.154514 
817.000000	 98.080917 
816.000000	 98.015118 
815.000000	 97.959627 
814.000000	 97.876987 
813.000000	 97.749299 
812.000000	 97.613863 
811.000000	 97.506132 
810.000000	 97.392887 
809.000000	 97.210536 
808.000000	 96.957274 
807.000000	 96.697152 
806.000000	 96.469506 
805.000000	 96.245550 
804.000000	 95.994457 
803.000000	 95.743795 
802.000000	 95.540343 
801.000000	 95.386497 
800.000000	 95.256945 
799.000000	 95.155536 
798.000000	 95.111541 
797.000000	 95.127287 
796.000000	 95.168506 
795.000000	 95.209133 
794.000000	 95.254544 
793.000000	 95.312436 
792.000000	 95.368659 
791.000000	 95.406988 
790.000000	 95.433217 
789.000000	 95.459799 
788.000000	 95.476726 
787.000000	 95.458623 
786.000000	 95.398978 
785.000000	 95.316263 
784.000000	 95.220929 
783.000000	 95.098426 
782.000000	 94.941651 
781.000000	 94.782801 
780.000000	 94.664893 
779.000000	 94.588741 
778.000000	 94.520713 
777.000000	 94.455641 
776.000000	 94.432479 
775.000000	 94.469498 
774.000000	 94.524669 
773.000000	 94.554621 
772.000000	 94.580756 
771.000000	 94.648084 
770.000000	 94.743799 
769.000000	 94.815527 
768.000000	 94.860747 
767.000000	 94.931008 
766.000000	 95.039309 
765.000000	 95.130205 
764.000000	 95.170195 
763.000000	 95.209145 
762.000000	 95.306858 
761.000000	 95.443798 
760.000000	 95.556186 
759.000000	 95.632386 
758.000000	 95.717123 
757.000000	 95.831678 
756.000000	 95.947175 
755.000000	 96.042137 
754.000000	 96.135288 
753.000000	 96.241041 
752.000000	 96.331139 
751.000000	 96.371384 
750.000000	 96.374172 
749.000000	 96.383836 
748.000000	 96.417696 
747.000000	 96.449869 
746.000000	 96.455225 
745.000000	 96.443007 
744.000000	 96.435651 
743.000000	 96.433395 
742.000000	 96.420075 
741.000000	 96.394831 
740.000000	 96.375160 
739.000000	 96.368651 
738.000000	 96.364125 
737.000000	 96.356427 
736.000000	 96.357539 
735.000000	 96.371969 
734.000000	 96.383793 
733.000000	 96.386032 
732.000000	 96.400468 
731.000000	 96.442608 
730.000000	 96.488913 
729.000000	 96.513485 
728.000000	 96.538512 
727.000000	 96.603555 
726.000000	 96.697744 
725.000000	 96.775223 
724.000000	 96.837306 
723.000000	 96.939146 
722.000000	 97.097642 
721.000000	 97.250656 
720.000000	 97.346484 
719.000000	 97.424871 
718.000000	 97.549979 
717.000000	 97.702015 
716.000000	 97.806508 
715.000000	 97.847610 
714.000000	 97.884744 
713.000000	 97.954361 
712.000000	 98.017318 
711.000000	 98.031288 
710.000000	 98.020046 
709.000000	 98.030938 
708.000000	 98.056619 
707.000000	 98.046668 
706.000000	 97.984104 
705.000000	 97.903279 
704.000000	 97.827680 
703.000000	 97.732890 
702.000000	 97.589687 
701.000000	 97.409562 
700.000000	 97.218751 
699.000000	 97.006569 
698.000000	 96.742350 
697.000000	 96.443180 
696.000000	 96.181893 
695.000000	 96.012017 
694.000000	 95.919729 
693.000000	 95.870923 
692.000000	 95.872020 
691.000000	 95.940107 
690.000000	 96.043418 
689.000000	 96.130555 
688.000000	 96.207517 
687.000000	 96.326273 
686.000000	 96.491397 
685.000000	 96.648882 
684.000000	 96.779726 
683.000000	 96.929283 
682.000000	 97.119404 
681.000000	 97.299108 
680.000000	 97.426709 
679.000000	 97.543661 
678.000000	 97.704525 
677.000000	 97.882357 
676.000000	 98.011594 
675.000000	 98.101671 
674.000000	 98.214445 
673.000000	 98.341154 
672.000000	 98.406049 
671.000000	 98.392128 
670.000000	 98.378161 
669.000000	 98.427375 
668.000000	 98.481807 
667.000000	 98.480622 
666.000000	 98.456051 
665.000000	 98.441202 
664.000000	 98.439119 
663.000000	 98.396362 
662.000000	 98.304365 
661.000000	 98.237634 
660.000000	 98.235842 
659.000000	 98.223196 
658.000000	 98.123741 
657.000000	 97.999531 
656.000000	 97.968740 
655.000000	 98.018645 
654.000000	 98.014067 
653.000000	 97.917604 
652.000000	 97.877373 
651.000000	 98.012195 
650.000000	 98.230661 

