4000.000000	98.007478 
3999.000000	98.006603 
3998.000000	98.004551 
3997.000000	98.001911 
3996.000000	97.999636 
3995.000000	97.998419 
3994.000000	97.998437 
3993.000000	97.999313 
3992.000000	98.000220 
3991.000000	98.000353 
3990.000000	97.999543 
3989.000000	97.998358 
3988.000000	97.997490 
3987.000000	97.997204 
3986.000000	97.997428 
3985.000000	97.998038 
3984.000000	97.998845 
3983.000000	97.999532 
3982.000000	97.999998 
3981.000000	98.000513 
3980.000000	98.001165 
3979.000000	98.001437 
3978.000000	98.000850 
3977.000000	97.999820 
3976.000000	97.999331 
3975.000000	97.999657 
3974.000000	97.999909 
3973.000000	97.999030 
3972.000000	97.996763 
3971.000000	97.993683 
3970.000000	97.990710 
3969.000000	97.988738 
3968.000000	97.988307 
3967.000000	97.989263 
3966.000000	97.990790 
3965.000000	97.991896 
3964.000000	97.991863 
3963.000000	97.990475 
3962.000000	97.988147 
3961.000000	97.985779 
3960.000000	97.984087 
3959.000000	97.983144 
3958.000000	97.982639 
3957.000000	97.982517 
3956.000000	97.982921 
3955.000000	97.983537 
3954.000000	97.983716 
3953.000000	97.983049 
3952.000000	97.981621 
3951.000000	97.979633 
3950.000000	97.977116 
3949.000000	97.974267 
3948.000000	97.971579 
3947.000000	97.969642 
3946.000000	97.968942 
3945.000000	97.969717 
3944.000000	97.971482 
3943.000000	97.973044 
3942.000000	97.973900 
3941.000000	97.974612 
3940.000000	97.975636 
3939.000000	97.976527 
3938.000000	97.976403 
3937.000000	97.975081 
3936.000000	97.973166 
3935.000000	97.970927 
3934.000000	97.968299 
3933.000000	97.965721 
3932.000000	97.964346 
3931.000000	97.964532 
3930.000000	97.965279 
3929.000000	97.965938 
3928.000000	97.966985 
3927.000000	97.968820 
3926.000000	97.970393 
3925.000000	97.970132 
3924.000000	97.968279 
3923.000000	97.966366 
3922.000000	97.964752 
3921.000000	97.962781 
3920.000000	97.960564 
3919.000000	97.959333 
3918.000000	97.959552 
3917.000000	97.960284 
3916.000000	97.960820 
3915.000000	97.961553 
3914.000000	97.962801 
3913.000000	97.964076 
3912.000000	97.964828 
3911.000000	97.965343 
3910.000000	97.965814 
3909.000000	97.965856 
3908.000000	97.965154 
3907.000000	97.963537 
3906.000000	97.960765 
3905.000000	97.956111 
3904.000000	97.949709 
3903.000000	97.943735 
3902.000000	97.940679 
3901.000000	97.941086 
3900.000000	97.943442 
3899.000000	97.945743 
3898.000000	97.947302 
3897.000000	97.948216 
3896.000000	97.948408 
3895.000000	97.948134 
3894.000000	97.948053 
3893.000000	97.948581 
3892.000000	97.948961 
3891.000000	97.948012 
3890.000000	97.945820 
3889.000000	97.943522 
3888.000000	97.942068 
3887.000000	97.941445 
3886.000000	97.941226 
3885.000000	97.941192 
3884.000000	97.941105 
3883.000000	97.940475 
3882.000000	97.939189 
3881.000000	97.937933 
3880.000000	97.937531 
3879.000000	97.937897 
3878.000000	97.938349 
3877.000000	97.938532 
3876.000000	97.938588 
3875.000000	97.938559 
3874.000000	97.938317 
3873.000000	97.937882 
3872.000000	97.937395 
3871.000000	97.936897 
3870.000000	97.936448 
3869.000000	97.936240 
3868.000000	97.936263 
3867.000000	97.936322 
3866.000000	97.936295 
3865.000000	97.936238 
3864.000000	97.936255 
3863.000000	97.936362 
3862.000000	97.936483 
3861.000000	97.936580 
3860.000000	97.936670 
3859.000000	97.936760 
3858.000000	97.936827 
3857.000000	97.936847 
3856.000000	97.936815 
3855.000000	97.936726 
3854.000000	97.936552 
3853.000000	97.936320 
3852.000000	97.936123 
3851.000000	97.936000 
3850.000000	97.935937 
3849.000000	97.935934 
3848.000000	97.936007 
3847.000000	97.936149 
3846.000000	97.936303 
3845.000000	97.936413 
3844.000000	97.936464 
3843.000000	97.936470 
3842.000000	97.936457 
3841.000000	97.936458 
3840.000000	97.936486 
3839.000000	97.936538 
3838.000000	97.936606 
3837.000000	97.936663 
3836.000000	97.936699 
3835.000000	97.936732 
3834.000000	97.936795 
3833.000000	97.936913 
3832.000000	97.937088 
3831.000000	97.937307 
3830.000000	97.937547 
3829.000000	97.937788 
3828.000000	97.938036 
3827.000000	97.938313 
3826.000000	97.938607 
3825.000000	97.938876 
3824.000000	97.939086 
3823.000000	97.939242 
3822.000000	97.939377 
3821.000000	97.939524 
3820.000000	97.939726 
3819.000000	97.939967 
3818.000000	97.940176 
3817.000000	97.940340 
3816.000000	97.940625 
3815.000000	97.941213 
3814.000000	97.942053 
3813.000000	97.942840 
3812.000000	97.943377 
3811.000000	97.943819 
3810.000000	97.944505 
3809.000000	97.945450 
3808.000000	97.946177 
3807.000000	97.946299 
3806.000000	97.945994 
3805.000000	97.945717 
3804.000000	97.945547 
3803.000000	97.945500 
3802.000000	97.945775 
3801.000000	97.946638 
3800.000000	97.947930 
3799.000000	97.948688 
3798.000000	97.948270 
3797.000000	97.947408 
3796.000000	97.947609 
3795.000000	97.949452 
3794.000000	97.951936 
3793.000000	97.953679 
3792.000000	97.954600 
3791.000000	97.955734 
3790.000000	97.957342 
3789.000000	97.958243 
3788.000000	97.957508 
3787.000000	97.955677 
3786.000000	97.953961 
3785.000000	97.952786 
3784.000000	97.951825 
3783.000000	97.951029 
3782.000000	97.950556 
3781.000000	97.950482 
3780.000000	97.951005 
3779.000000	97.952615 
3778.000000	97.955012 
3777.000000	97.956736 
3776.000000	97.956331 
3775.000000	97.953769 
3774.000000	97.950498 
3773.000000	97.947985 
3772.000000	97.946386 
3771.000000	97.944803 
3770.000000	97.943051 
3769.000000	97.942203 
3768.000000	97.942445 
3767.000000	97.942146 
3766.000000	97.939994 
3765.000000	97.936620 
3764.000000	97.934077 
3763.000000	97.933339 
3762.000000	97.933147 
3761.000000	97.932045 
3760.000000	97.930410 
3759.000000	97.929886 
3758.000000	97.929694 
3757.000000	97.927426 
3756.000000	97.923015 
3755.000000	97.918134 
3754.000000	97.913353 
3753.000000	97.907827 
3752.000000	97.902610 
3751.000000	97.900610 
3750.000000	97.901081 
3749.000000	97.900028 
3748.000000	97.896864 
3747.000000	97.894534 
3746.000000	97.894769 
3745.000000	97.895891 
3744.000000	97.898680 
3743.000000	97.903762 
3742.000000	97.905937 
3741.000000	97.900651 
3740.000000	97.890511 
3739.000000	97.883968 
3738.000000	97.885825 
3737.000000	97.890662 
3736.000000	97.890581 
3735.000000	97.886193 
3734.000000	97.883805 
3733.000000	97.885074 
3732.000000	97.887883 
3731.000000	97.892094 
3730.000000	97.897666 
3729.000000	97.902090 
3728.000000	97.903119 
3727.000000	97.901779 
3726.000000	97.901731 
3725.000000	97.904065 
3724.000000	97.905657 
3723.000000	97.904097 
3722.000000	97.901064 
3721.000000	97.899487 
3720.000000	97.898629 
3719.000000	97.897077 
3718.000000	97.895054 
3717.000000	97.893055 
3716.000000	97.891397 
3715.000000	97.888793 
3714.000000	97.884093 
3713.000000	97.878980 
3712.000000	97.875930 
3711.000000	97.874724 
3710.000000	97.872156 
3709.000000	97.866756 
3708.000000	97.860028 
3707.000000	97.853024 
3706.000000	97.845996 
3705.000000	97.839270 
3704.000000	97.833396 
3703.000000	97.828473 
3702.000000	97.823020 
3701.000000	97.815135 
3700.000000	97.804292 
3699.000000	97.791968 
3698.000000	97.780742 
3697.000000	97.772251 
3696.000000	97.767457 
3695.000000	97.765892 
3694.000000	97.764300 
3693.000000	97.759547 
3692.000000	97.751679 
3691.000000	97.743075 
3690.000000	97.734485 
3689.000000	97.726154 
3688.000000	97.719943 
3687.000000	97.716439 
3686.000000	97.713727 
3685.000000	97.709445 
3684.000000	97.703461 
3683.000000	97.698559 
3682.000000	97.696803 
3681.000000	97.694926 
3680.000000	97.687442 
3679.000000	97.672861 
3678.000000	97.655498 
3677.000000	97.640044 
3676.000000	97.627094 
3675.000000	97.617642 
3674.000000	97.611742 
3673.000000	97.605774 
3672.000000	97.596206 
3671.000000	97.585140 
3670.000000	97.578121 
3669.000000	97.577219 
3668.000000	97.577713 
3667.000000	97.574499 
3666.000000	97.568933 
3665.000000	97.565221 
3664.000000	97.564404 
3663.000000	97.564341 
3662.000000	97.562115 
3661.000000	97.555964 
3660.000000	97.546843 
3659.000000	97.537181 
3658.000000	97.529654 
3657.000000	97.524276 
3656.000000	97.518807 
3655.000000	97.511837 
3654.000000	97.502517 
3653.000000	97.490436 
3652.000000	97.475729 
3651.000000	97.459916 
3650.000000	97.445841 
3649.000000	97.435925 
3648.000000	97.431223 
3647.000000	97.432220 
3646.000000	97.439108 
3645.000000	97.450199 
3644.000000	97.461960 
3643.000000	97.471640 
3642.000000	97.478227 
3641.000000	97.481628 
3640.000000	97.481862 
3639.000000	97.478458 
3638.000000	97.472266 
3637.000000	97.465670 
3636.000000	97.460514 
3635.000000	97.455594 
3634.000000	97.448083 
3633.000000	97.437529 
3632.000000	97.425850 
3631.000000	97.414510 
3630.000000	97.403402 
3629.000000	97.393607 
3628.000000	97.387758 
3627.000000	97.385364 
3626.000000	97.383278 
3625.000000	97.382319 
3624.000000	97.386200 
3623.000000	97.395693 
3622.000000	97.406344 
3621.000000	97.411375 
3620.000000	97.407276 
3619.000000	97.397327 
3618.000000	97.388175 
3617.000000	97.384273 
3616.000000	97.387417 
3615.000000	97.396733 
3614.000000	97.408446 
3613.000000	97.418963 
3612.000000	97.427463 
3611.000000	97.434254 
3610.000000	97.439580 
3609.000000	97.444288 
3608.000000	97.449341 
3607.000000	97.454971 
3606.000000	97.460383 
3605.000000	97.465852 
3604.000000	97.473646 
3603.000000	97.485026 
3602.000000	97.497768 
3601.000000	97.507032 
3600.000000	97.509905 
3599.000000	97.507973 
3598.000000	97.505532 
3597.000000	97.505748 
3596.000000	97.509589 
3595.000000	97.514513 
3594.000000	97.516649 
3593.000000	97.514887 
3592.000000	97.510760 
3591.000000	97.506082 
3590.000000	97.501946 
3589.000000	97.498921 
3588.000000	97.497661 
3587.000000	97.499020 
3586.000000	97.503057 
3585.000000	97.508716 
3584.000000	97.515702 
3583.000000	97.524233 
3582.000000	97.533868 
3581.000000	97.542388 
3580.000000	97.547497 
3579.000000	97.548788 
3578.000000	97.547680 
3577.000000	97.545881 
3576.000000	97.544065 
3575.000000	97.542512 
3574.000000	97.541342 
3573.000000	97.540448 
3572.000000	97.538643 
3571.000000	97.534267 
3570.000000	97.526962 
3569.000000	97.518774 
3568.000000	97.513104 
3567.000000	97.512133 
3566.000000	97.514809 
3565.000000	97.518109 
3564.000000	97.520254 
3563.000000	97.522022 
3562.000000	97.524857 
3561.000000	97.529046 
3560.000000	97.533347 
3559.000000	97.536081 
3558.000000	97.536427 
3557.000000	97.535010 
3556.000000	97.533295 
3555.000000	97.532450 
3554.000000	97.532475 
3553.000000	97.532316 
3552.000000	97.531168 
3551.000000	97.529192 
3550.000000	97.527259 
3549.000000	97.526414 
3548.000000	97.527354 
3547.000000	97.529623 
3546.000000	97.531562 
3545.000000	97.531797 
3544.000000	97.530872 
3543.000000	97.530553 
3542.000000	97.531686 
3541.000000	97.533587 
3540.000000	97.535216 
3539.000000	97.536140 
3538.000000	97.536415 
3537.000000	97.536105 
3536.000000	97.535386 
3535.000000	97.534461 
3534.000000	97.533470 
3533.000000	97.532564 
3532.000000	97.532067 
3531.000000	97.532279 
3530.000000	97.532939 
3529.000000	97.533222 
3528.000000	97.532496 
3527.000000	97.530966 
3526.000000	97.529465 
3525.000000	97.528734 
3524.000000	97.529016 
3523.000000	97.530104 
3522.000000	97.531494 
3521.000000	97.532610 
3520.000000	97.533195 
3519.000000	97.533383 
3518.000000	97.533465 
3517.000000	97.533526 
3516.000000	97.533490 
3515.000000	97.533404 
3514.000000	97.533540 
3513.000000	97.534076 
3512.000000	97.534701 
3511.000000	97.534727 
3510.000000	97.533752 
3509.000000	97.532092 
3508.000000	97.530561 
3507.000000	97.529725 
3506.000000	97.529491 
3505.000000	97.529338 
3504.000000	97.528891 
3503.000000	97.528281 
3502.000000	97.527943 
3501.000000	97.528097 
3500.000000	97.528552 
3499.000000	97.528937 
3498.000000	97.528998 
3497.000000	97.528722 
3496.000000	97.528198 
3495.000000	97.527482 
3494.000000	97.526662 
3493.000000	97.525990 
3492.000000	97.525725 
3491.000000	97.525800 
3490.000000	97.525812 
3489.000000	97.525422 
3488.000000	97.524596 
3487.000000	97.523465 
3486.000000	97.522203 
3485.000000	97.521096 
3484.000000	97.520454 
3483.000000	97.520226 
3482.000000	97.519929 
3481.000000	97.519221 
3480.000000	97.518331 
3479.000000	97.517666 
3478.000000	97.517137 
3477.000000	97.516206 
3476.000000	97.514569 
3475.000000	97.512568 
3474.000000	97.510862 
3473.000000	97.509781 
3472.000000	97.509149 
3471.000000	97.508598 
3470.000000	97.507969 
3469.000000	97.507389 
3468.000000	97.506988 
3467.000000	97.506663 
3466.000000	97.506219 
3465.000000	97.505622 
3464.000000	97.504939 
3463.000000	97.504073 
3462.000000	97.502784 
3461.000000	97.501031 
3460.000000	97.499104 
3459.000000	97.497254 
3458.000000	97.495377 
3457.000000	97.493217 
3456.000000	97.490921 
3455.000000	97.489103 
3454.000000	97.488311 
3453.000000	97.488487 
3452.000000	97.489008 
3451.000000	97.489214 
3450.000000	97.488781 
3449.000000	97.487618 
3448.000000	97.485709 
3447.000000	97.483245 
3446.000000	97.480717 
3445.000000	97.478683 
3444.000000	97.477405 
3443.000000	97.476748 
3442.000000	97.476314 
3441.000000	97.475657 
3440.000000	97.474509 
3439.000000	97.472876 
3438.000000	97.471002 
3437.000000	97.469209 
3436.000000	97.467794 
3435.000000	97.466957 
3434.000000	97.466737 
3433.000000	97.466902 
3432.000000	97.467034 
3431.000000	97.466860 
3430.000000	97.466360 
3429.000000	97.465605 
3428.000000	97.464594 
3427.000000	97.463317 
3426.000000	97.461954 
3425.000000	97.460851 
3424.000000	97.460220 
3423.000000	97.459907 
3422.000000	97.459515 
3421.000000	97.458807 
3420.000000	97.457912 
3419.000000	97.457096 
3418.000000	97.456443 
3417.000000	97.455839 
3416.000000	97.455193 
3415.000000	97.454517 
3414.000000	97.453824 
3413.000000	97.453072 
3412.000000	97.452261 
3411.000000	97.451499 
3410.000000	97.450903 
3409.000000	97.450470 
3408.000000	97.450099 
3407.000000	97.449697 
3406.000000	97.449242 
3405.000000	97.448764 
3404.000000	97.448295 
3403.000000	97.447845 
3402.000000	97.447406 
3401.000000	97.446966 
3400.000000	97.446521 
3399.000000	97.446078 
3398.000000	97.445655 
3397.000000	97.445262 
3396.000000	97.444899 
3395.000000	97.444560 
3394.000000	97.444241 
3393.000000	97.443940 
3392.000000	97.443647 
3391.000000	97.443342 
3390.000000	97.443001 
3389.000000	97.442625 
3388.000000	97.442277 
3387.000000	97.442064 
3386.000000	97.442053 
3385.000000	97.442176 
3384.000000	97.442242 
3383.000000	97.442130 
3382.000000	97.441973 
3381.000000	97.442059 
3380.000000	97.442474 
3379.000000	97.442905 
3378.000000	97.442959 
3377.000000	97.442688 
3376.000000	97.442581 
3375.000000	97.442907 
3374.000000	97.443305 
3373.000000	97.443280 
3372.000000	97.443004 
3371.000000	97.443233 
3370.000000	97.444385 
3369.000000	97.445975 
3368.000000	97.447065 
3367.000000	97.447175 
3366.000000	97.446533 
3365.000000	97.445674 
3364.000000	97.444914 
3363.000000	97.444266 
3362.000000	97.443693 
3361.000000	97.443350 
3360.000000	97.443601 
3359.000000	97.444737 
3358.000000	97.446609 
3357.000000	97.448559 
3356.000000	97.449832 
3355.000000	97.450205 
3354.000000	97.450234 
3353.000000	97.450856 
3352.000000	97.452615 
3351.000000	97.455197 
3350.000000	97.457703 
3349.000000	97.459445 
3348.000000	97.460506 
3347.000000	97.461522 
3346.000000	97.462942 
3345.000000	97.464486 
3344.000000	97.465375 
3343.000000	97.465073 
3342.000000	97.463845 
3341.000000	97.462716 
3340.000000	97.462553 
3339.000000	97.463200 
3338.000000	97.463781 
3337.000000	97.463751 
3336.000000	97.463428 
3335.000000	97.463446 
3334.000000	97.463980 
3333.000000	97.464688 
3332.000000	97.465217 
3331.000000	97.465500 
3330.000000	97.465621 
3329.000000	97.465648 
3328.000000	97.465716 
3327.000000	97.466067 
3326.000000	97.466817 
3325.000000	97.467739 
3324.000000	97.468386 
3323.000000	97.468535 
3322.000000	97.468404 
3321.000000	97.468417 
3320.000000	97.468785 
3319.000000	97.469375 
3318.000000	97.469953 
3317.000000	97.470444 
3316.000000	97.470929 
3315.000000	97.471470 
3314.000000	97.472024 
3313.000000	97.472509 
3312.000000	97.472895 
3311.000000	97.473228 
3310.000000	97.473601 
3309.000000	97.474083 
3308.000000	97.474629 
3307.000000	97.475049 
3306.000000	97.475182 
3305.000000	97.475073 
3304.000000	97.474955 
3303.000000	97.475075 
3302.000000	97.475503 
3301.000000	97.476125 
3300.000000	97.476714 
3299.000000	97.477070 
3298.000000	97.477129 
3297.000000	97.476999 
3296.000000	97.476931 
3295.000000	97.477149 
3294.000000	97.477720 
3293.000000	97.478546 
3292.000000	97.479467 
3291.000000	97.480355 
3290.000000	97.481151 
3289.000000	97.481858 
3288.000000	97.482517 
3287.000000	97.483130 
3286.000000	97.483604 
3285.000000	97.483821 
3284.000000	97.483789 
3283.000000	97.483705 
3282.000000	97.483836 
3281.000000	97.484291 
3280.000000	97.484925 
3279.000000	97.485461 
3278.000000	97.485781 
3277.000000	97.486047 
3276.000000	97.486479 
3275.000000	97.487091 
3274.000000	97.487702 
3273.000000	97.488211 
3272.000000	97.488734 
3271.000000	97.489436 
3270.000000	97.490302 
3269.000000	97.491129 
3268.000000	97.491703 
3267.000000	97.491975 
3266.000000	97.492100 
3265.000000	97.492372 
3264.000000	97.493020 
3263.000000	97.494026 
3262.000000	97.495081 
3261.000000	97.495837 
3260.000000	97.496198 
3259.000000	97.496312 
3258.000000	97.496344 
3257.000000	97.496399 
3256.000000	97.496650 
3255.000000	97.497247 
3254.000000	97.498092 
3253.000000	97.498915 
3252.000000	97.499612 
3251.000000	97.500320 
3250.000000	97.501118 
3249.000000	97.501845 
3248.000000	97.502335 
3247.000000	97.502683 
3246.000000	97.503091 
3245.000000	97.503541 
3244.000000	97.503820 
3243.000000	97.503874 
3242.000000	97.503943 
3241.000000	97.504312 
3240.000000	97.505063 
3239.000000	97.506168 
3238.000000	97.507677 
3237.000000	97.509691 
3236.000000	97.512167 
3235.000000	97.514718 
3234.000000	97.516695 
3233.000000	97.517486 
3232.000000	97.516938 
3231.000000	97.515645 
3230.000000	97.514658 
3229.000000	97.514651 
3228.000000	97.515456 
3227.000000	97.516528 
3226.000000	97.517868 
3225.000000	97.520080 
3224.000000	97.523351 
3223.000000	97.526752 
3222.000000	97.528952 
3221.000000	97.529517 
3220.000000	97.529123 
3219.000000	97.528620 
3218.000000	97.528310 
3217.000000	97.528160 
3216.000000	97.528202 
3215.000000	97.528552 
3214.000000	97.529250 
3213.000000	97.530137 
3212.000000	97.530807 
3211.000000	97.530811 
3210.000000	97.530152 
3209.000000	97.529491 
3208.000000	97.529582 
3207.000000	97.530498 
3206.000000	97.531698 
3205.000000	97.532825 
3204.000000	97.534131 
3203.000000	97.536014 
3202.000000	97.538385 
3201.000000	97.540678 
3200.000000	97.542373 
3199.000000	97.543421 
3198.000000	97.544198 
3197.000000	97.545037 
3196.000000	97.545848 
3195.000000	97.546349 
3194.000000	97.546695 
3193.000000	97.547565 
3192.000000	97.549385 
3191.000000	97.551624 
3190.000000	97.553152 
3189.000000	97.553344 
3188.000000	97.552607 
3187.000000	97.551995 
3186.000000	97.552406 
3185.000000	97.554129 
3184.000000	97.556786 
3183.000000	97.559658 
3182.000000	97.562286 
3181.000000	97.564646 
3180.000000	97.566825 
3179.000000	97.568686 
3178.000000	97.570009 
3177.000000	97.570841 
3176.000000	97.571510 
3175.000000	97.572387 
3174.000000	97.573716 
3173.000000	97.575495 
3172.000000	97.577417 
3171.000000	97.579066 
3170.000000	97.580341 
3169.000000	97.581563 
3168.000000	97.583015 
3167.000000	97.584528 
3166.000000	97.585740 
3165.000000	97.586596 
3164.000000	97.587363 
3163.000000	97.588259 
3162.000000	97.589307 
3161.000000	97.590477 
3160.000000	97.591789 
3159.000000	97.593247 
3158.000000	97.594791 
3157.000000	97.596352 
3156.000000	97.597869 
3155.000000	97.599273 
3154.000000	97.600510 
3153.000000	97.601616 
3152.000000	97.602703 
3151.000000	97.603839 
3150.000000	97.604996 
3149.000000	97.606121 
3148.000000	97.607222 
3147.000000	97.608354 
3146.000000	97.609561 
3145.000000	97.610838 
3144.000000	97.612136 
3143.000000	97.613386 
3142.000000	97.614544 
3141.000000	97.615609 
3140.000000	97.616635 
3139.000000	97.617707 
3138.000000	97.618878 
3137.000000	97.620135 
3136.000000	97.621378 
3135.000000	97.622497 
3134.000000	97.623453 
3133.000000	97.624329 
3132.000000	97.625269 
3131.000000	97.626319 
3130.000000	97.627393 
3129.000000	97.628445 
3128.000000	97.629605 
3127.000000	97.631027 
3126.000000	97.632678 
3125.000000	97.634317 
3124.000000	97.635685 
3123.000000	97.636650 
3122.000000	97.637213 
3121.000000	97.637572 
3120.000000	97.638124 
3119.000000	97.639230 
3118.000000	97.640917 
3117.000000	97.642858 
3116.000000	97.644739 
3115.000000	97.646544 
3114.000000	97.648373 
3113.000000	97.650112 
3112.000000	97.651457 
3111.000000	97.652300 
3110.000000	97.652956 
3109.000000	97.653895 
3108.000000	97.655323 
3107.000000	97.657112 
3106.000000	97.658988 
3105.000000	97.660622 
3104.000000	97.661626 
3103.000000	97.661763 
3102.000000	97.661253 
3101.000000	97.660651 
3100.000000	97.660269 
3099.000000	97.659958 
3098.000000	97.659646 
3097.000000	97.659905 
3096.000000	97.661499 
3095.000000	97.664398 
3094.000000	97.667613 
3093.000000	97.670038 
3092.000000	97.671338 
3091.000000	97.671860 
3090.000000	97.672020 
3089.000000	97.672062 
3088.000000	97.672170 
3087.000000	97.672591 
3086.000000	97.673632 
3085.000000	97.675464 
3084.000000	97.677766 
3083.000000	97.679678 
3082.000000	97.680433 
3081.000000	97.680126 
3080.000000	97.679564 
3079.000000	97.679111 
3078.000000	97.678402 
3077.000000	97.677655 
3076.000000	97.678258 
3075.000000	97.680921 
3074.000000	97.684075 
3073.000000	97.685557 
3072.000000	97.685464 
3071.000000	97.685756 
3070.000000	97.687172 
3069.000000	97.688253 
3068.000000	97.687625 
3067.000000	97.685726 
3066.000000	97.683756 
3065.000000	97.682264 
3064.000000	97.681373 
3063.000000	97.681311 
3062.000000	97.681938 
3061.000000	97.682479 
3060.000000	97.682381 
3059.000000	97.682034 
3058.000000	97.682462 
3057.000000	97.684492 
3056.000000	97.687856 
3055.000000	97.690402 
3054.000000	97.688914 
3053.000000	97.682321 
3052.000000	97.674226 
3051.000000	97.670618 
3050.000000	97.674089 
3049.000000	97.681257 
3048.000000	97.686289 
3047.000000	97.686053 
3046.000000	97.681276 
3045.000000	97.674505 
3044.000000	97.668525 
3043.000000	97.665936 
3042.000000	97.668066 
3041.000000	97.673348 
3040.000000	97.677639 
3039.000000	97.677240 
3038.000000	97.671771 
3037.000000	97.663855 
3036.000000	97.656013 
3035.000000	97.648193 
3034.000000	97.638727 
3033.000000	97.627191 
3032.000000	97.615401 
3031.000000	97.605647 
3030.000000	97.598751 
3029.000000	97.593976 
3028.000000	97.589656 
3027.000000	97.583422 
3026.000000	97.573169 
3025.000000	97.559137 
3024.000000	97.544518 
3023.000000	97.532663 
3022.000000	97.523812 
3021.000000	97.515702 
3020.000000	97.506903 
3019.000000	97.497959 
3018.000000	97.489085 
3017.000000	97.478578 
3016.000000	97.464608 
3015.000000	97.447691 
3014.000000	97.430549 
3013.000000	97.415859 
3012.000000	97.404382 
3011.000000	97.394646 
3010.000000	97.384006 
3009.000000	97.370507 
3008.000000	97.354180 
3007.000000	97.336593 
3006.000000	97.319329 
3005.000000	97.303268 
3004.000000	97.288869 
3003.000000	97.276136 
3002.000000	97.264289 
3001.000000	97.252318 
3000.000000	97.240014 
2999.000000	97.227738 
2998.000000	97.215398 
2997.000000	97.202739 
2996.000000	97.190460 
2995.000000	97.179364 
2994.000000	97.167843 
2993.000000	97.151730 
2992.000000	97.128166 
2991.000000	97.099303 
2990.000000	97.071438 
2989.000000	97.050817 
2988.000000	97.040624 
2987.000000	97.040677 
2986.000000	97.048175 
2985.000000	97.058676 
2984.000000	97.067872 
2983.000000	97.073790 
2982.000000	97.077409 
2981.000000	97.080794 
2980.000000	97.084484 
2979.000000	97.086885 
2978.000000	97.086305 
2977.000000	97.083263 
2976.000000	97.080217 
2975.000000	97.079073 
2974.000000	97.079834 
2973.000000	97.082086 
2972.000000	97.086597 
2971.000000	97.094047 
2970.000000	97.102821 
2969.000000	97.110110 
2968.000000	97.115565 
2967.000000	97.122124 
2966.000000	97.132251 
2965.000000	97.144778 
2964.000000	97.156629 
2963.000000	97.166479 
2962.000000	97.175142 
2961.000000	97.183052 
2960.000000	97.189553 
2959.000000	97.195048 
2958.000000	97.202098 
2957.000000	97.213033 
2956.000000	97.226897 
2955.000000	97.239877 
2954.000000	97.249082 
2953.000000	97.255489 
2952.000000	97.262697 
2951.000000	97.272716 
2950.000000	97.283324 
2949.000000	97.290194 
2948.000000	97.291543 
2947.000000	97.289888 
2946.000000	97.289198 
2945.000000	97.291163 
2944.000000	97.294856 
2943.000000	97.299075 
2942.000000	97.303405 
2941.000000	97.307141 
2940.000000	97.309031 
2939.000000	97.308871 
2938.000000	97.308180 
2937.000000	97.308340 
2936.000000	97.308778 
2935.000000	97.307849 
2934.000000	97.305067 
2933.000000	97.301566 
2932.000000	97.298719 
2931.000000	97.297220 
2930.000000	97.297379 
2929.000000	97.299218 
2928.000000	97.301869 
2927.000000	97.303654 
2926.000000	97.303497 
2925.000000	97.302171 
2924.000000	97.301662 
2923.000000	97.303135 
2922.000000	97.305679 
2921.000000	97.307179 
2920.000000	97.306511 
2919.000000	97.304757 
2918.000000	97.303844 
2917.000000	97.303726 
2916.000000	97.301557 
2915.000000	97.294622 
2914.000000	97.284133 
2913.000000	97.275050 
2912.000000	97.271395 
2911.000000	97.272216 
2910.000000	97.272882 
2909.000000	97.270051 
2908.000000	97.264756 
2907.000000	97.260394 
2906.000000	97.258453 
2905.000000	97.256604 
2904.000000	97.251300 
2903.000000	97.242065 
2902.000000	97.233999 
2901.000000	97.233820 
2900.000000	97.244189 
2899.000000	97.261559 
2898.000000	97.279005 
2897.000000	97.291718 
2896.000000	97.299019 
2895.000000	97.302398 
2894.000000	97.303699 
2893.000000	97.305248 
2892.000000	97.309430 
2891.000000	97.316565 
2890.000000	97.324157 
2889.000000	97.329641 
2888.000000	97.333220 
2887.000000	97.336653 
2886.000000	97.340031 
2885.000000	97.341923 
2884.000000	97.342953 
2883.000000	97.346878 
2882.000000	97.356613 
2881.000000	97.370455 
2880.000000	97.383834 
2879.000000	97.394392 
2878.000000	97.403543 
2877.000000	97.413127 
2876.000000	97.422498 
2875.000000	97.429821 
2874.000000	97.434918 
2873.000000	97.439436 
2872.000000	97.444733 
2871.000000	97.450745 
2870.000000	97.456837 
2869.000000	97.462676 
2868.000000	97.468061 
2867.000000	97.472865 
2866.000000	97.477612 
2865.000000	97.483631 
2864.000000	97.492277 
2863.000000	97.504260 
2862.000000	97.519636 
2861.000000	97.537622 
2860.000000	97.556099 
2859.000000	97.572301 
2858.000000	97.584947 
2857.000000	97.595424 
2856.000000	97.606162 
2855.000000	97.617842 
2854.000000	97.628854 
2853.000000	97.637245 
2852.000000	97.642457 
2851.000000	97.645529 
2850.000000	97.648539 
2849.000000	97.653710 
2848.000000	97.661916 
2847.000000	97.671500 
2846.000000	97.679184 
2845.000000	97.682825 
2844.000000	97.683273 
2843.000000	97.683473 
2842.000000	97.685876 
2841.000000	97.690680 
2840.000000	97.696241 
2839.000000	97.700918 
2838.000000	97.704553 
2837.000000	97.708197 
2836.000000	97.712612 
2835.000000	97.717541 
2834.000000	97.722664 
2833.000000	97.728562 
2832.000000	97.735807 
2831.000000	97.743344 
2830.000000	97.748842 
2829.000000	97.750930 
2828.000000	97.750461 
2827.000000	97.749576 
2826.000000	97.750202 
2825.000000	97.753441 
2824.000000	97.759218 
2823.000000	97.765724 
2822.000000	97.770075 
2821.000000	97.770657 
2820.000000	97.768658 
2819.000000	97.766747 
2818.000000	97.766397 
2817.000000	97.767160 
2816.000000	97.768278 
2815.000000	97.769877 
2814.000000	97.772223 
2813.000000	97.774597 
2812.000000	97.775690 
2811.000000	97.775078 
2810.000000	97.773899 
2809.000000	97.773899 
2808.000000	97.775911 
2807.000000	97.779409 
2806.000000	97.783330 
2805.000000	97.786952 
2804.000000	97.789878 
2803.000000	97.791652 
2802.000000	97.792086 
2801.000000	97.791925 
2800.000000	97.792527 
2799.000000	97.794506 
2798.000000	97.797016 
2797.000000	97.798700 
2796.000000	97.799123 
2795.000000	97.798974 
2794.000000	97.799150 
2793.000000	97.800023 
2792.000000	97.801505 
2791.000000	97.803332 
2790.000000	97.805114 
2789.000000	97.806427 
2788.000000	97.807130 
2787.000000	97.807517 
2786.000000	97.808091 
2785.000000	97.809147 
2784.000000	97.810588 
2783.000000	97.812092 
2782.000000	97.813417 
2781.000000	97.814605 
2780.000000	97.815873 
2779.000000	97.817365 
2778.000000	97.819000 
2777.000000	97.820518 
2776.000000	97.821686 
2775.000000	97.822502 
2774.000000	97.823187 
2773.000000	97.823945 
2772.000000	97.824774 
2771.000000	97.825559 
2770.000000	97.826319 
2769.000000	97.827289 
2768.000000	97.828697 
2767.000000	97.830473 
2766.000000	97.832198 
2765.000000	97.833402 
2764.000000	97.833924 
2763.000000	97.833985 
2762.000000	97.833967 
2761.000000	97.834104 
2760.000000	97.834406 
2759.000000	97.834823 
2758.000000	97.835367 
2757.000000	97.835995 
2756.000000	97.836513 
2755.000000	97.836837 
2754.000000	97.837307 
2753.000000	97.838407 
2752.000000	97.840104 
2751.000000	97.841774 
2750.000000	97.842978 
2749.000000	97.844026 
2748.000000	97.845371 
2747.000000	97.846699 
2746.000000	97.847202 
2745.000000	97.846730 
2744.000000	97.846135 
2743.000000	97.846274 
2742.000000	97.847091 
2741.000000	97.847949 
2740.000000	97.848503 
2739.000000	97.848909 
2738.000000	97.849365 
2737.000000	97.849846 
2736.000000	97.850284 
2735.000000	97.850707 
2734.000000	97.851166 
2733.000000	97.851709 
2732.000000	97.852448 
2731.000000	97.853508 
2730.000000	97.854864 
2729.000000	97.856323 
2728.000000	97.857665 
2727.000000	97.858738 
2726.000000	97.859459 
2725.000000	97.859833 
2724.000000	97.860000 
2723.000000	97.860153 
2722.000000	97.860374 
2721.000000	97.860659 
2720.000000	97.861077 
2719.000000	97.861774 
2718.000000	97.862787 
2717.000000	97.863925 
2716.000000	97.864910 
2715.000000	97.865656 
2714.000000	97.866281 
2713.000000	97.866918 
2712.000000	97.867560 
2711.000000	97.868123 
2710.000000	97.868595 
2709.000000	97.869053 
2708.000000	97.869585 
2707.000000	97.870232 
2706.000000	97.870989 
2705.000000	97.871808 
2704.000000	97.872590 
2703.000000	97.873232 
2702.000000	97.873728 
2701.000000	97.874182 
2700.000000	97.874733 
2699.000000	97.875416 
2698.000000	97.876140 
2697.000000	97.876771 
2696.000000	97.877253 
2695.000000	97.877633 
2694.000000	97.878007 
2693.000000	97.878422 
2692.000000	97.878855 
2691.000000	97.879255 
2690.000000	97.879599 
2689.000000	97.879903 
2688.000000	97.880199 
2687.000000	97.880516 
2686.000000	97.880867 
2685.000000	97.881252 
2684.000000	97.881653 
2683.000000	97.882045 
2682.000000	97.882410 
2681.000000	97.882741 
2680.000000	97.883041 
2679.000000	97.883316 
2678.000000	97.883566 
2677.000000	97.883792 
2676.000000	97.883990 
2675.000000	97.884159 
2674.000000	97.884301 
2673.000000	97.884426 
2672.000000	97.884556 
2671.000000	97.884708 
2670.000000	97.884879 
2669.000000	97.885038 
2668.000000	97.885169 
2667.000000	97.885305 
2666.000000	97.885487 
2665.000000	97.885686 
2664.000000	97.885829 
2663.000000	97.885903 
2662.000000	97.886007 
2661.000000	97.886241 
2660.000000	97.886528 
2659.000000	97.886660 
2658.000000	97.886537 
2657.000000	97.886291 
2656.000000	97.886164 
2655.000000	97.886229 
2654.000000	97.886313 
2653.000000	97.886191 
2652.000000	97.885853 
2651.000000	97.885549 
2650.000000	97.885547 
2649.000000	97.885878 
2648.000000	97.886331 
2647.000000	97.886656 
2646.000000	97.886689 
2645.000000	97.886343 
2644.000000	97.885608 
2643.000000	97.884665 
2642.000000	97.883855 
2641.000000	97.883423 
2640.000000	97.883291 
2639.000000	97.883187 
2638.000000	97.882974 
2637.000000	97.882779 
2636.000000	97.882814 
2635.000000	97.883218 
2634.000000	97.884028 
2633.000000	97.885069 
2632.000000	97.885851 
2631.000000	97.885867 
2630.000000	97.885112 
2629.000000	97.884158 
2628.000000	97.883551 
2627.000000	97.883229 
2626.000000	97.882815 
2625.000000	97.882262 
2624.000000	97.881910 
2623.000000	97.881961 
2622.000000	97.882149 
2621.000000	97.881980 
2620.000000	97.881176 
2619.000000	97.879844 
2618.000000	97.878413 
2617.000000	97.877406 
2616.000000	97.877046 
2615.000000	97.877069 
2614.000000	97.876951 
2613.000000	97.876450 
2612.000000	97.875811 
2611.000000	97.875407 
2610.000000	97.875331 
2609.000000	97.875391 
2608.000000	97.875339 
2607.000000	97.875072 
2606.000000	97.874659 
2605.000000	97.874275 
2604.000000	97.874025 
2603.000000	97.873829 
2602.000000	97.873526 
2601.000000	97.873087 
2600.000000	97.872672 
2599.000000	97.872428 
2598.000000	97.872326 
2597.000000	97.872219 
2596.000000	97.872014 
2595.000000	97.871722 
2594.000000	97.871391 
2593.000000	97.871069 
2592.000000	97.870809 
2591.000000	97.870628 
2590.000000	97.870461 
2589.000000	97.870209 
2588.000000	97.869872 
2587.000000	97.869590 
2586.000000	97.869510 
2585.000000	97.869639 
2584.000000	97.869844 
2583.000000	97.869960 
2582.000000	97.869887 
2581.000000	97.869606 
2580.000000	97.869201 
2579.000000	97.868821 
2578.000000	97.868598 
2577.000000	97.868586 
2576.000000	97.868746 
2575.000000	97.868955 
2574.000000	97.869057 
2573.000000	97.868976 
2572.000000	97.868762 
2571.000000	97.868453 
2570.000000	97.867964 
2569.000000	97.867277 
2568.000000	97.866723 
2567.000000	97.866763 
2566.000000	97.867409 
2565.000000	97.868062 
2564.000000	97.868142 
2563.000000	97.867718 
2562.000000	97.867294 
2561.000000	97.867179 
2560.000000	97.867351 
2559.000000	97.867800 
2558.000000	97.868598 
2557.000000	97.869586 
2556.000000	97.870380 
2555.000000	97.870778 
2554.000000	97.870929 
2553.000000	97.871019 
2552.000000	97.871034 
2551.000000	97.871005 
2550.000000	97.871167 
2549.000000	97.871607 
2548.000000	97.871906 
2547.000000	97.871574 
2546.000000	97.870707 
2545.000000	97.869973 
2544.000000	97.869858 
2543.000000	97.870181 
2542.000000	97.870427 
2541.000000	97.870390 
2540.000000	97.870312 
2539.000000	97.870435 
2538.000000	97.870662 
2537.000000	97.870763 
2536.000000	97.870737 
2535.000000	97.870799 
2534.000000	97.871031 
2533.000000	97.871213 
2532.000000	97.871088 
2531.000000	97.870671 
2530.000000	97.870208 
2529.000000	97.869884 
2528.000000	97.869658 
2527.000000	97.869397 
2526.000000	97.869101 
2525.000000	97.868921 
2524.000000	97.868971 
2523.000000	97.869191 
2522.000000	97.869410 
2521.000000	97.869498 
2520.000000	97.869466 
2519.000000	97.869411 
2518.000000	97.869400 
2517.000000	97.869417 
2516.000000	97.869394 
2515.000000	97.869289 
2514.000000	97.869139 
2513.000000	97.869043 
2512.000000	97.869067 
2511.000000	97.869196 
2510.000000	97.869355 
2509.000000	97.869478 
2508.000000	97.869535 
2507.000000	97.869533 
2506.000000	97.869525 
2505.000000	97.869612 
2504.000000	97.869886 
2503.000000	97.870326 
2502.000000	97.870759 
2501.000000	97.871005 
2500.000000	97.871049 
2499.000000	97.871000 
2498.000000	97.870928 
2497.000000	97.870815 
2496.000000	97.870719 
2495.000000	97.870795 
2494.000000	97.871086 
2493.000000	97.871391 
2492.000000	97.871501 
2491.000000	97.871535 
2490.000000	97.871848 
2489.000000	97.872599 
2488.000000	97.873538 
2487.000000	97.874241 
2486.000000	97.874557 
2485.000000	97.874697 
2484.000000	97.874987 
2483.000000	97.875549 
2482.000000	97.876223 
2481.000000	97.876745 
2480.000000	97.876991 
2479.000000	97.877071 
2478.000000	97.877227 
2477.000000	97.877620 
2476.000000	97.878153 
2475.000000	97.878561 
2474.000000	97.878726 
2473.000000	97.878808 
2472.000000	97.878956 
2471.000000	97.878995 
2470.000000	97.878654 
2469.000000	97.878072 
2468.000000	97.877790 
2467.000000	97.878076 
2466.000000	97.878543 
2465.000000	97.878629 
2464.000000	97.878351 
2463.000000	97.878357 
2462.000000	97.879260 
2461.000000	97.881081 
2460.000000	97.883228 
2459.000000	97.884858 
2458.000000	97.885267 
2457.000000	97.884187 
2456.000000	97.881941 
2455.000000	97.879483 
2454.000000	97.877930 
2453.000000	97.877717 
2452.000000	97.878272 
2451.000000	97.878632 
2450.000000	97.878515 
2449.000000	97.878466 
2448.000000	97.878856 
2447.000000	97.879239 
2446.000000	97.878999 
2445.000000	97.878254 
2444.000000	97.877657 
2443.000000	97.877560 
2442.000000	97.877856 
2441.000000	97.878431 
2440.000000	97.879234 
2439.000000	97.880044 
2438.000000	97.880675 
2437.000000	97.881333 
2436.000000	97.882329 
2435.000000	97.883495 
2434.000000	97.884331 
2433.000000	97.884688 
2432.000000	97.884963 
2431.000000	97.885580 
2430.000000	97.886603 
2429.000000	97.887842 
2428.000000	97.889012 
2427.000000	97.889788 
2426.000000	97.889975 
2425.000000	97.889707 
2424.000000	97.889370 
2423.000000	97.889329 
2422.000000	97.889730 
2421.000000	97.890544 
2420.000000	97.891607 
2419.000000	97.892658 
2418.000000	97.893490 
2417.000000	97.894116 
2416.000000	97.894672 
2415.000000	97.895251 
2414.000000	97.895857 
2413.000000	97.896484 
2412.000000	97.897151 
2411.000000	97.897863 
2410.000000	97.898611 
2409.000000	97.899391 
2408.000000	97.900202 
2407.000000	97.901033 
2406.000000	97.901851 
2405.000000	97.902633 
2404.000000	97.903380 
2403.000000	97.904108 
2402.000000	97.904845 
2401.000000	97.905607 
2400.000000	97.906400 
2399.000000	97.907215 
2398.000000	97.908037 
2397.000000	97.908849 
2396.000000	97.909633 
2395.000000	97.910366 
2394.000000	97.911027 
2393.000000	97.911621 
2392.000000	97.912176 
2391.000000	97.912720 
2390.000000	97.913258 
2389.000000	97.913775 
2388.000000	97.914254 
2387.000000	97.914692 
2386.000000	97.915101 
2385.000000	97.915500 
2384.000000	97.915896 
2383.000000	97.916286 
2382.000000	97.916660 
2381.000000	97.917004 
2380.000000	97.917314 
2379.000000	97.917588 
2378.000000	97.917821 
2377.000000	97.918009 
2376.000000	97.918154 
2375.000000	97.918271 
2374.000000	97.918380 
2373.000000	97.918495 
2372.000000	97.918620 
2371.000000	97.918744 
2370.000000	97.918848 
2369.000000	97.918907 
2368.000000	97.918896 
2367.000000	97.918803 
2366.000000	97.918639 
2365.000000	97.918427 
2364.000000	97.918191 
2363.000000	97.917948 
2362.000000	97.917708 
2361.000000	97.917473 
2360.000000	97.917236 
2359.000000	97.916976 
2358.000000	97.916671 
2357.000000	97.916310 
2356.000000	97.915900 
2355.000000	97.915457 
2354.000000	97.915003 
2353.000000	97.914567 
2352.000000	97.914180 
2351.000000	97.913859 
2350.000000	97.913592 
2349.000000	97.913347 
2348.000000	97.913109 
2347.000000	97.912892 
2346.000000	97.912721 
2345.000000	97.912608 
2344.000000	97.912545 
2343.000000	97.912514 
2342.000000	97.912503 
2341.000000	97.912513 
2340.000000	97.912552 
2339.000000	97.912619 
2338.000000	97.912699 
2337.000000	97.912775 
2336.000000	97.912817 
2335.000000	97.912836 
2334.000000	97.912865 
2333.000000	97.912860 
2332.000000	97.912794 
2331.000000	97.912814 
2330.000000	97.912975 
2329.000000	97.913005 
2328.000000	97.912721 
2327.000000	97.912351 
2326.000000	97.912158 
2325.000000	97.912095 
2324.000000	97.912318 
2323.000000	97.913302 
2322.000000	97.914878 
2321.000000	97.915841 
2320.000000	97.915496 
2319.000000	97.914843 
2318.000000	97.915000 
2317.000000	97.915401 
2316.000000	97.914728 
2315.000000	97.913139 
2314.000000	97.912161 
2313.000000	97.912846 
2312.000000	97.915168 
2311.000000	97.918730 
2310.000000	97.922599 
2309.000000	97.924967 
2308.000000	97.924674 
2307.000000	97.922764 
2306.000000	97.921157 
2305.000000	97.920242 
2304.000000	97.919175 
2303.000000	97.918068 
2302.000000	97.918280 
2301.000000	97.920280 
2300.000000	97.922636 
2299.000000	97.923352 
2298.000000	97.921148 
2297.000000	97.915455 
2296.000000	97.906746 
2295.000000	97.897164 
2294.000000	97.889657 
2293.000000	97.885697 
2292.000000	97.884566 
2291.000000	97.884882 
2290.000000	97.886324 
2289.000000	97.889341 
2288.000000	97.893469 
2287.000000	97.896835 
2286.000000	97.897357 
2285.000000	97.894557 
2284.000000	97.889927 
2283.000000	97.885493 
2282.000000	97.882251 
2281.000000	97.879803 
2280.000000	97.877246 
2279.000000	97.874049 
2278.000000	97.870349 
2277.000000	97.866906 
2276.000000	97.864616 
2275.000000	97.863609 
2274.000000	97.863001 
2273.000000	97.861926 
2272.000000	97.860507 
2271.000000	97.859319 
2270.000000	97.858347 
2269.000000	97.857137 
2268.000000	97.855629 
2267.000000	97.854067 
2266.000000	97.852332 
2265.000000	97.850103 
2264.000000	97.847499 
2263.000000	97.844948 
2262.000000	97.842534 
2261.000000	97.840023 
2260.000000	97.837467 
2259.000000	97.835261 
2258.000000	97.833577 
2257.000000	97.832179 
2256.000000	97.830796 
2255.000000	97.829348 
2254.000000	97.827795 
2253.000000	97.826020 
2252.000000	97.823985 
2251.000000	97.821805 
2250.000000	97.819582 
2249.000000	97.817347 
2248.000000	97.815151 
2247.000000	97.813064 
2246.000000	97.811079 
2245.000000	97.809145 
2244.000000	97.807228 
2243.000000	97.805334 
2242.000000	97.803483 
2241.000000	97.801707 
2240.000000	97.800018 
2239.000000	97.798401 
2238.000000	97.796814 
2237.000000	97.795222 
2236.000000	97.793614 
2235.000000	97.791994 
2234.000000	97.790383 
2233.000000	97.788800 
2232.000000	97.787250 
2231.000000	97.785724 
2230.000000	97.784211 
2229.000000	97.782711 
2228.000000	97.781224 
2227.000000	97.779754 
2226.000000	97.778295 
2225.000000	97.776827 
2224.000000	97.775303 
2223.000000	97.773695 
2222.000000	97.772043 
2221.000000	97.770431 
2220.000000	97.768853 
2219.000000	97.767223 
2218.000000	97.765503 
2217.000000	97.763754 
2216.000000	97.762063 
2215.000000	97.760451 
2214.000000	97.758829 
2213.000000	97.757083 
2212.000000	97.755196 
2211.000000	97.753324 
2210.000000	97.751694 
2209.000000	97.750396 
2208.000000	97.749313 
2207.000000	97.748271 
2206.000000	97.747245 
2205.000000	97.746325 
2204.000000	97.745563 
2203.000000	97.744913 
2202.000000	97.744242 
2201.000000	97.743179 
2200.000000	97.741132 
2199.000000	97.737797 
2198.000000	97.733731 
2197.000000	97.730262 
2196.000000	97.728388 
2195.000000	97.727938 
2194.000000	97.727929 
2193.000000	97.727721 
2192.000000	97.727494 
2191.000000	97.727359 
2190.000000	97.726503 
2189.000000	97.724052 
2188.000000	97.720536 
2187.000000	97.717189 
2186.000000	97.713494 
2185.000000	97.707408 
2184.000000	97.699422 
2183.000000	97.694388 
2182.000000	97.696539 
2181.000000	97.704054 
2180.000000	97.710115 
2179.000000	97.710409 
2178.000000	97.706525 
2177.000000	97.702273 
2176.000000	97.699575 
2175.000000	97.698585 
2174.000000	97.699275 
2173.000000	97.701390 
2172.000000	97.704714 
2171.000000	97.710156 
2170.000000	97.718287 
2169.000000	97.726227 
2168.000000	97.729040 
2167.000000	97.725515 
2166.000000	97.719668 
2165.000000	97.714692 
2164.000000	97.708180 
2163.000000	97.696413 
2162.000000	97.681190 
2161.000000	97.669038 
2160.000000	97.664450 
2159.000000	97.667214 
2158.000000	97.675400 
2157.000000	97.687488 
2156.000000	97.701451 
2155.000000	97.714363 
2154.000000	97.723670 
2153.000000	97.728384 
2152.000000	97.729409 
2151.000000	97.728694 
2150.000000	97.727522 
2149.000000	97.725904 
2148.000000	97.724414 
2147.000000	97.725817 
2146.000000	97.733099 
2145.000000	97.746031 
2144.000000	97.761237 
2143.000000	97.775387 
2142.000000	97.786525 
2141.000000	97.793075 
2140.000000	97.794525 
2139.000000	97.793781 
2138.000000	97.796041 
2137.000000	97.803445 
2136.000000	97.812371 
2135.000000	97.817112 
2134.000000	97.815328 
2133.000000	97.809678 
2132.000000	97.805403 
2131.000000	97.806170 
2130.000000	97.811267 
2129.000000	97.816414 
2128.000000	97.818126 
2127.000000	97.817497 
2126.000000	97.818884 
2125.000000	97.824822 
2124.000000	97.833130 
2123.000000	97.839174 
2122.000000	97.840052 
2121.000000	97.836410 
2120.000000	97.831405 
2119.000000	97.828180 
2118.000000	97.827683 
2117.000000	97.828604 
2116.000000	97.829118 
2115.000000	97.828452 
2114.000000	97.826881 
2113.000000	97.825052 
2112.000000	97.823915 
2111.000000	97.824657 
2110.000000	97.827627 
2109.000000	97.831679 
2108.000000	97.835432 
2107.000000	97.838680 
2106.000000	97.841693 
2105.000000	97.843973 
2104.000000	97.844963 
2103.000000	97.845317 
2102.000000	97.845855 
2101.000000	97.845505 
2100.000000	97.842313 
2099.000000	97.836782 
2098.000000	97.832590 
2097.000000	97.832895 
2096.000000	97.837313 
2095.000000	97.842832 
2094.000000	97.846808 
2093.000000	97.848534 
2092.000000	97.848462 
2091.000000	97.847522 
2090.000000	97.847020 
2089.000000	97.847965 
2088.000000	97.849965 
2087.000000	97.851232 
2086.000000	97.850120 
2085.000000	97.846747 
2084.000000	97.843090 
2083.000000	97.841080 
2082.000000	97.840552 
2081.000000	97.839662 
2080.000000	97.837495 
2079.000000	97.835343 
2078.000000	97.834626 
2077.000000	97.834517 
2076.000000	97.833263 
2075.000000	97.831287 
2074.000000	97.830666 
2073.000000	97.831239 
2072.000000	97.829674 
2071.000000	97.823628 
2070.000000	97.814854 
2069.000000	97.807024 
2068.000000	97.802071 
2067.000000	97.799591 
2066.000000	97.798557 
2065.000000	97.798101 
2064.000000	97.797219 
2063.000000	97.795266 
2062.000000	97.792845 
2061.000000	97.791394 
2060.000000	97.791670 
2059.000000	97.793001 
2058.000000	97.793707 
2057.000000	97.792313 
2056.000000	97.788591 
2055.000000	97.783584 
2054.000000	97.778862 
2053.000000	97.775359 
2052.000000	97.772936 
2051.000000	97.770853 
2050.000000	97.768439 
2049.000000	97.765471 
2048.000000	97.762217 
2047.000000	97.759228 
2046.000000	97.756930 
2045.000000	97.755294 
2044.000000	97.753957 
2043.000000	97.752688 
2042.000000	97.751615 
2041.000000	97.750895 
2040.000000	97.750393 
2039.000000	97.749817 
2038.000000	97.748978 
2037.000000	97.747864 
2036.000000	97.746570 
2035.000000	97.745246 
2034.000000	97.744081 
2033.000000	97.743242 
2032.000000	97.742749 
2031.000000	97.742443 
2030.000000	97.742067 
2029.000000	97.741467 
2028.000000	97.740680 
2027.000000	97.739873 
2026.000000	97.739247 
2025.000000	97.738854 
2024.000000	97.738622 
2023.000000	97.738471 
2022.000000	97.738365 
2021.000000	97.738265 
2020.000000	97.738061 
2019.000000	97.737627 
2018.000000	97.736923 
2017.000000	97.736022 
2016.000000	97.735091 
2015.000000	97.734260 
2014.000000	97.733563 
2013.000000	97.732912 
2012.000000	97.732206 
2011.000000	97.731510 
2010.000000	97.731027 
2009.000000	97.730837 
2008.000000	97.730773 
2007.000000	97.730591 
2006.000000	97.730206 
2005.000000	97.729655 
2004.000000	97.728982 
2003.000000	97.728336 
2002.000000	97.728038 
2001.000000	97.728242 
2000.000000	97.728497 
1999.000000	97.728020 
1998.000000	97.726501 
1997.000000	97.724451 
1996.000000	97.722748 
1995.000000	97.721882 
1994.000000	97.721736 
1993.000000	97.721766 
1992.000000	97.721431 
1991.000000	97.720702 
1990.000000	97.720196 
1989.000000	97.720583 
1988.000000	97.721694 
1987.000000	97.722338 
1986.000000	97.721328 
1985.000000	97.718735 
1984.000000	97.715940 
1983.000000	97.714232 
1982.000000	97.713596 
1981.000000	97.712972 
1980.000000	97.711744 
1979.000000	97.710537 
1978.000000	97.710115 
1977.000000	97.710213 
1976.000000	97.710208 
1975.000000	97.710385 
1974.000000	97.711646 
1973.000000	97.714282 
1972.000000	97.717674 
1971.000000	97.721028 
1970.000000	97.723794 
1969.000000	97.725472 
1968.000000	97.725765 
1967.000000	97.725151 
1966.000000	97.724980 
1965.000000	97.726427 
1964.000000	97.729602 
1963.000000	97.733728 
1962.000000	97.737775 
1961.000000	97.740887 
1960.000000	97.742562 
1959.000000	97.742827 
1958.000000	97.742519 
1957.000000	97.743007 
1956.000000	97.745110 
1955.000000	97.748498 
1954.000000	97.751994 
1953.000000	97.754659 
1952.000000	97.756462 
1951.000000	97.757885 
1950.000000	97.759382 
1949.000000	97.761291 
1948.000000	97.763891 
1947.000000	97.767192 
1946.000000	97.770695 
1945.000000	97.773734 
1944.000000	97.776074 
1943.000000	97.777995 
1942.000000	97.779862 
1941.000000	97.781709 
1940.000000	97.783347 
1939.000000	97.784638 
1938.000000	97.785659 
1937.000000	97.786856 
1936.000000	97.788804 
1935.000000	97.791572 
1934.000000	97.794513 
1933.000000	97.797062 
1932.000000	97.799497 
1931.000000	97.802498 
1930.000000	97.806154 
1929.000000	97.809551 
1928.000000	97.811808 
1927.000000	97.813056 
1926.000000	97.814041 
1925.000000	97.815125 
1924.000000	97.816198 
1923.000000	97.817524 
1922.000000	97.819568 
1921.000000	97.821977 
1920.000000	97.823892 
1919.000000	97.825006 
1918.000000	97.825491 
1917.000000	97.825247 
1916.000000	97.824220 
1915.000000	97.823499 
1914.000000	97.824501 
1913.000000	97.827168 
1912.000000	97.830114 
1911.000000	97.832639 
1910.000000	97.835227 
1909.000000	97.837866 
1908.000000	97.839712 
1907.000000	97.840306 
1906.000000	97.839991 
1905.000000	97.839109 
1904.000000	97.837739 
1903.000000	97.836660 
1902.000000	97.836951 
1901.000000	97.838476 
1900.000000	97.840142 
1899.000000	97.841438 
1898.000000	97.842699 
1897.000000	97.843878 
1896.000000	97.843997 
1895.000000	97.842560 
1894.000000	97.840435 
1893.000000	97.838905 
1892.000000	97.838416 
1891.000000	97.838674 
1890.000000	97.839285 
1889.000000	97.840000 
1888.000000	97.840758 
1887.000000	97.841680 
1886.000000	97.842770 
1885.000000	97.843610 
1884.000000	97.843763 
1883.000000	97.843439 
1882.000000	97.843455 
1881.000000	97.844332 
1880.000000	97.845894 
1879.000000	97.847543 
1878.000000	97.848755 
1877.000000	97.849445 
1876.000000	97.849883 
1875.000000	97.850464 
1874.000000	97.851388 
1873.000000	97.852490 
1872.000000	97.853443 
1871.000000	97.854128 
1870.000000	97.854742 
1869.000000	97.855566 
1868.000000	97.856669 
1867.000000	97.857975 
1866.000000	97.859392 
1865.000000	97.860726 
1864.000000	97.861804 
1863.000000	97.862800 
1862.000000	97.864153 
1861.000000	97.866020 
1860.000000	97.868091 
1859.000000	97.870115 
1858.000000	97.872236 
1857.000000	97.874552 
1856.000000	97.876855 
1855.000000	97.878934 
1854.000000	97.880757 
1853.000000	97.882293 
1852.000000	97.883628 
1851.000000	97.885156 
1850.000000	97.887212 
1849.000000	97.889709 
1848.000000	97.892193 
1847.000000	97.894419 
1846.000000	97.896535 
1845.000000	97.898628 
1844.000000	97.900444 
1843.000000	97.901836 
1842.000000	97.903054 
1841.000000	97.904367 
1840.000000	97.905981 
1839.000000	97.908099 
1838.000000	97.910707 
1837.000000	97.913241 
1836.000000	97.915011 
1835.000000	97.916163 
1834.000000	97.917528 
1833.000000	97.919433 
1832.000000	97.921488 
1831.000000	97.923038 
1830.000000	97.923697 
1829.000000	97.923951 
1828.000000	97.924674 
1827.000000	97.926254 
1826.000000	97.928469 
1825.000000	97.930620 
1824.000000	97.931977 
1823.000000	97.932367 
1822.000000	97.932354 
1821.000000	97.932434 
1820.000000	97.932375 
1819.000000	97.931754 
1818.000000	97.931096 
1817.000000	97.931403 
1816.000000	97.932403 
1815.000000	97.933296 
1814.000000	97.934378 
1813.000000	97.936621 
1812.000000	97.939524 
1811.000000	97.940731 
1810.000000	97.939650 
1809.000000	97.938312 
1808.000000	97.937870 
1807.000000	97.937656 
1806.000000	97.937557 
1805.000000	97.938230 
1804.000000	97.939113 
1803.000000	97.938744 
1802.000000	97.936784 
1801.000000	97.934905 
1800.000000	97.934415 
1799.000000	97.934499 
1798.000000	97.934710 
1797.000000	97.935073 
1796.000000	97.934715 
1795.000000	97.933494 
1794.000000	97.932863 
1793.000000	97.934036 
1792.000000	97.935533 
1791.000000	97.935280 
1790.000000	97.934905 
1789.000000	97.936892 
1788.000000	97.940793 
1787.000000	97.944237 
1786.000000	97.946055 
1785.000000	97.946764 
1784.000000	97.946717 
1783.000000	97.946639 
1782.000000	97.947319 
1781.000000	97.948700 
1780.000000	97.950220 
1779.000000	97.951394 
1778.000000	97.953082 
1777.000000	97.955594 
1776.000000	97.957734 
1775.000000	97.958541 
1774.000000	97.957910 
1773.000000	97.956981 
1772.000000	97.957465 
1771.000000	97.958907 
1770.000000	97.959852 
1769.000000	97.961119 
1768.000000	97.964043 
1767.000000	97.967857 
1766.000000	97.970835 
1765.000000	97.973171 
1764.000000	97.976387 
1763.000000	97.980012 
1762.000000	97.981565 
1761.000000	97.980892 
1760.000000	97.980433 
1759.000000	97.981241 
1758.000000	97.982213 
1757.000000	97.981776 
1756.000000	97.981146 
1755.000000	97.981647 
1754.000000	97.981794 
1753.000000	97.979802 
1752.000000	97.976659 
1751.000000	97.975726 
1750.000000	97.978296 
1749.000000	97.982143 
1748.000000	97.985095 
1747.000000	97.987567 
1746.000000	97.989671 
1745.000000	97.991361 
1744.000000	97.993436 
1743.000000	97.995449 
1742.000000	97.995933 
1741.000000	97.995171 
1740.000000	97.994902 
1739.000000	97.995648 
1738.000000	97.995784 
1737.000000	97.994875 
1736.000000	97.994239 
1735.000000	97.994456 
1734.000000	97.994674 
1733.000000	97.994268 
1732.000000	97.994344 
1731.000000	97.996813 
1730.000000	98.001886 
1729.000000	98.006241 
1728.000000	98.007767 
1727.000000	98.007370 
1726.000000	98.006727 
1725.000000	98.006423 
1724.000000	98.006236 
1723.000000	98.005735 
1722.000000	98.005347 
1721.000000	98.005355 
1720.000000	98.005653 
1719.000000	98.005400 
1718.000000	98.004214 
1717.000000	98.003424 
1716.000000	98.002335 
1715.000000	97.999829 
1714.000000	97.997818 
1713.000000	97.997288 
1712.000000	97.996813 
1711.000000	97.995669 
1710.000000	97.994461 
1709.000000	97.993324 
1708.000000	97.991866 
1707.000000	97.990201 
1706.000000	97.988931 
1705.000000	97.987962 
1704.000000	97.985999 
1703.000000	97.982899 
1702.000000	97.979672 
1701.000000	97.977500 
1700.000000	97.976196 
1699.000000	97.974491 
1698.000000	97.972605 
1697.000000	97.971249 
1696.000000	97.970119 
1695.000000	97.968668 
1694.000000	97.966930 
1693.000000	97.965147 
1692.000000	97.963378 
1691.000000	97.961557 
1690.000000	97.959662 
1689.000000	97.957715 
1688.000000	97.955751 
1687.000000	97.953794 
1686.000000	97.951841 
1685.000000	97.949898 
1684.000000	97.947952 
1683.000000	97.945986 
1682.000000	97.944003 
1681.000000	97.942011 
1680.000000	97.940016 
1679.000000	97.938023 
1678.000000	97.936033 
1677.000000	97.934051 
1676.000000	97.932088 
1675.000000	97.930146 
1674.000000	97.928222 
1673.000000	97.926314 
1672.000000	97.924434 
1671.000000	97.922590 
1670.000000	97.920780 
1669.000000	97.918993 
1668.000000	97.917225 
1667.000000	97.915490 
1666.000000	97.913821 
1665.000000	97.912236 
1664.000000	97.910755 
1663.000000	97.909403 
1662.000000	97.908085 
1661.000000	97.906451 
1660.000000	97.904557 
1659.000000	97.902969 
1658.000000	97.902029 
1657.000000	97.901048 
1656.000000	97.899817 
1655.000000	97.898747 
1654.000000	97.897804 
1653.000000	97.895974 
1652.000000	97.892961 
1651.000000	97.889351 
1650.000000	97.885347 
1649.000000	97.883251 
1648.000000	97.882686 
1647.000000	97.882630 
1646.000000	97.881859 
1645.000000	97.881282 
1644.000000	97.879856 
1643.000000	97.877941 
1642.000000	97.876616 
1641.000000	97.876107 
1640.000000	97.875469 
1639.000000	97.873453 
1638.000000	97.870569 
1637.000000	97.868141 
1636.000000	97.866909 
1635.000000	97.868393 
1634.000000	97.871623 
1633.000000	97.873325 
1632.000000	97.872447 
1631.000000	97.870778 
1630.000000	97.870712 
1629.000000	97.871792 
1628.000000	97.872064 
1627.000000	97.872110 
1626.000000	97.873447 
1625.000000	97.875545 
1624.000000	97.877334 
1623.000000	97.879569 
1622.000000	97.882914 
1621.000000	97.884631 
1620.000000	97.883805 
1619.000000	97.883355 
1618.000000	97.885738 
1617.000000	97.888425 
1616.000000	97.887883 
1615.000000	97.886875 
1614.000000	97.887851 
1613.000000	97.889127 
1612.000000	97.888881 
1611.000000	97.888874 
1610.000000	97.891405 
1609.000000	97.895411 
1608.000000	97.899588 
1607.000000	97.905079 
1606.000000	97.910933 
1605.000000	97.913820 
1604.000000	97.914786 
1603.000000	97.917716 
1602.000000	97.922867 
1601.000000	97.926670 
1600.000000	97.928057 
1599.000000	97.930098 
1598.000000	97.934299 
1597.000000	97.938889 
1596.000000	97.942582 
1595.000000	97.946669 
1594.000000	97.951991 
1593.000000	97.956303 
1592.000000	97.957781 
1591.000000	97.958151 
1590.000000	97.959563 
1589.000000	97.961323 
1588.000000	97.963082 
1587.000000	97.967083 
1586.000000	97.973653 
1585.000000	97.977985 
1584.000000	97.978175 
1583.000000	97.979247 
1582.000000	97.983511 
1581.000000	97.986765 
1580.000000	97.986361 
1579.000000	97.986160 
1578.000000	97.989759 
1577.000000	97.994739 
1576.000000	97.996992 
1575.000000	97.999190 
1574.000000	98.002200 
1573.000000	98.003301 
1572.000000	98.005024 
1571.000000	98.010333 
1570.000000	98.016003 
1569.000000	98.012994 
1568.000000	98.004239 
1567.000000	97.999395 
1566.000000	98.000384 
1565.000000	98.001547 
1564.000000	98.001878 
1563.000000	98.002216 
1562.000000	98.002797 
1561.000000	97.999789 
1560.000000	97.995472 
1559.000000	97.990930 
1558.000000	97.987029 
1557.000000	97.985080 
1556.000000	97.978715 
1555.000000	97.977190 
1554.000000	97.975493 
1553.000000	97.974313 
1552.000000	97.973282 
1551.000000	97.971968 
1550.000000	97.965686 
1549.000000	97.955067 
1548.000000	97.945251 
1547.000000	97.940252 
1546.000000	97.937421 
1545.000000	97.931838 
1544.000000	97.923082 
1543.000000	97.914315 
1542.000000	97.908934 
1541.000000	97.907581 
1540.000000	97.902100 
1539.000000	97.892415 
1538.000000	97.883269 
1537.000000	97.871674 
1536.000000	97.859035 
1535.000000	97.849109 
1534.000000	97.843697 
1533.000000	97.840045 
1532.000000	97.834997 
1531.000000	97.826226 
1530.000000	97.816408 
1529.000000	97.808447 
1528.000000	97.800736 
1527.000000	97.790931 
1526.000000	97.779174 
1525.000000	97.767694 
1524.000000	97.758465 
1523.000000	97.751541 
1522.000000	97.744817 
1521.000000	97.735559 
1520.000000	97.723121 
1519.000000	97.709308 
1518.000000	97.696484 
1517.000000	97.685597 
1516.000000	97.675794 
1515.000000	97.667038 
1514.000000	97.659657 
1513.000000	97.654012 
1512.000000	97.648319 
1511.000000	97.638867 
1510.000000	97.625188 
1509.000000	97.610984 
1508.000000	97.599458 
1507.000000	97.587028 
1506.000000	97.574618 
1505.000000	97.565990 
1504.000000	97.557491 
1503.000000	97.548051 
1502.000000	97.537582 
1501.000000	97.527418 
1500.000000	97.518599 
1499.000000	97.510298 
1498.000000	97.499388 
1497.000000	97.486808 
1496.000000	97.476270 
1495.000000	97.468016 
1494.000000	97.460854 
1493.000000	97.455645 
1492.000000	97.453705 
1491.000000	97.453476 
1490.000000	97.450828 
1489.000000	97.444399 
1488.000000	97.434288 
1487.000000	97.420407 
1486.000000	97.406676 
1485.000000	97.394126 
1484.000000	97.381370 
1483.000000	97.369254 
1482.000000	97.358843 
1481.000000	97.350301 
1480.000000	97.341819 
1479.000000	97.332473 
1478.000000	97.323232 
1477.000000	97.315051 
1476.000000	97.305205 
1475.000000	97.290819 
1474.000000	97.274298 
1473.000000	97.261941 
1472.000000	97.257544 
1471.000000	97.256464 
1470.000000	97.253400 
1469.000000	97.248374 
1468.000000	97.242171 
1467.000000	97.234038 
1466.000000	97.224800 
1465.000000	97.216903 
1464.000000	97.211800 
1463.000000	97.205611 
1462.000000	97.195106 
1461.000000	97.183479 
1460.000000	97.176090 
1459.000000	97.174386 
1458.000000	97.169311 
1457.000000	97.154683 
1456.000000	97.140450 
1455.000000	97.131013 
1454.000000	97.120480 
1453.000000	97.111282 
1452.000000	97.107372 
1451.000000	97.109159 
1450.000000	97.113626 
1449.000000	97.120861 
1448.000000	97.130072 
1447.000000	97.136746 
1446.000000	97.137058 
1445.000000	97.133104 
1444.000000	97.130789 
1443.000000	97.129971 
1442.000000	97.126849 
1441.000000	97.120607 
1440.000000	97.114625 
1439.000000	97.110606 
1438.000000	97.106313 
1437.000000	97.101999 
1436.000000	97.101863 
1435.000000	97.104379 
1434.000000	97.104438 
1433.000000	97.104508 
1432.000000	97.108134 
1431.000000	97.114080 
1430.000000	97.117892 
1429.000000	97.119399 
1428.000000	97.120758 
1427.000000	97.122100 
1426.000000	97.122549 
1425.000000	97.122377 
1424.000000	97.125281 
1423.000000	97.129874 
1422.000000	97.130792 
1421.000000	97.129060 
1420.000000	97.131600 
1419.000000	97.135712 
1418.000000	97.129410 
1417.000000	97.115471 
1416.000000	97.107318 
1415.000000	97.108830 
1414.000000	97.111428 
1413.000000	97.108053 
1412.000000	97.102189 
1411.000000	97.099732 
1410.000000	97.099781 
1409.000000	97.101098 
1408.000000	97.105905 
1407.000000	97.115473 
1406.000000	97.127157 
1405.000000	97.138400 
1404.000000	97.152035 
1403.000000	97.167846 
1402.000000	97.181403 
1401.000000	97.193723 
1400.000000	97.210689 
1399.000000	97.232112 
1398.000000	97.247609 
1397.000000	97.249960 
1396.000000	97.244185 
1395.000000	97.242582 
1394.000000	97.252198 
1393.000000	97.271785 
1392.000000	97.298929 
1391.000000	97.329733 
1390.000000	97.357829 
1389.000000	97.377875 
1388.000000	97.388478 
1387.000000	97.392294 
1386.000000	97.394194 
1385.000000	97.398978 
1384.000000	97.410133 
1383.000000	97.426952 
1382.000000	97.444737 
1381.000000	97.460097 
1380.000000	97.473201 
1379.000000	97.486576 
1378.000000	97.502315 
1377.000000	97.520855 
1376.000000	97.540926 
1375.000000	97.559847 
1374.000000	97.574939 
1373.000000	97.587465 
1372.000000	97.601901 
1371.000000	97.621063 
1370.000000	97.643245 
1369.000000	97.662870 
1368.000000	97.678002 
1367.000000	97.691520 
1366.000000	97.706546 
1365.000000	97.723924 
1364.000000	97.741522 
1363.000000	97.755219 
1362.000000	97.763658 
1361.000000	97.770551 
1360.000000	97.780731 
1359.000000	97.796229 
1358.000000	97.815072 
1357.000000	97.832950 
1356.000000	97.846991 
1355.000000	97.857145 
1354.000000	97.865208 
1353.000000	97.874181 
1352.000000	97.885003 
1351.000000	97.896771 
1350.000000	97.908664 
1349.000000	97.918110 
1348.000000	97.924189 
1347.000000	97.928813 
1346.000000	97.934920 
1345.000000	97.943048 
1344.000000	97.951812 
1343.000000	97.960480 
1342.000000	97.969640 
1341.000000	97.978554 
1340.000000	97.984485 
1339.000000	97.986187 
1338.000000	97.985653 
1337.000000	97.985790 
1336.000000	97.987746 
1335.000000	97.990406 
1334.000000	97.992387 
1333.000000	97.993900 
1332.000000	97.995891 
1331.000000	97.998552 
1330.000000	98.000988 
1329.000000	98.002308 
1328.000000	98.002833 
1327.000000	98.004179 
1326.000000	98.007066 
1325.000000	98.009340 
1324.000000	98.009296 
1323.000000	98.007276 
1322.000000	98.004331 
1321.000000	98.001185 
1320.000000	97.999065 
1319.000000	97.999369 
1318.000000	98.002092 
1317.000000	98.005794 
1316.000000	98.008626 
1315.000000	98.008695 
1314.000000	98.004802 
1313.000000	97.999031 
1312.000000	97.996589 
1311.000000	98.000484 
1310.000000	98.007361 
1309.000000	98.011226 
1308.000000	98.010072 
1307.000000	98.007149 
1306.000000	98.006266 
1305.000000	98.007622 
1304.000000	98.009790 
1303.000000	98.011519 
1302.000000	98.011676 
1301.000000	98.009658 
1300.000000	98.007072 
1299.000000	98.006676 
1298.000000	98.008880 
1297.000000	98.010797 
1296.000000	98.009506 
1295.000000	98.005426 
1294.000000	98.001544 
1293.000000	98.000599 
1292.000000	98.003216 
1291.000000	98.007650 
1290.000000	98.011144 
1289.000000	98.012229 
1288.000000	98.011572 
1287.000000	98.010358 
1286.000000	98.008532 
1285.000000	98.005777 
1284.000000	98.003267 
1283.000000	98.002365 
1282.000000	98.002245 
1281.000000	98.000632 
1280.000000	97.997073 
1279.000000	97.994046 
1278.000000	97.994281 
1277.000000	97.998272 
1276.000000	98.004243 
1275.000000	98.009595 
1274.000000	98.012040 
1273.000000	98.010803 
1272.000000	98.007179 
1271.000000	98.003022 
1270.000000	97.998560 
1269.000000	97.992765 
1268.000000	97.985763 
1267.000000	97.978774 
1266.000000	97.971593 
1265.000000	97.963142 
1264.000000	97.954684 
1263.000000	97.949424 
1262.000000	97.947925 
1261.000000	97.946361 
1260.000000	97.941442 
1259.000000	97.935236 
1258.000000	97.932065 
1257.000000	97.932118 
1256.000000	97.930675 
1255.000000	97.923997 
1254.000000	97.913958 
1253.000000	97.905347 
1252.000000	97.899346 
1251.000000	97.892311 
1250.000000	97.881751 
1249.000000	97.871372 
1248.000000	97.867616 
1247.000000	97.871337 
1246.000000	97.875365 
1245.000000	97.871730 
1244.000000	97.859121 
1243.000000	97.842677 
1242.000000	97.829171 
1241.000000	97.823500 
1240.000000	97.826561 
1239.000000	97.833488 
1238.000000	97.835781 
1237.000000	97.828105 
1236.000000	97.812372 
1235.000000	97.794087 
1234.000000	97.776476 
1233.000000	97.759592 
1232.000000	97.742763 
1231.000000	97.725091 
1230.000000	97.705319 
1229.000000	97.683946 
1228.000000	97.663729 
1227.000000	97.645560 
1226.000000	97.625628 
1225.000000	97.599367 
1224.000000	97.566546 
1223.000000	97.529888 
1222.000000	97.490552 
1221.000000	97.448060 
1220.000000	97.403204 
1219.000000	97.357437 
1218.000000	97.309959 
1217.000000	97.258757 
1216.000000	97.203804 
1215.000000	97.146394 
1214.000000	97.086574 
1213.000000	97.024659 
1212.000000	96.963699 
1211.000000	96.905903 
1210.000000	96.847585 
1209.000000	96.782521 
1208.000000	96.710371 
1207.000000	96.637556 
1206.000000	96.569447 
1205.000000	96.505327 
1204.000000	96.441524 
1203.000000	96.375832 
1202.000000	96.308109 
1201.000000	96.239446 
1200.000000	96.171426 
1199.000000	96.104155 
1198.000000	96.035272 
1197.000000	95.963408 
1196.000000	95.891534 
1195.000000	95.823940 
1194.000000	95.760763 
1193.000000	95.698308 
1192.000000	95.633823 
1191.000000	95.566715 
1190.000000	95.496164 
1189.000000	95.421102 
1188.000000	95.341984 
1187.000000	95.259677 
1186.000000	95.173829 
1185.000000	95.085273 
1184.000000	94.997859 
1183.000000	94.913917 
1182.000000	94.829737 
1181.000000	94.739759 
1180.000000	94.643334 
1179.000000	94.542804 
1178.000000	94.437109 
1177.000000	94.323296 
1176.000000	94.203180 
1175.000000	94.082443 
1174.000000	93.963665 
1173.000000	93.846002 
1172.000000	93.731132 
1171.000000	93.622527 
1170.000000	93.518711 
1169.000000	93.414498 
1168.000000	93.310168 
1167.000000	93.213166 
1166.000000	93.130303 
1165.000000	93.065488 
1164.000000	93.025691 
1163.000000	93.020272 
1162.000000	93.050481 
1161.000000	93.104483 
1160.000000	93.164446 
1159.000000	93.214138 
1158.000000	93.239897 
1157.000000	93.231889 
1156.000000	93.188031 
1155.000000	93.113638 
1154.000000	93.016557 
1153.000000	92.905700 
1152.000000	92.792723 
1151.000000	92.687928 
1150.000000	92.592597 
1149.000000	92.500878 
1148.000000	92.410118 
1147.000000	92.323349 
1146.000000	92.241018 
1145.000000	92.157640 
1144.000000	92.069084 
1143.000000	91.977150 
1142.000000	91.884785 
1141.000000	91.792538 
1140.000000	91.701657 
1139.000000	91.614696 
1138.000000	91.530876 
1137.000000	91.446227 
1136.000000	91.359830 
1135.000000	91.274343 
1134.000000	91.189404 
1133.000000	91.100886 
1132.000000	91.008045 
1131.000000	90.914956 
1130.000000	90.823483 
1129.000000	90.731344 
1128.000000	90.638466 
1127.000000	90.548072 
1126.000000	90.459539 
1125.000000	90.367304 
1124.000000	90.269309 
1123.000000	90.170160 
1122.000000	90.073620 
1121.000000	89.978246 
1120.000000	89.882389 
1119.000000	89.787001 
1118.000000	89.691876 
1117.000000	89.595967 
1116.000000	89.502578 
1115.000000	89.416852 
1114.000000	89.337022 
1113.000000	89.256029 
1112.000000	89.172658 
1111.000000	89.092097 
1110.000000	89.014895 
1109.000000	88.935358 
1108.000000	88.851746 
1107.000000	88.768294 
1106.000000	88.686589 
1105.000000	88.604139 
1104.000000	88.522089 
1103.000000	88.444938 
1102.000000	88.371183 
1101.000000	88.295169 
1100.000000	88.218621 
1099.000000	88.148902 
1098.000000	88.087807 
1097.000000	88.029560 
1096.000000	87.971875 
1095.000000	87.916818 
1094.000000	87.860474 
1093.000000	87.794478 
1092.000000	87.720743 
1091.000000	87.652798 
1090.000000	87.598797 
1089.000000	87.553196 
1088.000000	87.507625 
1087.000000	87.459622 
1086.000000	87.408642 
1085.000000	87.354543 
1084.000000	87.302921 
1083.000000	87.261612 
1082.000000	87.229175 
1081.000000	87.196598 
1080.000000	87.161993 
1079.000000	87.133035 
1078.000000	87.113134 
1077.000000	87.095959 
1076.000000	87.075472 
1075.000000	87.050657 
1074.000000	87.019037 
1073.000000	86.976294 
1072.000000	86.922474 
1071.000000	86.856434 
1070.000000	86.764191 
1069.000000	86.628092 
1068.000000	86.451762 
1067.000000	86.264284 
1066.000000	86.094200 
1065.000000	85.948213 
1064.000000	85.818050 
1063.000000	85.693424 
1062.000000	85.562060 
1061.000000	85.411216 
1060.000000	85.239675 
1059.000000	85.061592 
1058.000000	84.892646 
1057.000000	84.738296 
1056.000000	84.597390 
1055.000000	84.467114 
1054.000000	84.340751 
1053.000000	84.210565 
1052.000000	84.077415 
1051.000000	83.948925 
1050.000000	83.825667 
1049.000000	83.699546 
1048.000000	83.567073 
1047.000000	83.431975 
1046.000000	83.294496 
1045.000000	83.151185 
1044.000000	83.005395 
1043.000000	82.865385 
1042.000000	82.731197 
1041.000000	82.595071 
1040.000000	82.455814 
1039.000000	82.321733 
1038.000000	82.199415 
1037.000000	82.090957 
1036.000000	82.000732 
1035.000000	81.931698 
1034.000000	81.875825 
1033.000000	81.821162 
1032.000000	81.766682 
1031.000000	81.717219 
1030.000000	81.668635 
1029.000000	81.615222 
1028.000000	81.568329 
1027.000000	81.547628 
1026.000000	81.553678 
1025.000000	81.566942 
1024.000000	81.574266 
1023.000000	81.578176 
1022.000000	81.579799 
1021.000000	81.573261 
1020.000000	81.560175 
1019.000000	81.551404 
1018.000000	81.550379 
1017.000000	81.550158 
1016.000000	81.549027 
1015.000000	81.553141 
1014.000000	81.562315 
1013.000000	81.569761 
1012.000000	81.577477 
1011.000000	81.595379 
1010.000000	81.623669 
1009.000000	81.652555 
1008.000000	81.680898 
1007.000000	81.718439 
1006.000000	81.767950 
1005.000000	81.821899 
1004.000000	81.878283 
1003.000000	81.942907 
1002.000000	82.014226 
1001.000000	82.083138 
1000.000000	82.150230 
999.000000	 82.226425 
998.000000	 82.313879 
997.000000	 82.402533 
996.000000	 82.488224 
995.000000	 82.578297 
994.000000	 82.676390 
993.000000	 82.777146 
992.000000	 82.878423 
991.000000	 82.983673 
990.000000	 83.090451 
989.000000	 83.192105 
988.000000	 83.292709 
987.000000	 83.404473 
986.000000	 83.528679 
985.000000	 83.655289 
984.000000	 83.783126 
983.000000	 83.923152 
982.000000	 84.078558 
981.000000	 84.238355 
980.000000	 84.394984 
979.000000	 84.553062 
978.000000	 84.716227 
977.000000	 84.880462 
976.000000	 85.045102 
975.000000	 85.216232 
974.000000	 85.394297 
973.000000	 85.571384 
972.000000	 85.745126 
971.000000	 85.922840 
970.000000	 86.107846 
969.000000	 86.293549 
968.000000	 86.474656 
967.000000	 86.652875 
966.000000	 86.828682 
965.000000	 86.999102 
964.000000	 87.166509 
963.000000	 87.337965 
962.000000	 87.512576 
961.000000	 87.680543 
960.000000	 87.837725 
959.000000	 87.990357 
958.000000	 88.142653 
957.000000	 88.290359 
956.000000	 88.429960 
955.000000	 88.564322 
954.000000	 88.696041 
953.000000	 88.824099 
952.000000	 88.949331 
951.000000	 89.074183 
950.000000	 89.195385 
949.000000	 89.306085 
948.000000	 89.406640 
947.000000	 89.504288 
946.000000	 89.601144 
945.000000	 89.692004 
944.000000	 89.775227 
943.000000	 89.856112 
942.000000	 89.938031 
941.000000	 90.019580 
940.000000	 90.101810 
939.000000	 90.188502 
938.000000	 90.277747 
937.000000	 90.362812 
936.000000	 90.442916 
935.000000	 90.523999 
934.000000	 90.607687 
933.000000	 90.689130 
932.000000	 90.767187 
931.000000	 90.847113 
930.000000	 90.931166 
929.000000	 91.015437 
928.000000	 91.097839 
927.000000	 91.180479 
926.000000	 91.262117 
925.000000	 91.336376 
924.000000	 91.399616 
923.000000	 91.454196 
922.000000	 91.503717 
921.000000	 91.551898 
920.000000	 91.605136 
919.000000	 91.667514 
918.000000	 91.732917 
917.000000	 91.790252 
916.000000	 91.837385 
915.000000	 91.883131 
914.000000	 91.935990 
913.000000	 91.998195 
912.000000	 92.069740 
911.000000	 92.149990 
910.000000	 92.235683 
909.000000	 92.324848 
908.000000	 92.421604 
907.000000	 92.530018 
906.000000	 92.646025 
905.000000	 92.763287 
904.000000	 92.883232 
903.000000	 93.009824 
902.000000	 93.138504 
901.000000	 93.261475 
900.000000	 93.381056 
899.000000	 93.506407 
898.000000	 93.638822 
897.000000	 93.770408 
896.000000	 93.895201 
895.000000	 94.010979 
894.000000	 94.113352 
893.000000	 94.200242 
892.000000	 94.280661 
891.000000	 94.366980 
890.000000	 94.458140 
889.000000	 94.540625 
888.000000	 94.604782 
887.000000	 94.650287 
886.000000	 94.678936 
885.000000	 94.694026 
884.000000	 94.704502 
883.000000	 94.716635 
882.000000	 94.723500 
881.000000	 94.717330 
880.000000	 94.710809 
879.000000	 94.728784 
878.000000	 94.777587 
877.000000	 94.840033 
876.000000	 94.903244 
875.000000	 94.973603 
874.000000	 95.059332 
873.000000	 95.157236 
872.000000	 95.264335 
871.000000	 95.386098 
870.000000	 95.523941 
869.000000	 95.666894 
868.000000	 95.803212 
867.000000	 95.930350 
866.000000	 96.048655 
865.000000	 96.156163 
864.000000	 96.255593 
863.000000	 96.357065 
862.000000	 96.467033 
861.000000	 96.580705 
860.000000	 96.689429 
859.000000	 96.789090 
858.000000	 96.878964 
857.000000	 96.960015 
856.000000	 97.036987 
855.000000	 97.114600 
854.000000	 97.188961 
853.000000	 97.250125 
852.000000	 97.295479 
851.000000	 97.333677 
850.000000	 97.374183 
849.000000	 97.420509 
848.000000	 97.474179 
847.000000	 97.535675 
846.000000	 97.599299 
845.000000	 97.655899 
844.000000	 97.702755 
843.000000	 97.743248 
842.000000	 97.776818 
841.000000	 97.798505 
840.000000	 97.808769 
839.000000	 97.813729 
838.000000	 97.814985 
837.000000	 97.810051 
836.000000	 97.804440 
835.000000	 97.811223 
834.000000	 97.833804 
833.000000	 97.859286 
832.000000	 97.874245 
831.000000	 97.878472 
830.000000	 97.878882 
829.000000	 97.879346 
828.000000	 97.883140 
827.000000	 97.897210 
826.000000	 97.925520 
825.000000	 97.962772 
824.000000	 97.999661 
823.000000	 98.029199 
822.000000	 98.046134 
821.000000	 98.048504 
820.000000	 98.041770 
819.000000	 98.032975 
818.000000	 98.018584 
817.000000	 97.985125 
816.000000	 97.923550 
815.000000	 97.836661 
814.000000	 97.730716 
813.000000	 97.605180 
812.000000	 97.451617 
811.000000	 97.256115 
810.000000	 97.001906 
809.000000	 96.677532 
808.000000	 96.286164 
807.000000	 95.843081 
806.000000	 95.364366 
805.000000	 94.864556 
804.000000	 94.364197 
803.000000	 93.888071 
802.000000	 93.453076 
801.000000	 93.068903 
800.000000	 92.751883 
799.000000	 92.522880 
798.000000	 92.386483 
797.000000	 92.326095 
796.000000	 92.323717 
795.000000	 92.370301 
794.000000	 92.453391 
793.000000	 92.551458 
792.000000	 92.647337 
791.000000	 92.734791 
790.000000	 92.807415 
789.000000	 92.853023 
788.000000	 92.862408 
787.000000	 92.832406 
786.000000	 92.758459 
785.000000	 92.636007 
784.000000	 92.471822 
783.000000	 92.283396 
782.000000	 92.086576 
781.000000	 91.896217 
780.000000	 91.737483 
779.000000	 91.638177 
778.000000	 91.605880 
777.000000	 91.628304 
776.000000	 91.698369 
775.000000	 91.820656 
774.000000	 91.989514 
773.000000	 92.180829 
772.000000	 92.373355 
771.000000	 92.562590 
770.000000	 92.748010 
769.000000	 92.922677 
768.000000	 93.081584 
767.000000	 93.225419 
766.000000	 93.350600 
765.000000	 93.450553 
764.000000	 93.532676 
763.000000	 93.618714 
762.000000	 93.720806 
761.000000	 93.829905 
760.000000	 93.933633 
759.000000	 94.031639 
758.000000	 94.127563 
757.000000	 94.221500 
756.000000	 94.318919 
755.000000	 94.432363 
754.000000	 94.562817 
753.000000	 94.689804 
752.000000	 94.790285 
751.000000	 94.860433 
750.000000	 94.914241 
749.000000	 94.969906 
748.000000	 95.041738 
747.000000	 95.133512 
746.000000	 95.232190 
745.000000	 95.317719 
744.000000	 95.385813 
743.000000	 95.453171 
742.000000	 95.535942 
741.000000	 95.632606 
740.000000	 95.732346 
739.000000	 95.829183 
738.000000	 95.921608 
737.000000	 96.007181 
736.000000	 96.083955 
735.000000	 96.151449 
734.000000	 96.207947 
733.000000	 96.253650 
732.000000	 96.296146 
731.000000	 96.343152 
730.000000	 96.389748 
729.000000	 96.423911 
728.000000	 96.445165 
727.000000	 96.466872 
726.000000	 96.500225 
725.000000	 96.546831 
724.000000	 96.606054 
723.000000	 96.675855 
722.000000	 96.744832 
721.000000	 96.797698 
720.000000	 96.833149 
719.000000	 96.864248 
718.000000	 96.897712 
717.000000	 96.927103 
716.000000	 96.948985 
715.000000	 96.969785 
714.000000	 96.993448 
713.000000	 97.018156 
712.000000	 97.049940 
711.000000	 97.102828 
710.000000	 97.177577 
709.000000	 97.254924 
708.000000	 97.317328 
707.000000	 97.364123 
706.000000	 97.399711 
705.000000	 97.420408 
704.000000	 97.419875 
703.000000	 97.394351 
702.000000	 97.332558 
701.000000	 97.212930 
700.000000	 97.022436 
699.000000	 96.771002 
698.000000	 96.484208 
697.000000	 96.194250 
696.000000	 95.943339 
695.000000	 95.778802 
694.000000	 95.727765 
693.000000	 95.781094 
692.000000	 95.907019 
691.000000	 96.071017 
690.000000	 96.241938 
689.000000	 96.394975 
688.000000	 96.521141 
687.000000	 96.628120 
686.000000	 96.724290 
685.000000	 96.811362 
684.000000	 96.894414 
683.000000	 96.981330 
682.000000	 97.067965 
681.000000	 97.140300 
680.000000	 97.196535 
679.000000	 97.250976 
678.000000	 97.310145 
677.000000	 97.365828 
676.000000	 97.417005 
675.000000	 97.475516 
674.000000	 97.542027 
673.000000	 97.596010 
672.000000	 97.618878 
671.000000	 97.609057 
670.000000	 97.576334 
669.000000	 97.536132 
668.000000	 97.526503 
667.000000	 97.601330 
666.000000	 97.727003 
665.000000	 97.818071 
664.000000	 97.860822 
663.000000	 97.882710 
662.000000	 97.910390 
661.000000	 97.945472 
660.000000	 97.982319 
659.000000	 98.025614 
658.000000	 98.072998 
657.000000	 98.102377 
656.000000	 98.096204 
655.000000	 98.062731 
654.000000	 98.020713 
653.000000	 97.977803 
652.000000	 97.941494 
651.000000	 97.934988 
650.000000	 97.971253 

