4000.000000	97.786670 
3999.000000	97.785922 
3998.000000	97.784628 
3997.000000	97.782574 
3996.000000	97.780337 
3995.000000	97.778897 
3994.000000	97.778601 
3993.000000	97.779130 
3992.000000	97.779721 
3991.000000	97.779779 
3990.000000	97.779273 
3989.000000	97.778410 
3988.000000	97.777425 
3987.000000	97.776474 
3986.000000	97.775627 
3985.000000	97.774966 
3984.000000	97.774571 
3983.000000	97.774411 
3982.000000	97.774308 
3981.000000	97.774017 
3980.000000	97.773364 
3979.000000	97.772324 
3978.000000	97.771125 
3977.000000	97.770215 
3976.000000	97.769920 
3975.000000	97.770142 
3974.000000	97.770336 
3973.000000	97.770015 
3972.000000	97.769171 
3971.000000	97.768178 
3970.000000	97.767378 
3969.000000	97.766843 
3968.000000	97.766468 
3967.000000	97.766077 
3966.000000	97.765488 
3965.000000	97.764557 
3964.000000	97.763208 
3963.000000	97.761495 
3962.000000	97.759693 
3961.000000	97.758311 
3960.000000	97.757787 
3959.000000	97.758145 
3958.000000	97.759028 
3957.000000	97.760088 
3956.000000	97.761068 
3955.000000	97.761513 
3954.000000	97.760873 
3953.000000	97.758893 
3952.000000	97.755874 
3951.000000	97.752579 
3950.000000	97.749776 
3949.000000	97.747965 
3948.000000	97.747193 
3947.000000	97.747223 
3946.000000	97.747976 
3945.000000	97.749540 
3944.000000	97.751609 
3943.000000	97.753300 
3942.000000	97.754132 
3941.000000	97.754594 
3940.000000	97.755299 
3939.000000	97.756001 
3938.000000	97.755786 
3937.000000	97.754243 
3936.000000	97.751907 
3935.000000	97.749198 
3934.000000	97.746156 
3933.000000	97.743116 
3932.000000	97.740907 
3931.000000	97.739817 
3930.000000	97.739262 
3929.000000	97.739078 
3928.000000	97.739896 
3927.000000	97.741834 
3926.000000	97.743488 
3925.000000	97.743189 
3924.000000	97.741136 
3923.000000	97.738975 
3922.000000	97.737582 
3921.000000	97.736720 
3920.000000	97.736290 
3919.000000	97.736721 
3918.000000	97.737775 
3917.000000	97.738268 
3916.000000	97.737578 
3915.000000	97.736452 
3914.000000	97.735830 
3913.000000	97.735771 
3912.000000	97.735644 
3911.000000	97.734960 
3910.000000	97.733430 
3909.000000	97.731047 
3908.000000	97.728360 
3907.000000	97.726116 
3906.000000	97.724636 
3905.000000	97.723228 
3904.000000	97.721104 
3903.000000	97.718705 
3902.000000	97.717289 
3901.000000	97.717347 
3900.000000	97.718054 
3899.000000	97.718291 
3898.000000	97.717890 
3897.000000	97.717290 
3896.000000	97.716730 
3895.000000	97.716388 
3894.000000	97.716485 
3893.000000	97.716915 
3892.000000	97.716732 
3891.000000	97.714903 
3890.000000	97.711642 
3889.000000	97.708429 
3888.000000	97.706665 
3887.000000	97.706516 
3886.000000	97.707055 
3885.000000	97.707489 
3884.000000	97.707832 
3883.000000	97.708070 
3882.000000	97.707906 
3881.000000	97.707255 
3880.000000	97.706483 
3879.000000	97.705950 
3878.000000	97.705867 
3877.000000	97.706413 
3876.000000	97.707428 
3875.000000	97.707788 
3874.000000	97.706378 
3873.000000	97.703717 
3872.000000	97.701495 
3871.000000	97.700052 
3870.000000	97.698109 
3869.000000	97.695738 
3868.000000	97.694632 
3867.000000	97.695278 
3866.000000	97.696267 
3865.000000	97.696658 
3864.000000	97.697395 
3863.000000	97.698924 
3862.000000	97.699460 
3861.000000	97.698205 
3860.000000	97.696508 
3859.000000	97.695110 
3858.000000	97.692815 
3857.000000	97.688889 
3856.000000	97.685582 
3855.000000	97.685009 
3854.000000	97.684037 
3853.000000	97.680045 
3852.000000	97.676714 
3851.000000	97.677475 
3850.000000	97.680938 
3849.000000	97.685124 
3848.000000	97.689943 
3847.000000	97.695729 
3846.000000	97.700305 
3845.000000	97.700484 
3844.000000	97.695189 
3843.000000	97.686001 
3842.000000	97.676047 
3841.000000	97.668783 
3840.000000	97.665768 
3839.000000	97.666607 
3838.000000	97.669785 
3837.000000	97.672945 
3836.000000	97.674932 
3835.000000	97.676610 
3834.000000	97.679761 
3833.000000	97.685166 
3832.000000	97.691468 
3831.000000	97.696865 
3830.000000	97.701023 
3829.000000	97.704815 
3828.000000	97.708739 
3827.000000	97.711171 
3826.000000	97.709223 
3825.000000	97.702668 
3824.000000	97.694376 
3823.000000	97.687452 
3822.000000	97.682085 
3821.000000	97.676783 
3820.000000	97.672954 
3819.000000	97.672839 
3818.000000	97.675960 
3817.000000	97.679391 
3816.000000	97.681859 
3815.000000	97.686911 
3814.000000	97.697151 
3813.000000	97.708524 
3812.000000	97.715114 
3811.000000	97.716608 
3810.000000	97.717325 
3809.000000	97.720162 
3808.000000	97.722130 
3807.000000	97.718179 
3806.000000	97.708482 
3805.000000	97.698138 
3804.000000	97.691084 
3803.000000	97.689010 
3802.000000	97.690832 
3801.000000	97.695045 
3800.000000	97.702132 
3799.000000	97.710281 
3798.000000	97.716053 
3797.000000	97.719067 
3796.000000	97.722261 
3795.000000	97.727711 
3794.000000	97.733781 
3793.000000	97.737800 
3792.000000	97.740192 
3791.000000	97.743741 
3790.000000	97.748567 
3789.000000	97.751579 
3788.000000	97.751379 
3787.000000	97.750398 
3786.000000	97.751186 
3785.000000	97.752851 
3784.000000	97.753029 
3783.000000	97.751959 
3782.000000	97.751627 
3781.000000	97.752571 
3780.000000	97.753478 
3779.000000	97.753819 
3778.000000	97.754456 
3777.000000	97.755837 
3776.000000	97.756622 
3775.000000	97.755294 
3774.000000	97.752521 
3773.000000	97.750503 
3772.000000	97.749617 
3771.000000	97.747155 
3770.000000	97.741495 
3769.000000	97.735719 
3768.000000	97.733875 
3767.000000	97.735669 
3766.000000	97.737614 
3765.000000	97.738032 
3764.000000	97.739633 
3763.000000	97.745181 
3762.000000	97.751807 
3761.000000	97.753069 
3760.000000	97.746273 
3759.000000	97.735711 
3758.000000	97.725922 
3757.000000	97.717132 
3756.000000	97.709050 
3755.000000	97.702143 
3754.000000	97.695427 
3753.000000	97.686578 
3752.000000	97.677367 
3751.000000	97.673986 
3750.000000	97.677041 
3749.000000	97.680051 
3748.000000	97.680074 
3747.000000	97.679996 
3746.000000	97.681471 
3745.000000	97.679371 
3744.000000	97.674824 
3743.000000	97.676726 
3742.000000	97.682186 
3741.000000	97.678895 
3740.000000	97.663968 
3739.000000	97.648998 
3738.000000	97.645637 
3737.000000	97.650007 
3736.000000	97.650797 
3735.000000	97.646936 
3734.000000	97.646741 
3733.000000	97.652720 
3732.000000	97.660232 
3731.000000	97.666292 
3730.000000	97.670526 
3729.000000	97.672125 
3728.000000	97.670466 
3727.000000	97.666467 
3726.000000	97.662525 
3725.000000	97.658981 
3724.000000	97.652740 
3723.000000	97.642008 
3722.000000	97.629610 
3721.000000	97.620264 
3720.000000	97.615125 
3719.000000	97.612907 
3718.000000	97.610806 
3717.000000	97.604814 
3716.000000	97.592830 
3715.000000	97.575041 
3714.000000	97.554960 
3713.000000	97.539687 
3712.000000	97.534608 
3711.000000	97.537048 
3710.000000	97.537217 
3709.000000	97.528041 
3708.000000	97.509800 
3707.000000	97.486371 
3706.000000	97.462334 
3705.000000	97.441366 
3704.000000	97.424489 
3703.000000	97.409290 
3702.000000	97.391085 
3701.000000	97.367570 
3700.000000	97.341977 
3699.000000	97.320386 
3698.000000	97.305939 
3697.000000	97.296235 
3696.000000	97.287463 
3695.000000	97.277504 
3694.000000	97.264726 
3693.000000	97.248517 
3692.000000	97.231392 
3691.000000	97.217864 
3690.000000	97.208568 
3689.000000	97.199496 
3688.000000	97.188763 
3687.000000	97.178973 
3686.000000	97.172089 
3685.000000	97.166294 
3684.000000	97.159373 
3683.000000	97.152174 
3682.000000	97.145627 
3681.000000	97.134919 
3680.000000	97.113033 
3679.000000	97.079896 
3678.000000	97.044743 
3677.000000	97.015673 
3676.000000	96.990512 
3675.000000	96.965883 
3674.000000	96.943428 
3673.000000	96.924969 
3672.000000	96.910165 
3671.000000	96.899555 
3670.000000	96.894052 
3669.000000	96.892159 
3668.000000	96.888057 
3667.000000	96.876497 
3666.000000	96.859004 
3665.000000	96.841042 
3664.000000	96.825413 
3663.000000	96.810111 
3662.000000	96.790585 
3661.000000	96.764384 
3660.000000	96.735287 
3659.000000	96.710310 
3658.000000	96.692963 
3657.000000	96.677425 
3656.000000	96.654958 
3655.000000	96.626184 
3654.000000	96.598367 
3653.000000	96.575005 
3652.000000	96.551730 
3651.000000	96.521654 
3650.000000	96.485607 
3649.000000	96.454643 
3648.000000	96.437160 
3647.000000	96.430729 
3646.000000	96.429426 
3645.000000	96.430934 
3644.000000	96.435964 
3643.000000	96.444878 
3642.000000	96.455004 
3641.000000	96.460676 
3640.000000	96.456242 
3639.000000	96.439043 
3638.000000	96.412556 
3637.000000	96.384591 
3636.000000	96.360107 
3635.000000	96.335899 
3634.000000	96.305822 
3633.000000	96.271072 
3632.000000	96.239975 
3631.000000	96.218275 
3630.000000	96.201883 
3629.000000	96.184334 
3628.000000	96.168637 
3627.000000	96.159455 
3626.000000	96.152056 
3625.000000	96.140062 
3624.000000	96.124130 
3623.000000	96.110557 
3622.000000	96.104525 
3621.000000	96.105608 
3620.000000	96.109509 
3619.000000	96.113302 
3618.000000	96.117667 
3617.000000	96.126030 
3616.000000	96.142935 
3615.000000	96.169399 
3614.000000	96.199847 
3613.000000	96.226400 
3612.000000	96.245139 
3611.000000	96.256311 
3610.000000	96.261567 
3609.000000	96.263627 
3608.000000	96.267210 
3607.000000	96.277378 
3606.000000	96.295453 
3605.000000	96.319288 
3604.000000	96.346247 
3603.000000	96.373361 
3602.000000	96.396432 
3601.000000	96.410938 
3600.000000	96.416161 
3599.000000	96.416365 
3598.000000	96.417227 
3597.000000	96.421337 
3596.000000	96.428176 
3595.000000	96.434587 
3594.000000	96.437472 
3593.000000	96.437048 
3592.000000	96.436201 
3591.000000	96.438013 
3590.000000	96.443642 
3589.000000	96.450639 
3588.000000	96.454320 
3587.000000	96.452412 
3586.000000	96.447868 
3585.000000	96.446722 
3584.000000	96.454075 
3583.000000	96.470456 
3582.000000	96.491277 
3581.000000	96.508695 
3580.000000	96.516510 
3579.000000	96.514196 
3578.000000	96.506944 
3577.000000	96.502004 
3576.000000	96.503511 
3575.000000	96.510255 
3574.000000	96.517178 
3573.000000	96.519728 
3572.000000	96.516747 
3571.000000	96.510381 
3570.000000	96.503938 
3569.000000	96.499684 
3568.000000	96.498261 
3567.000000	96.499308 
3566.000000	96.501458 
3565.000000	96.502908 
3564.000000	96.503043 
3563.000000	96.503124 
3562.000000	96.504901 
3561.000000	96.508792 
3560.000000	96.513086 
3559.000000	96.515293 
3558.000000	96.514336 
3557.000000	96.511387 
3556.000000	96.508558 
3555.000000	96.506982 
3554.000000	96.506087 
3553.000000	96.504468 
3552.000000	96.501633 
3551.000000	96.498648 
3550.000000	96.497200 
3549.000000	96.498216 
3548.000000	96.501089 
3547.000000	96.503802 
3546.000000	96.504311 
3545.000000	96.502333 
3544.000000	96.499654 
3543.000000	96.498294 
3542.000000	96.498549 
3541.000000	96.499340 
3540.000000	96.499944 
3539.000000	96.500669 
3538.000000	96.501921 
3537.000000	96.503270 
3536.000000	96.503878 
3535.000000	96.503352 
3534.000000	96.502018 
3533.000000	96.500581 
3532.000000	96.499577 
3531.000000	96.499064 
3530.000000	96.498622 
3529.000000	96.497703 
3528.000000	96.496125 
3527.000000	96.494304 
3526.000000	96.492862 
3525.000000	96.492095 
3524.000000	96.491969 
3523.000000	96.492448 
3522.000000	96.493499 
3521.000000	96.494787 
3520.000000	96.495704 
3519.000000	96.495715 
3518.000000	96.494731 
3517.000000	96.493021 
3516.000000	96.490951 
3515.000000	96.488999 
3514.000000	96.487980 
3513.000000	96.488816 
3512.000000	96.491600 
3511.000000	96.494859 
3510.000000	96.496440 
3509.000000	96.495517 
3508.000000	96.493280 
3507.000000	96.491534 
3506.000000	96.490635 
3505.000000	96.489410 
3504.000000	96.487020 
3503.000000	96.484262 
3502.000000	96.482770 
3501.000000	96.483216 
3500.000000	96.484785 
3499.000000	96.486057 
3498.000000	96.485955 
3497.000000	96.483977 
3496.000000	96.480072 
3495.000000	96.474779 
3494.000000	96.469381 
3493.000000	96.465345 
3492.000000	96.463247 
3491.000000	96.462282 
3490.000000	96.461012 
3489.000000	96.458673 
3488.000000	96.455593 
3487.000000	96.452524 
3486.000000	96.449978 
3485.000000	96.448158 
3484.000000	96.447030 
3483.000000	96.446156 
3482.000000	96.444832 
3481.000000	96.442821 
3480.000000	96.440679 
3479.000000	96.439010 
3478.000000	96.437535 
3477.000000	96.435316 
3476.000000	96.431848 
3475.000000	96.427673 
3474.000000	96.423828 
3473.000000	96.420883 
3472.000000	96.418608 
3471.000000	96.416341 
3470.000000	96.413580 
3469.000000	96.410346 
3468.000000	96.407046 
3467.000000	96.404080 
3466.000000	96.401575 
3465.000000	96.399273 
3464.000000	96.396582 
3463.000000	96.392923 
3462.000000	96.388260 
3461.000000	96.383219 
3460.000000	96.378534 
3459.000000	96.374385 
3458.000000	96.370455 
3457.000000	96.366509 
3456.000000	96.362766 
3455.000000	96.359706 
3454.000000	96.357863 
3453.000000	96.357602 
3452.000000	96.358737 
3451.000000	96.360199 
3450.000000	96.360260 
3449.000000	96.357671 
3448.000000	96.352541 
3447.000000	96.346194 
3446.000000	96.340094 
3445.000000	96.334849 
3444.000000	96.330388 
3443.000000	96.326656 
3442.000000	96.323756 
3441.000000	96.321516 
3440.000000	96.319318 
3439.000000	96.316538 
3438.000000	96.313039 
3437.000000	96.309073 
3436.000000	96.304905 
3435.000000	96.300709 
3434.000000	96.296780 
3433.000000	96.293440 
3432.000000	96.290695 
3431.000000	96.288279 
3430.000000	96.285939 
3429.000000	96.283500 
3428.000000	96.280558 
3427.000000	96.276542 
3426.000000	96.271491 
3425.000000	96.266635 
3424.000000	96.263605 
3423.000000	96.262738 
3422.000000	96.262440 
3421.000000	96.260652 
3420.000000	96.257027 
3419.000000	96.253299 
3418.000000	96.251524 
3417.000000	96.252263 
3416.000000	96.254246 
3415.000000	96.255306 
3414.000000	96.253827 
3413.000000	96.249778 
3412.000000	96.244791 
3411.000000	96.241009 
3410.000000	96.239423 
3409.000000	96.239289 
3408.000000	96.239026 
3407.000000	96.237514 
3406.000000	96.234655 
3405.000000	96.231092 
3404.000000	96.227605 
3403.000000	96.224495 
3402.000000	96.221445 
3401.000000	96.218086 
3400.000000	96.214753 
3399.000000	96.212443 
3398.000000	96.211997 
3397.000000	96.213537 
3396.000000	96.216568 
3395.000000	96.220385 
3394.000000	96.224394 
3393.000000	96.228251 
3392.000000	96.231728 
3391.000000	96.234400 
3390.000000	96.235567 
3389.000000	96.234695 
3388.000000	96.232028 
3387.000000	96.228710 
3386.000000	96.226114 
3385.000000	96.224790 
3384.000000	96.224259 
3383.000000	96.224054 
3382.000000	96.224869 
3381.000000	96.227829 
3380.000000	96.232399 
3379.000000	96.235896 
3378.000000	96.236097 
3377.000000	96.233886 
3376.000000	96.232235 
3375.000000	96.232583 
3374.000000	96.233528 
3373.000000	96.233377 
3372.000000	96.232588 
3371.000000	96.232696 
3370.000000	96.233846 
3369.000000	96.234694 
3368.000000	96.234380 
3367.000000	96.233563 
3366.000000	96.233564 
3365.000000	96.235170 
3364.000000	96.238296 
3363.000000	96.242177 
3362.000000	96.245843 
3361.000000	96.248789 
3360.000000	96.251193 
3359.000000	96.253371 
3358.000000	96.255229 
3357.000000	96.256496 
3356.000000	96.257260 
3355.000000	96.257982 
3354.000000	96.259084 
3353.000000	96.260795 
3352.000000	96.263276 
3351.000000	96.266534 
3350.000000	96.270084 
3349.000000	96.272992 
3348.000000	96.274540 
3347.000000	96.274874 
3346.000000	96.275004 
3345.000000	96.275946 
3344.000000	96.277700 
3343.000000	96.279125 
3342.000000	96.279117 
3341.000000	96.278080 
3340.000000	96.277905 
3339.000000	96.280021 
3338.000000	96.283862 
3337.000000	96.287544 
3336.000000	96.290105 
3335.000000	96.292334 
3334.000000	96.295210 
3333.000000	96.298351 
3332.000000	96.300467 
3331.000000	96.300927 
3330.000000	96.300304 
3329.000000	96.299630 
3328.000000	96.299540 
3327.000000	96.300123 
3326.000000	96.301291 
3325.000000	96.303068 
3324.000000	96.305503 
3323.000000	96.308410 
3322.000000	96.311375 
3321.000000	96.314238 
3320.000000	96.317404 
3319.000000	96.321315 
3318.000000	96.325637 
3317.000000	96.329385 
3316.000000	96.331993 
3315.000000	96.333895 
3314.000000	96.335901 
3313.000000	96.338261 
3312.000000	96.340520 
3311.000000	96.342136 
3310.000000	96.343063 
3309.000000	96.343831 
3308.000000	96.345041 
3307.000000	96.346581 
3306.000000	96.347309 
3305.000000	96.345877 
3304.000000	96.342177 
3303.000000	96.337960 
3302.000000	96.335710 
3301.000000	96.336612 
3300.000000	96.339764 
3299.000000	96.343130 
3298.000000	96.345330 
3297.000000	96.346574 
3296.000000	96.347893 
3295.000000	96.349818 
3294.000000	96.352005 
3293.000000	96.353889 
3292.000000	96.355387 
3291.000000	96.356933 
3290.000000	96.359073 
3289.000000	96.362121 
3288.000000	96.365921 
3287.000000	96.369805 
3286.000000	96.372923 
3285.000000	96.374850 
3284.000000	96.375923 
3283.000000	96.376948 
3282.000000	96.378537 
3281.000000	96.380621 
3280.000000	96.382455 
3279.000000	96.383109 
3278.000000	96.382233 
3277.000000	96.380575 
3276.000000	96.379660 
3275.000000	96.380561 
3274.000000	96.383083 
3273.000000	96.386127 
3272.000000	96.388753 
3271.000000	96.390868 
3270.000000	96.392855 
3269.000000	96.394826 
3268.000000	96.396474 
3267.000000	96.397594 
3266.000000	96.398554 
3265.000000	96.400075 
3264.000000	96.402475 
3263.000000	96.405337 
3262.000000	96.408020 
3261.000000	96.410398 
3260.000000	96.412858 
3259.000000	96.415609 
3258.000000	96.418362 
3257.000000	96.420772 
3256.000000	96.422880 
3255.000000	96.424857 
3254.000000	96.426560 
3253.000000	96.427682 
3252.000000	96.428348 
3251.000000	96.429263 
3250.000000	96.431147 
3249.000000	96.434150 
3248.000000	96.437786 
3247.000000	96.441231 
3246.000000	96.443749 
3245.000000	96.445030 
3244.000000	96.445292 
3243.000000	96.445135 
3242.000000	96.445160 
3241.000000	96.445708 
3240.000000	96.446977 
3239.000000	96.449158 
3238.000000	96.452305 
3237.000000	96.456141 
3236.000000	96.460160 
3235.000000	96.463875 
3234.000000	96.466958 
3233.000000	96.469263 
3232.000000	96.470971 
3231.000000	96.472698 
3230.000000	96.475139 
3229.000000	96.478473 
3228.000000	96.482112 
3227.000000	96.485130 
3226.000000	96.487040 
3225.000000	96.488100 
3224.000000	96.489105 
3223.000000	96.490794 
3222.000000	96.493361 
3221.000000	96.496404 
3220.000000	96.499244 
3219.000000	96.501473 
3218.000000	96.503205 
3217.000000	96.504796 
3216.000000	96.506425 
3215.000000	96.508090 
3214.000000	96.509923 
3213.000000	96.512177 
3212.000000	96.514866 
3211.000000	96.517677 
3210.000000	96.520317 
3209.000000	96.522751 
3208.000000	96.524982 
3207.000000	96.526843 
3206.000000	96.528304 
3205.000000	96.529842 
3204.000000	96.532186 
3203.000000	96.535688 
3202.000000	96.540032 
3201.000000	96.544491 
3200.000000	96.548362 
3199.000000	96.551318 
3198.000000	96.553583 
3197.000000	96.555814 
3196.000000	96.558625 
3195.000000	96.562229 
3194.000000	96.566546 
3193.000000	96.571418 
3192.000000	96.576466 
3191.000000	96.580864 
3190.000000	96.583698 
3189.000000	96.584713 
3188.000000	96.584645 
3187.000000	96.584832 
3186.000000	96.586390 
3185.000000	96.589625 
3184.000000	96.594056 
3183.000000	96.598863 
3182.000000	96.603502 
3181.000000	96.607861 
3180.000000	96.611958 
3179.000000	96.615863 
3178.000000	96.619930 
3177.000000	96.624612 
3176.000000	96.629872 
3175.000000	96.635156 
3174.000000	96.640049 
3173.000000	96.644390 
3172.000000	96.647714 
3171.000000	96.649427 
3170.000000	96.650010 
3169.000000	96.651596 
3168.000000	96.656144 
3167.000000	96.663537 
3166.000000	96.672059 
3165.000000	96.679762 
3164.000000	96.685904 
3163.000000	96.690810 
3162.000000	96.695116 
3161.000000	96.699399 
3160.000000	96.703938 
3159.000000	96.708693 
3158.000000	96.713518 
3157.000000	96.718310 
3156.000000	96.722967 
3155.000000	96.727398 
3154.000000	96.731654 
3153.000000	96.735894 
3152.000000	96.740154 
3151.000000	96.744307 
3150.000000	96.748300 
3149.000000	96.752265 
3148.000000	96.756335 
3147.000000	96.760503 
3146.000000	96.764707 
3145.000000	96.768923 
3144.000000	96.773132 
3143.000000	96.777293 
3142.000000	96.781386 
3141.000000	96.785412 
3140.000000	96.789377 
3139.000000	96.793292 
3138.000000	96.797176 
3137.000000	96.801043 
3136.000000	96.804899 
3135.000000	96.808738 
3134.000000	96.812544 
3133.000000	96.816311 
3132.000000	96.820047 
3131.000000	96.823767 
3130.000000	96.827481 
3129.000000	96.831177 
3128.000000	96.834823 
3127.000000	96.838381 
3126.000000	96.841827 
3125.000000	96.845170 
3124.000000	96.848447 
3123.000000	96.851701 
3122.000000	96.854945 
3121.000000	96.858171 
3120.000000	96.861357 
3119.000000	96.864499 
3118.000000	96.867607 
3117.000000	96.870705 
3116.000000	96.873809 
3115.000000	96.876939 
3114.000000	96.880113 
3113.000000	96.883337 
3112.000000	96.886600 
3111.000000	96.889873 
3110.000000	96.893129 
3109.000000	96.896379 
3108.000000	96.899696 
3107.000000	96.903183 
3106.000000	96.906836 
3105.000000	96.910433 
3104.000000	96.913636 
3103.000000	96.916271 
3102.000000	96.918533 
3101.000000	96.920834 
3100.000000	96.923421 
3099.000000	96.926207 
3098.000000	96.929035 
3097.000000	96.932102 
3096.000000	96.935940 
3095.000000	96.940809 
3094.000000	96.946198 
3093.000000	96.951121 
3092.000000	96.955067 
3091.000000	96.958403 
3090.000000	96.961594 
3089.000000	96.964250 
3088.000000	96.965559 
3087.000000	96.965913 
3086.000000	96.967496 
3085.000000	96.972404 
3084.000000	96.980371 
3083.000000	96.988728 
3082.000000	96.995387 
3081.000000	97.000950 
3080.000000	97.006844 
3079.000000	97.012259 
3078.000000	97.014548 
3077.000000	97.013037 
3076.000000	97.011047 
3075.000000	97.012566 
3074.000000	97.018020 
3073.000000	97.024399 
3072.000000	97.028807 
3071.000000	97.030750 
3070.000000	97.031439 
3069.000000	97.032515 
3068.000000	97.035425 
3067.000000	97.040382 
3066.000000	97.045327 
3065.000000	97.047262 
3064.000000	97.045408 
3063.000000	97.042146 
3062.000000	97.040209 
3061.000000	97.039814 
3060.000000	97.039338 
3059.000000	97.038251 
3058.000000	97.038630 
3057.000000	97.043577 
3056.000000	97.053831 
3055.000000	97.065500 
3054.000000	97.071892 
3053.000000	97.068975 
3052.000000	97.059343 
3051.000000	97.050063 
3050.000000	97.046241 
3049.000000	97.047648 
3048.000000	97.051325 
3047.000000	97.055089 
3046.000000	97.057462 
3045.000000	97.056466 
3044.000000	97.051099 
3043.000000	97.043826 
3042.000000	97.039196 
3041.000000	97.038832 
3040.000000	97.039308 
3039.000000	97.035864 
3038.000000	97.027249 
3037.000000	97.016289 
3036.000000	97.006797 
3035.000000	97.000694 
3034.000000	96.997119 
3033.000000	96.992941 
3032.000000	96.984528 
3031.000000	96.970673 
3030.000000	96.954262 
3029.000000	96.940074 
3028.000000	96.930080 
3027.000000	96.921437 
3026.000000	96.909949 
3025.000000	96.894892 
3024.000000	96.879147 
3023.000000	96.864766 
3022.000000	96.850113 
3021.000000	96.832338 
3020.000000	96.811494 
3019.000000	96.790720 
3018.000000	96.772527 
3017.000000	96.756263 
3016.000000	96.739848 
3015.000000	96.722977 
3014.000000	96.707324 
3013.000000	96.693601 
3012.000000	96.679680 
3011.000000	96.662598 
3010.000000	96.641633 
3009.000000	96.617649 
3008.000000	96.589572 
3007.000000	96.554568 
3006.000000	96.514167 
3005.000000	96.478469 
3004.000000	96.459511 
3003.000000	96.458490 
3002.000000	96.461657 
3001.000000	96.451191 
3000.000000	96.420224 
2999.000000	96.376686 
2998.000000	96.335106 
2997.000000	96.306449 
2996.000000	96.293242 
2995.000000	96.288981 
2994.000000	96.280637 
2993.000000	96.256287 
2992.000000	96.214930 
2991.000000	96.169041 
2990.000000	96.135245 
2989.000000	96.121710 
2988.000000	96.124579 
2987.000000	96.134609 
2986.000000	96.145546 
2985.000000	96.156393 
2984.000000	96.167942 
2983.000000	96.179506 
2982.000000	96.188830 
2981.000000	96.193586 
2980.000000	96.192440 
2979.000000	96.185669 
2978.000000	96.175704 
2977.000000	96.166515 
2976.000000	96.161151 
2975.000000	96.159598 
2974.000000	96.160015 
2973.000000	96.162317 
2972.000000	96.169143 
2971.000000	96.182208 
2970.000000	96.198913 
2969.000000	96.214497 
2968.000000	96.227309 
2967.000000	96.240067 
2966.000000	96.255399 
2965.000000	96.272090 
2964.000000	96.287007 
2963.000000	96.299573 
2962.000000	96.312650 
2961.000000	96.329037 
2960.000000	96.348228 
2959.000000	96.366739 
2958.000000	96.380888 
2957.000000	96.389299 
2956.000000	96.393465 
2955.000000	96.396420 
2954.000000	96.401161 
2953.000000	96.410110 
2952.000000	96.424992 
2951.000000	96.445478 
2950.000000	96.467338 
2949.000000	96.483658 
2948.000000	96.489977 
2947.000000	96.488302 
2946.000000	96.485505 
2945.000000	96.487131 
2944.000000	96.493288 
2943.000000	96.500838 
2942.000000	96.507859 
2941.000000	96.514584 
2940.000000	96.521014 
2939.000000	96.525621 
2938.000000	96.526956 
2937.000000	96.525691 
2936.000000	96.524259 
2935.000000	96.524186 
2934.000000	96.523934 
2933.000000	96.519980 
2932.000000	96.510649 
2931.000000	96.498855 
2930.000000	96.490211 
2929.000000	96.487747 
2928.000000	96.488938 
2927.000000	96.488595 
2926.000000	96.484325 
2925.000000	96.478602 
2924.000000	96.475772 
2923.000000	96.477933 
2922.000000	96.483694 
2921.000000	96.489870 
2920.000000	96.494091 
2919.000000	96.496471 
2918.000000	96.499076 
2917.000000	96.503262 
2916.000000	96.507495 
2915.000000	96.508656 
2914.000000	96.505904 
2913.000000	96.502193 
2912.000000	96.500965 
2911.000000	96.501744 
2910.000000	96.500310 
2909.000000	96.493616 
2908.000000	96.483803 
2907.000000	96.476356 
2906.000000	96.474137 
2905.000000	96.473628 
2904.000000	96.468114 
2903.000000	96.455235 
2902.000000	96.441965 
2901.000000	96.439529 
2900.000000	96.453902 
2899.000000	96.481180 
2898.000000	96.510983 
2897.000000	96.534709 
2896.000000	96.550121 
2895.000000	96.559358 
2894.000000	96.565116 
2893.000000	96.569325 
2892.000000	96.573815 
2891.000000	96.580496 
2890.000000	96.590634 
2889.000000	96.604210 
2888.000000	96.619720 
2887.000000	96.634347 
2886.000000	96.645061 
2885.000000	96.650983 
2884.000000	96.655236 
2883.000000	96.663567 
2882.000000	96.679843 
2881.000000	96.702406 
2880.000000	96.725173 
2879.000000	96.742990 
2878.000000	96.755727 
2877.000000	96.767031 
2876.000000	96.779897 
2875.000000	96.794261 
2874.000000	96.808338 
2873.000000	96.820694 
2872.000000	96.830522 
2871.000000	96.837407 
2870.000000	96.842220 
2869.000000	96.847798 
2868.000000	96.857347 
2867.000000	96.871829 
2866.000000	96.889300 
2865.000000	96.906641 
2864.000000	96.921560 
2863.000000	96.933455 
2862.000000	96.943556 
2861.000000	96.954430 
2860.000000	96.968300 
2859.000000	96.985354 
2858.000000	97.004084 
2857.000000	97.023296 
2856.000000	97.043233 
2855.000000	97.064247 
2854.000000	97.084980 
2853.000000	97.102793 
2852.000000	97.116130 
2851.000000	97.126216 
2850.000000	97.136336 
2849.000000	97.149079 
2848.000000	97.164028 
2847.000000	97.178456 
2846.000000	97.190421 
2845.000000	97.200551 
2844.000000	97.210462 
2843.000000	97.220321 
2842.000000	97.229073 
2841.000000	97.236474 
2840.000000	97.243420 
2839.000000	97.250376 
2838.000000	97.256804 
2837.000000	97.262320 
2836.000000	97.267462 
2835.000000	97.273089 
2834.000000	97.279952 
2833.000000	97.288972 
2832.000000	97.300470 
2831.000000	97.312517 
2830.000000	97.321532 
2829.000000	97.325725 
2828.000000	97.327209 
2827.000000	97.329734 
2826.000000	97.334759 
2825.000000	97.340652 
2824.000000	97.345318 
2823.000000	97.348479 
2822.000000	97.351532 
2821.000000	97.356153 
2820.000000	97.362996 
2819.000000	97.370971 
2818.000000	97.377688 
2817.000000	97.381315 
2816.000000	97.382305 
2815.000000	97.382930 
2814.000000	97.384910 
2813.000000	97.387810 
2812.000000	97.389896 
2811.000000	97.390095 
2810.000000	97.388764 
2809.000000	97.386945 
2808.000000	97.385624 
2807.000000	97.385780 
2806.000000	97.388389 
2805.000000	97.393438 
2804.000000	97.398990 
2803.000000	97.402199 
2802.000000	97.401981 
2801.000000	97.400404 
2800.000000	97.400851 
2799.000000	97.404695 
2798.000000	97.410191 
2797.000000	97.414532 
2796.000000	97.416710 
2795.000000	97.418135 
2794.000000	97.420779 
2793.000000	97.425156 
2792.000000	97.430200 
2791.000000	97.434683 
2790.000000	97.438251 
2789.000000	97.441049 
2788.000000	97.443035 
2787.000000	97.444245 
2786.000000	97.445424 
2785.000000	97.447576 
2784.000000	97.450743 
2783.000000	97.453876 
2782.000000	97.456124 
2781.000000	97.457735 
2780.000000	97.459399 
2779.000000	97.461179 
2778.000000	97.462519 
2777.000000	97.462989 
2776.000000	97.462629 
2775.000000	97.461791 
2774.000000	97.460960 
2773.000000	97.460512 
2772.000000	97.460535 
2771.000000	97.461210 
2770.000000	97.463380 
2769.000000	97.467921 
2768.000000	97.474131 
2767.000000	97.479538 
2766.000000	97.482362 
2765.000000	97.483578 
2764.000000	97.485613 
2763.000000	97.489340 
2762.000000	97.493522 
2761.000000	97.496929 
2760.000000	97.499479 
2759.000000	97.501179 
2758.000000	97.501503 
2757.000000	97.500465 
2756.000000	97.499325 
2755.000000	97.499414 
2754.000000	97.500844 
2753.000000	97.502802 
2752.000000	97.504429 
2751.000000	97.505131 
2750.000000	97.504782 
2749.000000	97.504179 
2748.000000	97.504690 
2747.000000	97.506878 
2746.000000	97.509972 
2745.000000	97.512991 
2744.000000	97.515855 
2743.000000	97.518858 
2742.000000	97.521701 
2741.000000	97.523844 
2740.000000	97.525415 
2739.000000	97.526999 
2738.000000	97.528759 
2737.000000	97.530396 
2736.000000	97.531856 
2735.000000	97.533498 
2734.000000	97.535492 
2733.000000	97.537523 
2732.000000	97.539243 
2731.000000	97.540702 
2730.000000	97.542199 
2729.000000	97.543862 
2728.000000	97.545461 
2727.000000	97.546623 
2726.000000	97.547208 
2725.000000	97.547529 
2724.000000	97.548196 
2723.000000	97.549577 
2722.000000	97.551514 
2721.000000	97.553507 
2720.000000	97.555131 
2719.000000	97.556341 
2718.000000	97.557330 
2717.000000	97.558310 
2716.000000	97.559379 
2715.000000	97.560525 
2714.000000	97.561692 
2713.000000	97.562859 
2712.000000	97.564091 
2711.000000	97.565465 
2710.000000	97.566944 
2709.000000	97.568372 
2708.000000	97.569613 
2707.000000	97.570686 
2706.000000	97.571732 
2705.000000	97.572858 
2704.000000	97.574033 
2703.000000	97.575152 
2702.000000	97.576186 
2701.000000	97.577253 
2700.000000	97.578516 
2699.000000	97.580011 
2698.000000	97.581575 
2697.000000	97.582964 
2696.000000	97.584009 
2695.000000	97.584667 
2694.000000	97.585070 
2693.000000	97.585497 
2692.000000	97.586193 
2691.000000	97.587173 
2690.000000	97.588277 
2689.000000	97.589489 
2688.000000	97.590988 
2687.000000	97.592749 
2686.000000	97.594356 
2685.000000	97.595478 
2684.000000	97.596302 
2683.000000	97.597171 
2682.000000	97.597987 
2681.000000	97.598505 
2680.000000	97.599007 
2679.000000	97.599980 
2678.000000	97.601221 
2677.000000	97.602009 
2676.000000	97.602159 
2675.000000	97.602132 
2674.000000	97.602205 
2673.000000	97.602140 
2672.000000	97.601744 
2671.000000	97.601243 
2670.000000	97.600992 
2669.000000	97.601171 
2668.000000	97.601783 
2667.000000	97.602592 
2666.000000	97.603070 
2665.000000	97.602805 
2664.000000	97.602089 
2663.000000	97.601717 
2662.000000	97.601990 
2661.000000	97.602334 
2660.000000	97.602098 
2659.000000	97.601381 
2658.000000	97.600914 
2657.000000	97.601348 
2656.000000	97.602736 
2655.000000	97.604431 
2654.000000	97.605336 
2653.000000	97.604650 
2652.000000	97.602576 
2651.000000	97.600038 
2650.000000	97.597729 
2649.000000	97.595677 
2648.000000	97.593776 
2647.000000	97.592263 
2646.000000	97.591375 
2645.000000	97.590855 
2644.000000	97.590212 
2643.000000	97.589367 
2642.000000	97.588643 
2641.000000	97.588151 
2640.000000	97.587477 
2639.000000	97.586093 
2638.000000	97.583956 
2637.000000	97.581734 
2636.000000	97.580486 
2635.000000	97.580899 
2634.000000	97.582628 
2633.000000	97.584244 
2632.000000	97.584289 
2631.000000	97.582407 
2630.000000	97.579353 
2629.000000	97.576130 
2628.000000	97.573259 
2627.000000	97.571050 
2626.000000	97.570120 
2625.000000	97.571050 
2624.000000	97.573671 
2623.000000	97.576967 
2622.000000	97.579691 
2621.000000	97.581041 
2620.000000	97.580893 
2619.000000	97.579722 
2618.000000	97.578321 
2617.000000	97.577310 
2616.000000	97.576933 
2615.000000	97.577334 
2614.000000	97.578674 
2613.000000	97.580733 
2612.000000	97.582677 
2611.000000	97.583676 
2610.000000	97.583690 
2609.000000	97.583345 
2608.000000	97.583146 
2607.000000	97.583101 
2606.000000	97.583245 
2605.000000	97.584022 
2604.000000	97.585707 
2603.000000	97.587714 
2602.000000	97.588993 
2601.000000	97.589277 
2600.000000	97.589443 
2599.000000	97.590394 
2598.000000	97.591957 
2597.000000	97.593312 
2596.000000	97.594002 
2595.000000	97.594053 
2594.000000	97.593557 
2593.000000	97.592801 
2592.000000	97.592593 
2591.000000	97.593748 
2590.000000	97.596198 
2589.000000	97.598938 
2588.000000	97.600991 
2587.000000	97.602218 
2586.000000	97.603153 
2585.000000	97.604383 
2584.000000	97.606035 
2583.000000	97.607592 
2582.000000	97.608282 
2581.000000	97.607813 
2580.000000	97.606634 
2579.000000	97.605423 
2578.000000	97.604645 
2577.000000	97.604814 
2576.000000	97.606486 
2575.000000	97.609379 
2574.000000	97.611839 
2573.000000	97.611959 
2572.000000	97.609357 
2571.000000	97.605357 
2570.000000	97.601749 
2569.000000	97.599674 
2568.000000	97.599238 
2567.000000	97.599526 
2566.000000	97.599034 
2565.000000	97.596874 
2564.000000	97.593738 
2563.000000	97.591295 
2562.000000	97.590638 
2561.000000	97.591958 
2560.000000	97.595545 
2559.000000	97.601859 
2558.000000	97.609960 
2557.000000	97.616828 
2556.000000	97.619500 
2555.000000	97.617870 
2554.000000	97.614817 
2553.000000	97.613404 
2552.000000	97.614317 
2551.000000	97.616393 
2550.000000	97.618608 
2549.000000	97.620647 
2548.000000	97.622098 
2547.000000	97.622367 
2546.000000	97.621628 
2545.000000	97.620804 
2544.000000	97.620151 
2543.000000	97.619206 
2542.000000	97.618316 
2541.000000	97.618728 
2540.000000	97.620762 
2539.000000	97.622835 
2538.000000	97.623149 
2537.000000	97.621721 
2536.000000	97.620121 
2535.000000	97.619767 
2534.000000	97.620909 
2533.000000	97.622836 
2532.000000	97.624306 
2531.000000	97.624135 
2530.000000	97.622074 
2529.000000	97.619251 
2528.000000	97.617404 
2527.000000	97.617303 
2526.000000	97.618381 
2525.000000	97.619828 
2524.000000	97.621534 
2523.000000	97.623663 
2522.000000	97.625908 
2521.000000	97.627706 
2520.000000	97.628880 
2519.000000	97.629710 
2518.000000	97.630532 
2517.000000	97.631472 
2516.000000	97.632482 
2515.000000	97.633508 
2514.000000	97.634585 
2513.000000	97.635781 
2512.000000	97.637075 
2511.000000	97.638334 
2510.000000	97.639419 
2509.000000	97.640302 
2508.000000	97.641042 
2507.000000	97.641709 
2506.000000	97.642369 
2505.000000	97.643082 
2504.000000	97.643859 
2503.000000	97.644666 
2502.000000	97.645451 
2501.000000	97.646169 
2500.000000	97.646813 
2499.000000	97.647416 
2498.000000	97.648036 
2497.000000	97.648714 
2496.000000	97.649451 
2495.000000	97.650224 
2494.000000	97.650989 
2493.000000	97.651699 
2492.000000	97.652320 
2491.000000	97.652845 
2490.000000	97.653303 
2489.000000	97.653729 
2488.000000	97.654128 
2487.000000	97.654478 
2486.000000	97.654765 
2485.000000	97.654980 
2484.000000	97.655116 
2483.000000	97.655162 
2482.000000	97.655109 
2481.000000	97.654952 
2480.000000	97.654685 
2479.000000	97.654322 
2478.000000	97.653907 
2477.000000	97.653499 
2476.000000	97.653120 
2475.000000	97.652738 
2474.000000	97.652342 
2473.000000	97.651998 
2472.000000	97.651774 
2471.000000	97.651657 
2470.000000	97.651582 
2469.000000	97.651498 
2468.000000	97.651361 
2467.000000	97.651106 
2466.000000	97.650717 
2465.000000	97.650326 
2464.000000	97.650145 
2463.000000	97.650238 
2462.000000	97.650395 
2461.000000	97.650361 
2460.000000	97.650232 
2459.000000	97.650440 
2458.000000	97.651223 
2457.000000	97.652085 
2456.000000	97.652177 
2455.000000	97.651087 
2454.000000	97.649309 
2453.000000	97.647913 
2452.000000	97.647387 
2451.000000	97.647411 
2450.000000	97.647512 
2449.000000	97.647644 
2448.000000	97.648008 
2447.000000	97.648576 
2446.000000	97.649021 
2445.000000	97.649095 
2444.000000	97.648841 
2443.000000	97.648472 
2442.000000	97.648211 
2441.000000	97.648203 
2440.000000	97.648471 
2439.000000	97.648957 
2438.000000	97.649613 
2437.000000	97.650445 
2436.000000	97.651402 
2435.000000	97.652218 
2434.000000	97.652563 
2433.000000	97.652375 
2432.000000	97.651970 
2431.000000	97.651829 
2430.000000	97.652207 
2429.000000	97.652990 
2428.000000	97.653725 
2427.000000	97.653941 
2426.000000	97.653470 
2425.000000	97.652528 
2424.000000	97.651533 
2423.000000	97.650832 
2422.000000	97.650637 
2421.000000	97.651061 
2420.000000	97.652055 
2419.000000	97.653347 
2418.000000	97.654637 
2417.000000	97.655885 
2416.000000	97.657178 
2415.000000	97.658276 
2414.000000	97.658618 
2413.000000	97.658077 
2412.000000	97.657315 
2411.000000	97.657318 
2410.000000	97.658440 
2409.000000	97.660137 
2408.000000	97.661634 
2407.000000	97.662565 
2406.000000	97.663157 
2405.000000	97.663802 
2404.000000	97.664669 
2403.000000	97.665660 
2402.000000	97.666660 
2401.000000	97.667702 
2400.000000	97.668791 
2399.000000	97.669769 
2398.000000	97.670542 
2397.000000	97.671406 
2396.000000	97.672853 
2395.000000	97.674976 
2394.000000	97.677307 
2393.000000	97.679323 
2392.000000	97.681006 
2391.000000	97.682644 
2390.000000	97.684402 
2389.000000	97.686267 
2388.000000	97.688244 
2387.000000	97.690375 
2386.000000	97.692614 
2385.000000	97.694818 
2384.000000	97.696871 
2383.000000	97.698780 
2382.000000	97.700626 
2381.000000	97.702479 
2380.000000	97.704348 
2379.000000	97.706202 
2378.000000	97.708010 
2377.000000	97.709766 
2376.000000	97.711483 
2375.000000	97.713172 
2374.000000	97.714839 
2373.000000	97.716494 
2372.000000	97.718141 
2371.000000	97.719769 
2370.000000	97.721334 
2369.000000	97.722768 
2368.000000	97.724034 
2367.000000	97.725153 
2366.000000	97.726192 
2365.000000	97.727209 
2364.000000	97.728222 
2363.000000	97.729216 
2362.000000	97.730170 
2361.000000	97.731076 
2360.000000	97.731923 
2359.000000	97.732687 
2358.000000	97.733336 
2357.000000	97.733851 
2356.000000	97.734228 
2355.000000	97.734468 
2354.000000	97.734576 
2353.000000	97.734574 
2352.000000	97.734500 
2351.000000	97.734386 
2350.000000	97.734228 
2349.000000	97.734001 
2348.000000	97.733694 
2347.000000	97.733326 
2346.000000	97.732925 
2345.000000	97.732496 
2344.000000	97.732017 
2343.000000	97.731466 
2342.000000	97.730848 
2341.000000	97.730191 
2340.000000	97.729521 
2339.000000	97.728832 
2338.000000	97.728102 
2337.000000	97.727313 
2336.000000	97.726466 
2335.000000	97.725568 
2334.000000	97.724623 
2333.000000	97.723626 
2332.000000	97.722580 
2331.000000	97.721495 
2330.000000	97.720373 
2329.000000	97.719214 
2328.000000	97.718026 
2327.000000	97.716831 
2326.000000	97.715653 
2325.000000	97.714497 
2324.000000	97.713344 
2323.000000	97.712166 
2322.000000	97.710937 
2321.000000	97.709653 
2320.000000	97.708319 
2319.000000	97.706944 
2318.000000	97.705529 
2317.000000	97.704072 
2316.000000	97.702584 
2315.000000	97.701090 
2314.000000	97.699622 
2313.000000	97.698208 
2312.000000	97.696864 
2311.000000	97.695590 
2310.000000	97.694368 
2309.000000	97.693170 
2308.000000	97.691983 
2307.000000	97.690814 
2306.000000	97.689676 
2305.000000	97.688563 
2304.000000	97.687526 
2303.000000	97.686532 
2302.000000	97.685421 
2301.000000	97.684309 
2300.000000	97.683566 
2299.000000	97.683191 
2298.000000	97.682561 
2297.000000	97.680991 
2296.000000	97.678408 
2295.000000	97.675429 
2294.000000	97.672934 
2293.000000	97.671402 
2292.000000	97.670649 
2291.000000	97.670169 
2290.000000	97.669798 
2289.000000	97.669672 
2288.000000	97.669557 
2287.000000	97.668574 
2286.000000	97.666059 
2285.000000	97.662490 
2284.000000	97.659178 
2283.000000	97.657064 
2282.000000	97.656137 
2281.000000	97.655759 
2280.000000	97.655025 
2279.000000	97.652960 
2278.000000	97.649291 
2277.000000	97.645459 
2276.000000	97.644003 
2275.000000	97.646244 
2274.000000	97.650928 
2273.000000	97.655547 
2272.000000	97.658729 
2271.000000	97.660813 
2270.000000	97.662640 
2269.000000	97.664639 
2268.000000	97.666714 
2267.000000	97.667970 
2266.000000	97.666672 
2265.000000	97.661692 
2264.000000	97.654220 
2263.000000	97.647518 
2262.000000	97.644743 
2261.000000	97.646828 
2260.000000	97.651602 
2259.000000	97.654315 
2258.000000	97.650619 
2257.000000	97.640350 
2256.000000	97.628436 
2255.000000	97.620648 
2254.000000	97.617782 
2253.000000	97.616100 
2252.000000	97.613047 
2251.000000	97.610266 
2250.000000	97.609951 
2249.000000	97.610997 
2248.000000	97.611135 
2247.000000	97.611150 
2246.000000	97.613870 
2245.000000	97.619519 
2244.000000	97.624367 
2243.000000	97.624899 
2242.000000	97.621564 
2241.000000	97.617586 
2240.000000	97.614989 
2239.000000	97.612834 
2238.000000	97.609444 
2237.000000	97.604922 
2236.000000	97.600936 
2235.000000	97.598624 
2234.000000	97.597484 
2233.000000	97.596371 
2232.000000	97.594973 
2231.000000	97.593768 
2230.000000	97.592724 
2229.000000	97.590922 
2228.000000	97.587861 
2227.000000	97.584567 
2226.000000	97.582676 
2225.000000	97.582624 
2224.000000	97.583361 
2223.000000	97.583880 
2222.000000	97.584305 
2221.000000	97.585059 
2220.000000	97.585746 
2219.000000	97.585418 
2218.000000	97.583890 
2217.000000	97.582040 
2216.000000	97.580848 
2215.000000	97.580427 
2214.000000	97.580154 
2213.000000	97.579448 
2212.000000	97.578329 
2211.000000	97.577226 
2210.000000	97.576448 
2209.000000	97.575937 
2208.000000	97.575494 
2207.000000	97.574990 
2206.000000	97.574433 
2205.000000	97.573897 
2204.000000	97.573449 
2203.000000	97.573111 
2202.000000	97.572872 
2201.000000	97.572722 
2200.000000	97.572652 
2199.000000	97.572656 
2198.000000	97.572728 
2197.000000	97.572885 
2196.000000	97.573163 
2195.000000	97.573588 
2194.000000	97.574159 
2193.000000	97.574859 
2192.000000	97.575671 
2191.000000	97.576572 
2190.000000	97.577524 
2189.000000	97.578487 
2188.000000	97.579443 
2187.000000	97.580404 
2186.000000	97.581382 
2185.000000	97.582380 
2184.000000	97.583402 
2183.000000	97.584467 
2182.000000	97.585595 
2181.000000	97.586784 
2180.000000	97.588009 
2179.000000	97.589255 
2178.000000	97.590540 
2177.000000	97.591865 
2176.000000	97.593247 
2175.000000	97.594736 
2174.000000	97.596401 
2173.000000	97.598330 
2172.000000	97.600573 
2171.000000	97.602991 
2170.000000	97.605305 
2169.000000	97.607164 
2168.000000	97.608266 
2167.000000	97.608845 
2166.000000	97.609663 
2165.000000	97.611193 
2164.000000	97.612996 
2163.000000	97.614525 
2162.000000	97.616055 
2161.000000	97.618315 
2160.000000	97.621425 
2159.000000	97.624553 
2158.000000	97.626825 
2157.000000	97.628376 
2156.000000	97.630106 
2155.000000	97.632525 
2154.000000	97.635324 
2153.000000	97.638132 
2152.000000	97.641008 
2151.000000	97.643642 
2150.000000	97.644606 
2149.000000	97.642587 
2148.000000	97.638469 
2147.000000	97.635493 
2146.000000	97.636282 
2145.000000	97.640439 
2144.000000	97.645136 
2143.000000	97.648185 
2142.000000	97.649947 
2141.000000	97.651975 
2140.000000	97.654749 
2139.000000	97.657298 
2138.000000	97.658695 
2137.000000	97.659105 
2136.000000	97.659187 
2135.000000	97.658985 
2134.000000	97.658035 
2133.000000	97.656542 
2132.000000	97.655506 
2131.000000	97.654964 
2130.000000	97.652776 
2129.000000	97.646439 
2128.000000	97.636756 
2127.000000	97.629369 
2126.000000	97.629883 
2125.000000	97.638787 
2124.000000	97.651299 
2123.000000	97.661268 
2122.000000	97.666281 
2121.000000	97.667306 
2120.000000	97.666240 
2119.000000	97.664526 
2118.000000	97.663163 
2117.000000	97.662978 
2116.000000	97.664146 
2115.000000	97.665764 
2114.000000	97.666555 
2113.000000	97.666207 
2112.000000	97.665694 
2111.000000	97.666084 
2110.000000	97.667393 
2109.000000	97.668990 
2108.000000	97.670861 
2107.000000	97.673677 
2106.000000	97.677393 
2105.000000	97.680630 
2104.000000	97.682124 
2103.000000	97.682170 
2102.000000	97.681907 
2101.000000	97.681450 
2100.000000	97.679977 
2099.000000	97.677495 
2098.000000	97.675392 
2097.000000	97.675002 
2096.000000	97.676459 
2095.000000	97.679219 
2094.000000	97.682855 
2093.000000	97.686848 
2092.000000	97.690117 
2091.000000	97.691668 
2090.000000	97.691686 
2089.000000	97.691495 
2088.000000	97.692308 
2087.000000	97.693844 
2086.000000	97.694444 
2085.000000	97.692960 
2084.000000	97.689895 
2083.000000	97.686824 
2082.000000	97.684959 
2081.000000	97.683858 
2080.000000	97.682416 
2079.000000	97.680635 
2078.000000	97.679506 
2077.000000	97.679294 
2076.000000	97.679087 
2075.000000	97.678011 
2074.000000	97.676070 
2073.000000	97.673680 
2072.000000	97.671072 
2071.000000	97.668406 
2070.000000	97.666041 
2069.000000	97.664327 
2068.000000	97.663577 
2067.000000	97.664336 
2066.000000	97.666918 
2065.000000	97.670332 
2064.000000	97.672216 
2063.000000	97.670913 
2062.000000	97.667385 
2061.000000	97.664717 
2060.000000	97.665341 
2059.000000	97.668979 
2058.000000	97.673131 
2057.000000	97.675234 
2056.000000	97.674152 
2055.000000	97.670415 
2054.000000	97.665931 
2053.000000	97.663103 
2052.000000	97.663391 
2051.000000	97.665648 
2050.000000	97.666363 
2049.000000	97.662770 
2048.000000	97.656348 
2047.000000	97.652251 
2046.000000	97.654178 
2045.000000	97.660775 
2044.000000	97.667717 
2043.000000	97.672153 
2042.000000	97.674230 
2041.000000	97.675342 
2040.000000	97.676323 
2039.000000	97.677607 
2038.000000	97.679591 
2037.000000	97.682247 
2036.000000	97.685393 
2035.000000	97.689622 
2034.000000	97.695899 
2033.000000	97.703644 
2032.000000	97.710259 
2031.000000	97.713502 
2030.000000	97.713303 
2029.000000	97.710639 
2028.000000	97.705917 
2027.000000	97.699757 
2026.000000	97.694647 
2025.000000	97.693866 
2024.000000	97.698337 
2023.000000	97.705389 
2022.000000	97.710890 
2021.000000	97.712454 
2020.000000	97.710277 
2019.000000	97.705882 
2018.000000	97.701016 
2017.000000	97.697333 
2016.000000	97.695655 
2015.000000	97.694972 
2014.000000	97.692665 
2013.000000	97.686357 
2012.000000	97.676140 
2011.000000	97.665517 
2010.000000	97.659556 
2009.000000	97.660929 
2008.000000	97.667577 
2007.000000	97.674277 
2006.000000	97.677642 
2005.000000	97.679008 
2004.000000	97.682062 
2003.000000	97.688369 
2002.000000	97.695064 
2001.000000	97.696821 
2000.000000	97.690752 
1999.000000	97.678554 
1998.000000	97.665528 
1997.000000	97.657074 
1996.000000	97.655160 
1995.000000	97.658379 
1994.000000	97.663046 
1993.000000	97.665451 
1992.000000	97.664261 
1991.000000	97.660676 
1990.000000	97.656736 
1989.000000	97.653335 
1988.000000	97.649973 
1987.000000	97.645961 
1986.000000	97.641395 
1985.000000	97.637075 
1984.000000	97.633789 
1983.000000	97.631885 
1982.000000	97.631317 
1981.000000	97.631711 
1980.000000	97.632491 
1979.000000	97.633202 
1978.000000	97.633604 
1977.000000	97.633553 
1976.000000	97.633095 
1975.000000	97.632893 
1974.000000	97.634255 
1973.000000	97.638093 
1972.000000	97.643722 
1971.000000	97.648974 
1970.000000	97.651807 
1969.000000	97.651779 
1968.000000	97.649875 
1967.000000	97.647440 
1966.000000	97.645680 
1965.000000	97.645555 
1964.000000	97.647512 
1963.000000	97.651013 
1962.000000	97.654598 
1961.000000	97.656963 
1960.000000	97.657732 
1959.000000	97.657252 
1958.000000	97.656210 
1957.000000	97.656061 
1956.000000	97.658419 
1955.000000	97.663176 
1954.000000	97.667704 
1953.000000	97.669227 
1952.000000	97.668101 
1951.000000	97.666751 
1950.000000	97.667316 
1949.000000	97.670502 
1948.000000	97.675074 
1947.000000	97.678302 
1946.000000	97.677981 
1945.000000	97.674758 
1944.000000	97.671625 
1943.000000	97.670444 
1942.000000	97.670114 
1941.000000	97.668983 
1940.000000	97.667461 
1939.000000	97.666785 
1938.000000	97.666946 
1937.000000	97.667789 
1936.000000	97.670639 
1935.000000	97.676316 
1934.000000	97.682632 
1933.000000	97.686915 
1932.000000	97.689938 
1931.000000	97.694594 
1930.000000	97.701818 
1929.000000	97.709894 
1928.000000	97.716969 
1927.000000	97.721146 
1926.000000	97.719993 
1925.000000	97.713734 
1924.000000	97.707414 
1923.000000	97.706300 
1922.000000	97.708493 
1921.000000	97.706855 
1920.000000	97.698091 
1919.000000	97.684484 
1918.000000	97.668400 
1917.000000	97.650458 
1916.000000	97.634455 
1915.000000	97.628440 
1914.000000	97.636281 
1913.000000	97.651619 
1912.000000	97.663573 
1911.000000	97.667938 
1910.000000	97.667846 
1909.000000	97.665429 
1908.000000	97.659674 
1907.000000	97.651279 
1906.000000	97.643776 
1905.000000	97.639220 
1904.000000	97.636461 
1903.000000	97.635085 
1902.000000	97.636310 
1901.000000	97.639123 
1900.000000	97.641060 
1899.000000	97.642861 
1898.000000	97.648049 
1897.000000	97.657450 
1896.000000	97.666989 
1895.000000	97.672689 
1894.000000	97.674926 
1893.000000	97.675968 
1892.000000	97.676913 
1891.000000	97.678423 
1890.000000	97.681728 
1889.000000	97.686729 
1888.000000	97.690990 
1887.000000	97.693115 
1886.000000	97.694555 
1885.000000	97.697097 
1884.000000	97.700779 
1883.000000	97.704932 
1882.000000	97.709753 
1881.000000	97.715730 
1880.000000	97.722660 
1879.000000	97.728996 
1878.000000	97.731688 
1877.000000	97.728062 
1876.000000	97.718095 
1875.000000	97.704257 
1874.000000	97.689508 
1873.000000	97.676086 
1872.000000	97.666447 
1871.000000	97.663811 
1870.000000	97.670173 
1869.000000	97.683148 
1868.000000	97.695744 
1867.000000	97.702623 
1866.000000	97.703508 
1865.000000	97.699782 
1864.000000	97.693261 
1863.000000	97.687526 
1862.000000	97.686361 
1861.000000	97.690137 
1860.000000	97.695522 
1859.000000	97.699468 
1858.000000	97.701982 
1857.000000	97.704016 
1856.000000	97.705160 
1855.000000	97.704704 
1854.000000	97.703309 
1853.000000	97.702410 
1852.000000	97.702896 
1851.000000	97.704604 
1850.000000	97.706457 
1849.000000	97.707306 
1848.000000	97.706907 
1847.000000	97.706229 
1846.000000	97.706458 
1845.000000	97.707746 
1844.000000	97.709062 
1843.000000	97.709580 
1842.000000	97.709620 
1841.000000	97.709807 
1840.000000	97.710317 
1839.000000	97.710880 
1838.000000	97.711218 
1837.000000	97.711416 
1836.000000	97.711732 
1835.000000	97.712206 
1834.000000	97.712757 
1833.000000	97.713373 
1832.000000	97.714031 
1831.000000	97.714702 
1830.000000	97.715357 
1829.000000	97.715983 
1828.000000	97.716580 
1827.000000	97.717156 
1826.000000	97.717726 
1825.000000	97.718309 
1824.000000	97.718919 
1823.000000	97.719572 
1822.000000	97.720277 
1821.000000	97.721036 
1820.000000	97.721842 
1819.000000	97.722684 
1818.000000	97.723560 
1817.000000	97.724471 
1816.000000	97.725417 
1815.000000	97.726394 
1814.000000	97.727404 
1813.000000	97.728451 
1812.000000	97.729528 
1811.000000	97.730611 
1810.000000	97.731675 
1809.000000	97.732718 
1808.000000	97.733754 
1807.000000	97.734793 
1806.000000	97.735865 
1805.000000	97.737026 
1804.000000	97.738318 
1803.000000	97.739661 
1802.000000	97.740881 
1801.000000	97.741848 
1800.000000	97.742587 
1799.000000	97.743248 
1798.000000	97.744110 
1797.000000	97.745476 
1796.000000	97.747268 
1795.000000	97.749002 
1794.000000	97.750269 
1793.000000	97.751166 
1792.000000	97.752143 
1791.000000	97.753266 
1790.000000	97.754343 
1789.000000	97.755481 
1788.000000	97.756921 
1787.000000	97.758737 
1786.000000	97.760950 
1785.000000	97.763522 
1784.000000	97.766126 
1783.000000	97.768627 
1782.000000	97.770976 
1781.000000	97.772920 
1780.000000	97.774394 
1779.000000	97.775788 
1778.000000	97.778056 
1777.000000	97.781356 
1776.000000	97.784403 
1775.000000	97.785819 
1774.000000	97.785030 
1773.000000	97.782917 
1772.000000	97.781540 
1771.000000	97.781402 
1770.000000	97.781155 
1769.000000	97.780388 
1768.000000	97.780083 
1767.000000	97.780752 
1766.000000	97.781546 
1765.000000	97.781622 
1764.000000	97.781039 
1763.000000	97.780086 
1762.000000	97.778958 
1761.000000	97.778396 
1760.000000	97.779401 
1759.000000	97.782206 
1758.000000	97.785984 
1757.000000	97.789137 
1756.000000	97.790837 
1755.000000	97.790907 
1754.000000	97.788771 
1753.000000	97.783795 
1752.000000	97.776881 
1751.000000	97.771399 
1750.000000	97.770268 
1749.000000	97.773153 
1748.000000	97.777578 
1747.000000	97.781415 
1746.000000	97.783567 
1745.000000	97.784395 
1744.000000	97.785129 
1743.000000	97.785724 
1742.000000	97.784851 
1741.000000	97.782496 
1740.000000	97.780809 
1739.000000	97.781597 
1738.000000	97.783827 
1737.000000	97.785534 
1736.000000	97.785722 
1735.000000	97.783752 
1734.000000	97.779788 
1733.000000	97.776353 
1732.000000	97.776765 
1731.000000	97.781380 
1730.000000	97.787070 
1729.000000	97.789545 
1728.000000	97.787960 
1727.000000	97.785010 
1726.000000	97.783037 
1725.000000	97.782056 
1724.000000	97.781612 
1723.000000	97.782496 
1722.000000	97.786318 
1721.000000	97.792186 
1720.000000	97.796052 
1719.000000	97.792720 
1718.000000	97.781106 
1717.000000	97.768214 
1716.000000	97.759150 
1715.000000	97.752250 
1714.000000	97.746960 
1713.000000	97.743770 
1712.000000	97.741705 
1711.000000	97.740504 
1710.000000	97.741018 
1709.000000	97.742901 
1708.000000	97.744223 
1707.000000	97.742942 
1706.000000	97.738734 
1705.000000	97.732605 
1704.000000	97.723401 
1703.000000	97.710856 
1702.000000	97.697028 
1701.000000	97.685510 
1700.000000	97.676643 
1699.000000	97.666750 
1698.000000	97.658522 
1697.000000	97.656307 
1696.000000	97.657868 
1695.000000	97.656699 
1694.000000	97.651576 
1693.000000	97.645513 
1692.000000	97.639018 
1691.000000	97.632405 
1690.000000	97.626590 
1689.000000	97.620439 
1688.000000	97.611824 
1687.000000	97.601044 
1686.000000	97.591117 
1685.000000	97.584775 
1684.000000	97.580334 
1683.000000	97.574766 
1682.000000	97.567639 
1681.000000	97.558262 
1680.000000	97.547743 
1679.000000	97.537814 
1678.000000	97.529317 
1677.000000	97.521429 
1676.000000	97.514278 
1675.000000	97.507891 
1674.000000	97.499257 
1673.000000	97.487047 
1672.000000	97.474564 
1671.000000	97.465903 
1670.000000	97.461571 
1669.000000	97.454844 
1668.000000	97.441975 
1667.000000	97.428018 
1666.000000	97.416806 
1665.000000	97.408380 
1664.000000	97.402285 
1663.000000	97.398760 
1662.000000	97.395751 
1661.000000	97.388345 
1660.000000	97.377669 
1659.000000	97.369329 
1658.000000	97.366948 
1657.000000	97.365632 
1656.000000	97.360727 
1655.000000	97.349958 
1654.000000	97.335500 
1653.000000	97.317701 
1652.000000	97.296127 
1651.000000	97.284653 
1650.000000	97.283687 
1649.000000	97.282893 
1648.000000	97.278319 
1647.000000	97.275215 
1646.000000	97.273723 
1645.000000	97.270545 
1644.000000	97.265245 
1643.000000	97.260599 
1642.000000	97.257309 
1641.000000	97.254280 
1640.000000	97.248713 
1639.000000	97.239248 
1638.000000	97.229979 
1637.000000	97.228112 
1636.000000	97.235605 
1635.000000	97.244240 
1634.000000	97.247340 
1633.000000	97.248504 
1632.000000	97.250126 
1631.000000	97.251862 
1630.000000	97.253986 
1629.000000	97.256004 
1628.000000	97.259821 
1627.000000	97.270018 
1626.000000	97.287222 
1625.000000	97.305604 
1624.000000	97.318939 
1623.000000	97.326952 
1622.000000	97.333084 
1621.000000	97.337688 
1620.000000	97.340078 
1619.000000	97.341681 
1618.000000	97.345867 
1617.000000	97.353492 
1616.000000	97.363060 
1615.000000	97.376354 
1614.000000	97.391936 
1613.000000	97.402760 
1612.000000	97.405283 
1611.000000	97.404059 
1610.000000	97.405824 
1609.000000	97.412559 
1608.000000	97.423027 
1607.000000	97.435831 
1606.000000	97.447410 
1605.000000	97.454136 
1604.000000	97.457979 
1603.000000	97.464080 
1602.000000	97.474149 
1601.000000	97.485348 
1600.000000	97.495273 
1599.000000	97.504265 
1598.000000	97.512784 
1597.000000	97.520753 
1596.000000	97.528857 
1595.000000	97.538118 
1594.000000	97.547960 
1593.000000	97.556395 
1592.000000	97.563030 
1591.000000	97.569827 
1590.000000	97.578176 
1589.000000	97.587208 
1588.000000	97.596126 
1587.000000	97.605513 
1586.000000	97.614619 
1585.000000	97.620440 
1584.000000	97.622572 
1583.000000	97.624920 
1582.000000	97.630210 
1581.000000	97.636820 
1580.000000	97.641926 
1579.000000	97.644810 
1578.000000	97.646299 
1577.000000	97.648024 
1576.000000	97.652388 
1575.000000	97.662095 
1574.000000	97.675804 
1573.000000	97.688449 
1572.000000	97.697993 
1571.000000	97.705853 
1570.000000	97.712596 
1569.000000	97.715602 
1568.000000	97.716196 
1567.000000	97.718647 
1566.000000	97.723208 
1565.000000	97.726410 
1564.000000	97.728008 
1563.000000	97.728513 
1562.000000	97.728726 
1561.000000	97.728921 
1560.000000	97.731633 
1559.000000	97.742050 
1558.000000	97.751630 
1557.000000	97.750946 
1556.000000	97.746169 
1555.000000	97.745748 
1554.000000	97.748102 
1553.000000	97.752874 
1552.000000	97.758331 
1551.000000	97.762110 
1550.000000	97.760392 
1549.000000	97.753732 
1548.000000	97.746588 
1547.000000	97.743223 
1546.000000	97.742836 
1545.000000	97.742345 
1544.000000	97.740943 
1543.000000	97.739475 
1542.000000	97.738486 
1541.000000	97.737849 
1540.000000	97.733467 
1539.000000	97.723670 
1538.000000	97.714738 
1537.000000	97.710594 
1536.000000	97.709247 
1535.000000	97.708712 
1534.000000	97.708871 
1533.000000	97.708848 
1532.000000	97.707095 
1531.000000	97.703296 
1530.000000	97.699726 
1529.000000	97.697446 
1528.000000	97.694755 
1527.000000	97.690319 
1526.000000	97.685049 
1525.000000	97.680863 
1524.000000	97.678297 
1523.000000	97.675816 
1522.000000	97.671441 
1521.000000	97.664451 
1520.000000	97.656171 
1519.000000	97.648389 
1518.000000	97.640947 
1517.000000	97.633229 
1516.000000	97.625799 
1515.000000	97.620073 
1514.000000	97.616653 
1513.000000	97.614440 
1512.000000	97.610874 
1511.000000	97.603809 
1510.000000	97.593655 
1509.000000	97.582763 
1508.000000	97.573735 
1507.000000	97.567640 
1506.000000	97.562546 
1505.000000	97.556623 
1504.000000	97.550833 
1503.000000	97.544997 
1502.000000	97.537319 
1501.000000	97.527840 
1500.000000	97.518267 
1499.000000	97.510404 
1498.000000	97.503977 
1497.000000	97.497724 
1496.000000	97.490227 
1495.000000	97.481511 
1494.000000	97.474138 
1493.000000	97.470641 
1492.000000	97.470721 
1491.000000	97.470108 
1490.000000	97.463979 
1489.000000	97.452871 
1488.000000	97.440636 
1487.000000	97.429073 
1486.000000	97.418598 
1485.000000	97.407928 
1484.000000	97.396207 
1483.000000	97.384556 
1482.000000	97.373922 
1481.000000	97.364312 
1480.000000	97.355029 
1479.000000	97.346045 
1478.000000	97.337676 
1477.000000	97.329221 
1476.000000	97.318286 
1475.000000	97.303497 
1474.000000	97.287536 
1473.000000	97.276032 
1472.000000	97.270980 
1471.000000	97.266932 
1470.000000	97.260060 
1469.000000	97.252093 
1468.000000	97.244825 
1467.000000	97.237564 
1466.000000	97.228938 
1465.000000	97.219122 
1464.000000	97.209383 
1463.000000	97.199344 
1462.000000	97.189105 
1461.000000	97.180761 
1460.000000	97.175638 
1459.000000	97.171612 
1458.000000	97.161374 
1457.000000	97.141757 
1456.000000	97.121123 
1455.000000	97.106012 
1454.000000	97.093046 
1453.000000	97.079952 
1452.000000	97.069743 
1451.000000	97.066296 
1450.000000	97.068900 
1449.000000	97.074987 
1448.000000	97.081701 
1447.000000	97.085900 
1446.000000	97.085597 
1445.000000	97.082515 
1444.000000	97.079869 
1443.000000	97.076317 
1442.000000	97.068945 
1441.000000	97.059018 
1440.000000	97.051727 
1439.000000	97.049564 
1438.000000	97.048531 
1437.000000	97.043443 
1436.000000	97.034761 
1435.000000	97.025400 
1434.000000	97.016777 
1433.000000	97.010879 
1432.000000	97.008139 
1431.000000	97.006701 
1430.000000	97.003989 
1429.000000	97.000632 
1428.000000	96.998248 
1427.000000	96.995914 
1426.000000	96.990953 
1425.000000	96.982755 
1424.000000	96.976657 
1423.000000	96.975240 
1422.000000	96.973894 
1421.000000	96.969000 
1420.000000	96.961669 
1419.000000	96.951513 
1418.000000	96.934850 
1417.000000	96.914845 
1416.000000	96.900605 
1415.000000	96.895898 
1414.000000	96.895086 
1413.000000	96.890311 
1412.000000	96.879855 
1411.000000	96.867191 
1410.000000	96.855477 
1409.000000	96.848297 
1408.000000	96.849119 
1407.000000	96.857549 
1406.000000	96.868843 
1405.000000	96.879689 
1404.000000	96.892876 
1403.000000	96.909927 
1402.000000	96.928297 
1401.000000	96.947520 
1400.000000	96.969513 
1399.000000	96.991379 
1398.000000	97.002537 
1397.000000	96.995422 
1396.000000	96.974643 
1395.000000	96.956069 
1394.000000	96.954683 
1393.000000	96.973664 
1392.000000	97.007445 
1391.000000	97.046297 
1390.000000	97.079801 
1389.000000	97.101088 
1388.000000	97.109050 
1387.000000	97.108048 
1386.000000	97.104846 
1385.000000	97.105060 
1384.000000	97.111876 
1383.000000	97.124941 
1382.000000	97.141245 
1381.000000	97.158572 
1380.000000	97.176234 
1379.000000	97.193912 
1378.000000	97.211182 
1377.000000	97.228353 
1376.000000	97.246035 
1375.000000	97.263319 
1374.000000	97.277633 
1373.000000	97.288647 
1372.000000	97.300699 
1371.000000	97.319406 
1370.000000	97.345964 
1369.000000	97.374990 
1368.000000	97.400659 
1367.000000	97.421726 
1366.000000	97.441025 
1365.000000	97.461914 
1364.000000	97.484124 
1363.000000	97.503063 
1362.000000	97.514917 
1361.000000	97.521971 
1360.000000	97.530994 
1359.000000	97.546626 
1358.000000	97.567203 
1357.000000	97.587299 
1356.000000	97.603541 
1355.000000	97.616287 
1354.000000	97.627088 
1353.000000	97.637488 
1352.000000	97.648168 
1351.000000	97.659890 
1350.000000	97.673463 
1349.000000	97.686243 
1348.000000	97.695334 
1347.000000	97.701678 
1346.000000	97.709518 
1345.000000	97.720973 
1344.000000	97.733699 
1343.000000	97.744202 
1342.000000	97.751570 
1341.000000	97.756716 
1340.000000	97.760247 
1339.000000	97.762407 
1338.000000	97.763810 
1337.000000	97.765890 
1336.000000	97.769822 
1335.000000	97.774478 
1334.000000	97.777224 
1333.000000	97.776881 
1332.000000	97.774727 
1331.000000	97.773277 
1330.000000	97.774267 
1329.000000	97.777518 
1328.000000	97.781473 
1327.000000	97.784997 
1326.000000	97.787981 
1325.000000	97.790016 
1324.000000	97.790987 
1323.000000	97.790534 
1322.000000	97.787620 
1321.000000	97.782115 
1320.000000	97.776242 
1319.000000	97.772586 
1318.000000	97.771472 
1317.000000	97.772464 
1316.000000	97.776518 
1315.000000	97.783681 
1314.000000	97.790034 
1313.000000	97.791048 
1312.000000	97.787309 
1311.000000	97.783623 
1310.000000	97.782634 
1309.000000	97.783003 
1308.000000	97.783589 
1307.000000	97.785911 
1306.000000	97.790991 
1305.000000	97.796040 
1304.000000	97.797569 
1303.000000	97.794885 
1302.000000	97.789904 
1301.000000	97.784931 
1300.000000	97.781701 
1299.000000	97.780889 
1298.000000	97.781754 
1297.000000	97.783213 
1296.000000	97.785260 
1295.000000	97.788265 
1294.000000	97.790870 
1293.000000	97.791256 
1292.000000	97.790542 
1291.000000	97.791961 
1290.000000	97.795791 
1289.000000	97.797811 
1288.000000	97.794591 
1287.000000	97.788371 
1286.000000	97.784053 
1285.000000	97.782942 
1284.000000	97.782537 
1283.000000	97.781037 
1282.000000	97.779088 
1281.000000	97.777314 
1280.000000	97.775053 
1279.000000	97.772536 
1278.000000	97.772156 
1277.000000	97.775920 
1276.000000	97.782263 
1275.000000	97.787343 
1274.000000	97.789354 
1273.000000	97.790205 
1272.000000	97.792415 
1271.000000	97.795382 
1270.000000	97.795862 
1269.000000	97.791747 
1268.000000	97.784278 
1267.000000	97.776429 
1266.000000	97.770014 
1265.000000	97.765423 
1264.000000	97.763298 
1263.000000	97.764856 
1262.000000	97.770407 
1261.000000	97.778120 
1260.000000	97.784714 
1259.000000	97.787481 
1258.000000	97.785618 
1257.000000	97.780315 
1256.000000	97.773704 
1255.000000	97.768054 
1254.000000	97.765471 
1253.000000	97.766622 
1252.000000	97.768615 
1251.000000	97.766284 
1250.000000	97.758395 
1249.000000	97.751629 
1248.000000	97.754522 
1247.000000	97.766221 
1246.000000	97.774567 
1245.000000	97.768420 
1244.000000	97.750230 
1243.000000	97.734625 
1242.000000	97.735620 
1241.000000	97.755887 
1240.000000	97.785899 
1239.000000	97.811015 
1238.000000	97.821321 
1237.000000	97.817177 
1236.000000	97.805527 
1235.000000	97.791465 
1234.000000	97.775518 
1233.000000	97.758491 
1232.000000	97.744038 
1231.000000	97.734130 
1230.000000	97.726273 
1229.000000	97.718701 
1228.000000	97.714257 
1227.000000	97.714457 
1226.000000	97.712833 
1225.000000	97.700013 
1224.000000	97.674721 
1223.000000	97.645416 
1222.000000	97.621143 
1221.000000	97.603836 
1220.000000	97.589152 
1219.000000	97.571067 
1218.000000	97.545406 
1217.000000	97.512178 
1216.000000	97.475038 
1215.000000	97.436843 
1214.000000	97.396496 
1213.000000	97.352032 
1212.000000	97.304684 
1211.000000	97.256395 
1210.000000	97.205088 
1209.000000	97.146738 
1208.000000	97.081629 
1207.000000	97.014780 
1206.000000	96.950256 
1205.000000	96.887974 
1204.000000	96.825564 
1203.000000	96.760555 
1202.000000	96.691763 
1201.000000	96.621142 
1200.000000	96.552842 
1199.000000	96.487804 
1198.000000	96.420967 
1197.000000	96.347042 
1196.000000	96.267057 
1195.000000	96.186015 
1194.000000	96.106555 
1193.000000	96.028435 
1192.000000	95.951350 
1191.000000	95.873080 
1190.000000	95.787316 
1189.000000	95.689546 
1188.000000	95.584178 
1187.000000	95.480357 
1186.000000	95.381461 
1185.000000	95.283974 
1184.000000	95.185300 
1183.000000	95.086079 
1182.000000	94.985213 
1181.000000	94.879209 
1180.000000	94.767323 
1179.000000	94.652260 
1178.000000	94.535442 
1177.000000	94.416381 
1176.000000	94.296001 
1175.000000	94.174993 
1174.000000	94.049677 
1173.000000	93.915715 
1172.000000	93.775540 
1171.000000	93.635526 
1170.000000	93.496600 
1169.000000	93.355408 
1168.000000	93.214743 
1167.000000	93.084582 
1166.000000	92.972660 
1165.000000	92.883246 
1164.000000	92.825745 
1163.000000	92.813112 
1162.000000	92.846652 
1161.000000	92.909091 
1160.000000	92.976042 
1159.000000	93.028871 
1158.000000	93.055461 
1157.000000	93.047637 
1156.000000	93.003405 
1155.000000	92.927706 
1154.000000	92.828094 
1153.000000	92.712620 
1152.000000	92.591862 
1151.000000	92.476592 
1150.000000	92.370650 
1149.000000	92.270473 
1148.000000	92.172382 
1147.000000	92.074867 
1146.000000	91.973865 
1145.000000	91.863405 
1144.000000	91.743033 
1143.000000	91.618858 
1142.000000	91.495963 
1141.000000	91.375392 
1140.000000	91.258623 
1139.000000	91.147446 
1138.000000	91.038460 
1137.000000	90.925318 
1136.000000	90.807793 
1135.000000	90.691428 
1134.000000	90.576956 
1133.000000	90.457242 
1132.000000	90.326324 
1131.000000	90.185695 
1130.000000	90.042160 
1129.000000	89.905652 
1128.000000	89.786186 
1127.000000	89.682736 
1126.000000	89.576353 
1125.000000	89.446069 
1124.000000	89.292430 
1123.000000	89.135236 
1122.000000	88.987530 
1121.000000	88.843417 
1120.000000	88.693520 
1119.000000	88.539193 
1118.000000	88.386760 
1117.000000	88.239101 
1116.000000	88.098424 
1115.000000	87.968050 
1114.000000	87.846857 
1113.000000	87.729749 
1112.000000	87.615818 
1111.000000	87.507324 
1110.000000	87.400025 
1109.000000	87.285111 
1108.000000	87.161394 
1107.000000	87.034704 
1106.000000	86.906077 
1105.000000	86.772838 
1104.000000	86.639946 
1103.000000	86.515691 
1102.000000	86.395657 
1101.000000	86.267565 
1100.000000	86.132709 
1099.000000	86.005179 
1098.000000	85.889963 
1097.000000	85.776134 
1096.000000	85.655880 
1095.000000	85.532542 
1094.000000	85.406251 
1093.000000	85.268971 
1092.000000	85.119919 
1091.000000	84.970602 
1090.000000	84.828673 
1089.000000	84.690438 
1088.000000	84.553227 
1087.000000	84.420333 
1086.000000	84.290018 
1085.000000	84.155027 
1084.000000	84.016747 
1083.000000	83.884521 
1082.000000	83.758158 
1081.000000	83.627784 
1080.000000	83.494041 
1079.000000	83.370582 
1078.000000	83.261914 
1077.000000	83.155801 
1076.000000	83.041977 
1075.000000	82.921275 
1074.000000	82.793184 
1073.000000	82.652428 
1072.000000	82.499933 
1071.000000	82.336643 
1070.000000	82.143629 
1069.000000	81.892978 
1068.000000	81.587228 
1067.000000	81.268854 
1066.000000	80.980873 
1065.000000	80.733494 
1064.000000	80.515246 
1063.000000	80.311412 
1062.000000	80.098815 
1061.000000	79.846918 
1060.000000	79.544642 
1059.000000	79.215073 
1058.000000	78.891082 
1057.000000	78.585833 
1056.000000	78.294389 
1055.000000	78.007995 
1054.000000	77.715799 
1053.000000	77.407373 
1052.000000	77.085261 
1051.000000	76.763116 
1050.000000	76.443613 
1049.000000	76.114113 
1048.000000	75.770937 
1047.000000	75.428334 
1046.000000	75.096707 
1045.000000	74.771163 
1044.000000	74.446554 
1043.000000	74.125004 
1042.000000	73.804075 
1041.000000	73.476328 
1040.000000	73.146480 
1039.000000	72.831741 
1038.000000	72.540252 
1037.000000	72.266017 
1036.000000	72.007153 
1035.000000	71.769633 
1034.000000	71.550591 
1033.000000	71.337892 
1032.000000	71.127671 
1031.000000	70.922525 
1030.000000	70.715189 
1029.000000	70.499597 
1028.000000	70.296725 
1027.000000	70.139767 
1026.000000	70.030440 
1025.000000	69.937044 
1024.000000	69.838501 
1023.000000	69.741072 
1022.000000	69.647780 
1021.000000	69.544675 
1020.000000	69.426546 
1019.000000	69.307149 
1018.000000	69.193808 
1017.000000	69.077397 
1016.000000	68.955395 
1015.000000	68.839229 
1014.000000	68.731415 
1013.000000	68.621307 
1012.000000	68.510205 
1011.000000	68.414364 
1010.000000	68.335977 
1009.000000	68.257268 
1008.000000	68.170852 
1007.000000	68.090861 
1006.000000	68.027139 
1005.000000	67.973425 
1004.000000	67.926809 
1003.000000	67.893630 
1002.000000	67.870920 
1001.000000	67.848083 
1000.000000	67.832039 
999.000000	 67.843597 
998.000000	 67.883149 
997.000000	 67.926683 
996.000000	 67.961913 
995.000000	 68.002028 
994.000000	 68.057576 
993.000000	 68.121818 
992.000000	 68.189873 
991.000000	 68.265529 
990.000000	 68.342980 
989.000000	 68.408696 
988.000000	 68.468072 
987.000000	 68.543793 
986.000000	 68.641610 
985.000000	 68.744045 
984.000000	 68.843543 
983.000000	 68.954421 
982.000000	 69.085060 
981.000000	 69.225283 
980.000000	 69.368849 
979.000000	 69.523416 
978.000000	 69.691505 
977.000000	 69.867013 
976.000000	 70.056135 
975.000000	 70.275044 
974.000000	 70.520185 
973.000000	 70.767009 
972.000000	 71.005390 
971.000000	 71.250698 
970.000000	 71.512840 
969.000000	 71.780995 
968.000000	 72.047314 
967.000000	 72.320354 
966.000000	 72.605164 
965.000000	 72.892964 
964.000000	 73.179558 
963.000000	 73.472641 
962.000000	 73.773015 
961.000000	 74.069208 
960.000000	 74.357325 
959.000000	 74.645650 
958.000000	 74.933636 
957.000000	 75.207332 
956.000000	 75.462426 
955.000000	 75.712171 
954.000000	 75.966202 
953.000000	 76.219538 
952.000000	 76.466977 
951.000000	 76.709160 
950.000000	 76.940559 
949.000000	 77.151042 
948.000000	 77.343460 
947.000000	 77.531213 
946.000000	 77.715569 
945.000000	 77.884462 
944.000000	 78.035601 
943.000000	 78.180033 
942.000000	 78.320166 
941.000000	 78.446035 
940.000000	 78.557713 
939.000000	 78.669813 
938.000000	 78.788234 
937.000000	 78.902920 
936.000000	 79.009762 
935.000000	 79.119580 
934.000000	 79.238926 
933.000000	 79.360837 
932.000000	 79.480506 
931.000000	 79.601912 
930.000000	 79.723832 
929.000000	 79.837131 
928.000000	 79.940818 
927.000000	 80.043702 
926.000000	 80.146357 
925.000000	 80.238745 
924.000000	 80.318983 
923.000000	 80.396787 
922.000000	 80.475024 
921.000000	 80.545147 
920.000000	 80.603648 
919.000000	 80.655913 
918.000000	 80.702272 
917.000000	 80.738462 
916.000000	 80.771518 
915.000000	 80.816543 
914.000000	 80.876051 
913.000000	 80.941210 
912.000000	 81.014548 
911.000000	 81.111531 
910.000000	 81.238477 
909.000000	 81.389756 
908.000000	 81.567708 
907.000000	 81.783193 
906.000000	 82.034255 
905.000000	 82.305304 
904.000000	 82.588884 
903.000000	 82.887630 
902.000000	 83.195170 
901.000000	 83.498286 
900.000000	 83.799531 
899.000000	 84.115828 
898.000000	 84.452490 
897.000000	 84.796678 
896.000000	 85.134728 
895.000000	 85.456540 
894.000000	 85.747964 
893.000000	 86.003084 
892.000000	 86.242390 
891.000000	 86.495391 
890.000000	 86.764435 
889.000000	 87.025957 
888.000000	 87.264395 
887.000000	 87.482095 
886.000000	 87.680612 
885.000000	 87.859709 
884.000000	 88.034121 
883.000000	 88.223207 
882.000000	 88.421132 
881.000000	 88.603694 
880.000000	 88.766329 
879.000000	 88.927742 
878.000000	 89.094698 
877.000000	 89.254559 
876.000000	 89.407821 
875.000000	 89.576024 
874.000000	 89.769467 
873.000000	 89.977294 
872.000000	 90.197286 
871.000000	 90.444813 
870.000000	 90.722188 
869.000000	 91.006979 
868.000000	 91.281294 
867.000000	 91.548341 
866.000000	 91.811688 
865.000000	 92.062702 
864.000000	 92.299037 
863.000000	 92.534144 
862.000000	 92.776862 
861.000000	 93.018690 
860.000000	 93.250249 
859.000000	 93.473537 
858.000000	 93.690319 
857.000000	 93.895026 
856.000000	 94.086839 
855.000000	 94.273213 
854.000000	 94.454326 
853.000000	 94.618624 
852.000000	 94.760076 
851.000000	 94.886434 
850.000000	 95.006329 
849.000000	 95.121879 
848.000000	 95.236520 
847.000000	 95.353997 
846.000000	 95.466523 
845.000000	 95.560351 
844.000000	 95.635177 
843.000000	 95.700965 
842.000000	 95.754818 
841.000000	 95.781536 
840.000000	 95.780338 
839.000000	 95.769661 
838.000000	 95.759530 
837.000000	 95.739505 
836.000000	 95.701663 
835.000000	 95.655899 
834.000000	 95.613458 
833.000000	 95.573652 
832.000000	 95.537135 
831.000000	 95.515164 
830.000000	 95.514343 
829.000000	 95.527418 
828.000000	 95.549960 
827.000000	 95.590846 
826.000000	 95.655424 
825.000000	 95.734180 
824.000000	 95.818465 
823.000000	 95.910078 
822.000000	 96.006104 
821.000000	 96.093586 
820.000000	 96.167320 
819.000000	 96.234203 
818.000000	 96.293725 
817.000000	 96.330963 
816.000000	 96.334753 
815.000000	 96.308216 
814.000000	 96.255691 
813.000000	 96.172388 
812.000000	 96.051428 
811.000000	 95.886126 
810.000000	 95.659204 
809.000000	 95.345546 
808.000000	 94.936294 
807.000000	 94.451185 
806.000000	 93.921297 
805.000000	 93.369684 
804.000000	 92.813452 
803.000000	 92.270118 
802.000000	 91.753801 
801.000000	 91.278434 
800.000000	 90.869903 
799.000000	 90.558530 
798.000000	 90.353142 
797.000000	 90.237769 
796.000000	 90.196080 
795.000000	 90.219658 
794.000000	 90.290731 
793.000000	 90.381031 
792.000000	 90.473872 
791.000000	 90.567218 
790.000000	 90.652149 
789.000000	 90.709992 
788.000000	 90.733733 
787.000000	 90.730080 
786.000000	 90.696794 
785.000000	 90.619617 
784.000000	 90.495499 
783.000000	 90.337964 
782.000000	 90.157494 
781.000000	 89.960681 
780.000000	 89.772301 
779.000000	 89.631781 
778.000000	 89.559701 
777.000000	 89.549450 
776.000000	 89.594709 
775.000000	 89.698243 
774.000000	 89.848201 
773.000000	 90.014816 
772.000000	 90.180645 
771.000000	 90.349644 
770.000000	 90.519176 
769.000000	 90.668785 
768.000000	 90.785133 
767.000000	 90.874360 
766.000000	 90.943467 
765.000000	 90.994174 
764.000000	 91.040426 
763.000000	 91.103464 
762.000000	 91.179778 
761.000000	 91.240873 
760.000000	 91.275844 
759.000000	 91.308545 
758.000000	 91.362385 
757.000000	 91.435889 
756.000000	 91.525158 
755.000000	 91.640954 
754.000000	 91.785346 
753.000000	 91.934960 
752.000000	 92.065096 
751.000000	 92.172658 
750.000000	 92.264549 
749.000000	 92.345331 
748.000000	 92.428643 
747.000000	 92.537449 
746.000000	 92.676483 
745.000000	 92.823604 
744.000000	 92.963040 
743.000000	 93.108309 
742.000000	 93.277856 
741.000000	 93.466936 
740.000000	 93.657703 
739.000000	 93.839681 
738.000000	 94.007523 
737.000000	 94.155917 
736.000000	 94.290504 
735.000000	 94.428439 
734.000000	 94.575698 
733.000000	 94.716884 
732.000000	 94.835655 
731.000000	 94.930656 
730.000000	 95.005852 
729.000000	 95.062711 
728.000000	 95.108851 
727.000000	 95.158172 
726.000000	 95.216108 
725.000000	 95.278685 
724.000000	 95.348322 
723.000000	 95.433105 
722.000000	 95.528614 
721.000000	 95.620326 
720.000000	 95.706873 
719.000000	 95.798450 
718.000000	 95.888798 
717.000000	 95.956649 
716.000000	 96.000743 
715.000000	 96.046152 
714.000000	 96.107578 
713.000000	 96.172352 
712.000000	 96.230689 
711.000000	 96.295054 
710.000000	 96.374088 
709.000000	 96.451896 
708.000000	 96.508967 
707.000000	 96.543443 
706.000000	 96.559249 
705.000000	 96.552680 
704.000000	 96.522644 
703.000000	 96.474425 
702.000000	 96.398650 
701.000000	 96.265893 
700.000000	 96.055968 
699.000000	 95.775728 
698.000000	 95.444692 
697.000000	 95.089426 
696.000000	 94.761998 
695.000000	 94.532609 
694.000000	 94.439185 
693.000000	 94.462478 
692.000000	 94.561564 
691.000000	 94.709930 
690.000000	 94.886359 
689.000000	 95.058383 
688.000000	 95.200632 
687.000000	 95.314955 
686.000000	 95.413104 
685.000000	 95.499745 
684.000000	 95.585830 
683.000000	 95.690125 
682.000000	 95.811595 
681.000000	 95.923607 
680.000000	 96.010209 
679.000000	 96.086673 
678.000000	 96.171836 
677.000000	 96.267287 
676.000000	 96.371635 
675.000000	 96.485849 
674.000000	 96.593079 
673.000000	 96.662881 
672.000000	 96.688466 
671.000000	 96.691530 
670.000000	 96.691003 
669.000000	 96.694490 
668.000000	 96.745541 
667.000000	 96.902751 
666.000000	 97.104881 
665.000000	 97.263683 
664.000000	 97.377630 
663.000000	 97.477613 
662.000000	 97.578358 
661.000000	 97.660933 
660.000000	 97.708566 
659.000000	 97.735948 
658.000000	 97.765455 
657.000000	 97.799785 
656.000000	 97.836077 
655.000000	 97.878652 
654.000000	 97.912717 
653.000000	 97.897969 
652.000000	 97.819472 
651.000000	 97.725821 
650.000000	 97.684783 

