4000.000000	97.406478 
3999.000000	97.405814 
3998.000000	97.404558 
3997.000000	97.403100 
3996.000000	97.401940 
3995.000000	97.401368 
3994.000000	97.401394 
3993.000000	97.401758 
3992.000000	97.402036 
3991.000000	97.401882 
3990.000000	97.401256 
3989.000000	97.400427 
3988.000000	97.399700 
3987.000000	97.399186 
3986.000000	97.398889 
3985.000000	97.398847 
3984.000000	97.399023 
3983.000000	97.399227 
3982.000000	97.399353 
3981.000000	97.399532 
3980.000000	97.399757 
3979.000000	97.399608 
3978.000000	97.398774 
3977.000000	97.397687 
3976.000000	97.397174 
3975.000000	97.397394 
3974.000000	97.397525 
3973.000000	97.396658 
3972.000000	97.394686 
3971.000000	97.392366 
3970.000000	97.390682 
3969.000000	97.390200 
3968.000000	97.390924 
3967.000000	97.392284 
3966.000000	97.393462 
3965.000000	97.393897 
3964.000000	97.393357 
3963.000000	97.391875 
3962.000000	97.389864 
3961.000000	97.388065 
3960.000000	97.387016 
3959.000000	97.386665 
3958.000000	97.386530 
3957.000000	97.386276 
3956.000000	97.385918 
3955.000000	97.385374 
3954.000000	97.384399 
3953.000000	97.382833 
3952.000000	97.380786 
3951.000000	97.378483 
3950.000000	97.375986 
3949.000000	97.373454 
3948.000000	97.371266 
3947.000000	97.369842 
3946.000000	97.369498 
3945.000000	97.370413 
3944.000000	97.372211 
3943.000000	97.373652 
3942.000000	97.373934 
3941.000000	97.373517 
3940.000000	97.373295 
3939.000000	97.373481 
3938.000000	97.373390 
3937.000000	97.372271 
3936.000000	97.370057 
3935.000000	97.367131 
3934.000000	97.364183 
3933.000000	97.362013 
3932.000000	97.361188 
3931.000000	97.361387 
3930.000000	97.361685 
3929.000000	97.361963 
3928.000000	97.362957 
3927.000000	97.364907 
3926.000000	97.366657 
3925.000000	97.366517 
3924.000000	97.364150 
3923.000000	97.360717 
3922.000000	97.357297 
3921.000000	97.354284 
3920.000000	97.351969 
3919.000000	97.350864 
3918.000000	97.351025 
3917.000000	97.351686 
3916.000000	97.352128 
3915.000000	97.352302 
3914.000000	97.352469 
3913.000000	97.352593 
3912.000000	97.352417 
3911.000000	97.352033 
3910.000000	97.351630 
3909.000000	97.351204 
3908.000000	97.350718 
3907.000000	97.349896 
3906.000000	97.348243 
3905.000000	97.345014 
3904.000000	97.340061 
3903.000000	97.334858 
3902.000000	97.331570 
3901.000000	97.331073 
3900.000000	97.332569 
3899.000000	97.334380 
3898.000000	97.335529 
3897.000000	97.335962 
3896.000000	97.335790 
3895.000000	97.335297 
3894.000000	97.334935 
3893.000000	97.334938 
3892.000000	97.334834 
3891.000000	97.333852 
3890.000000	97.331975 
3889.000000	97.329828 
3888.000000	97.328131 
3887.000000	97.327229 
3886.000000	97.326989 
3885.000000	97.326932 
3884.000000	97.326560 
3883.000000	97.325637 
3882.000000	97.324399 
3881.000000	97.323381 
3880.000000	97.322918 
3879.000000	97.322762 
3878.000000	97.322486 
3877.000000	97.322059 
3876.000000	97.321804 
3875.000000	97.321777 
3874.000000	97.321578 
3873.000000	97.320882 
3872.000000	97.319819 
3871.000000	97.318723 
3870.000000	97.317814 
3869.000000	97.317268 
3868.000000	97.317074 
3867.000000	97.316936 
3866.000000	97.316615 
3865.000000	97.316206 
3864.000000	97.315993 
3863.000000	97.316007 
3862.000000	97.315893 
3861.000000	97.315582 
3860.000000	97.315460 
3859.000000	97.315809 
3858.000000	97.316421 
3857.000000	97.316784 
3856.000000	97.316587 
3855.000000	97.315876 
3854.000000	97.314544 
3853.000000	97.312767 
3852.000000	97.311392 
3851.000000	97.310808 
3850.000000	97.310674 
3849.000000	97.310778 
3848.000000	97.311165 
3847.000000	97.311897 
3846.000000	97.312620 
3845.000000	97.312770 
3844.000000	97.312207 
3843.000000	97.311260 
3842.000000	97.310257 
3841.000000	97.309470 
3840.000000	97.309030 
3839.000000	97.308985 
3838.000000	97.309340 
3837.000000	97.309754 
3836.000000	97.309831 
3835.000000	97.309527 
3834.000000	97.309146 
3833.000000	97.309134 
3832.000000	97.309646 
3831.000000	97.310459 
3830.000000	97.311295 
3829.000000	97.312043 
3828.000000	97.312966 
3827.000000	97.314376 
3826.000000	97.315835 
3825.000000	97.316441 
3824.000000	97.315696 
3823.000000	97.314269 
3822.000000	97.313395 
3821.000000	97.313265 
3820.000000	97.313245 
3819.000000	97.312725 
3818.000000	97.311648 
3817.000000	97.311130 
3816.000000	97.312736 
3815.000000	97.316700 
3814.000000	97.321164 
3813.000000	97.323873 
3812.000000	97.324383 
3811.000000	97.324391 
3810.000000	97.325537 
3809.000000	97.327425 
3808.000000	97.328248 
3807.000000	97.327019 
3806.000000	97.324349 
3805.000000	97.321125 
3804.000000	97.317430 
3803.000000	97.314715 
3802.000000	97.314990 
3801.000000	97.317932 
3800.000000	97.321203 
3799.000000	97.322049 
3798.000000	97.320110 
3797.000000	97.318643 
3796.000000	97.321117 
3795.000000	97.327347 
3794.000000	97.333748 
3793.000000	97.337664 
3792.000000	97.339874 
3791.000000	97.342770 
3790.000000	97.346302 
3789.000000	97.347790 
3788.000000	97.345978 
3787.000000	97.342813 
3786.000000	97.340984 
3785.000000	97.340859 
3784.000000	97.340640 
3783.000000	97.338888 
3782.000000	97.335621 
3781.000000	97.332117 
3780.000000	97.330290 
3779.000000	97.331906 
3778.000000	97.336782 
3777.000000	97.342223 
3776.000000	97.345004 
3775.000000	97.343973 
3774.000000	97.340049 
3773.000000	97.334508 
3772.000000	97.328491 
3771.000000	97.322833 
3770.000000	97.317972 
3769.000000	97.314607 
3768.000000	97.312969 
3767.000000	97.311722 
3766.000000	97.310178 
3765.000000	97.309131 
3764.000000	97.309715 
3763.000000	97.311238 
3762.000000	97.311410 
3761.000000	97.309191 
3760.000000	97.305271 
3759.000000	97.301540 
3758.000000	97.297502 
3757.000000	97.290596 
3756.000000	97.280721 
3755.000000	97.269603 
3754.000000	97.258080 
3753.000000	97.245804 
3752.000000	97.234072 
3751.000000	97.225627 
3750.000000	97.220624 
3749.000000	97.216976 
3748.000000	97.214545 
3747.000000	97.215271 
3746.000000	97.221277 
3745.000000	97.229482 
3744.000000	97.237908 
3743.000000	97.245934 
3742.000000	97.246846 
3741.000000	97.235519 
3740.000000	97.217568 
3739.000000	97.205430 
3738.000000	97.206164 
3737.000000	97.213314 
3736.000000	97.217206 
3735.000000	97.217406 
3734.000000	97.219445 
3733.000000	97.223959 
3732.000000	97.228298 
3731.000000	97.232975 
3730.000000	97.237994 
3729.000000	97.240143 
3728.000000	97.238608 
3727.000000	97.237074 
3726.000000	97.239407 
3725.000000	97.244808 
3724.000000	97.250058 
3723.000000	97.254347 
3722.000000	97.259036 
3721.000000	97.264966 
3720.000000	97.269006 
3719.000000	97.268815 
3718.000000	97.265993 
3717.000000	97.261776 
3716.000000	97.255449 
3715.000000	97.244322 
3714.000000	97.227681 
3713.000000	97.210025 
3712.000000	97.196270 
3711.000000	97.187729 
3710.000000	97.182044 
3709.000000	97.176712 
3708.000000	97.171484 
3707.000000	97.165852 
3706.000000	97.159090 
3705.000000	97.151484 
3704.000000	97.143916 
3703.000000	97.136039 
3702.000000	97.124218 
3701.000000	97.105677 
3700.000000	97.082334 
3699.000000	97.059052 
3698.000000	97.040776 
3697.000000	97.029243 
3696.000000	97.022998 
3695.000000	97.019116 
3694.000000	97.014455 
3693.000000	97.007862 
3692.000000	97.000463 
3691.000000	96.993470 
3690.000000	96.984766 
3689.000000	96.973485 
3688.000000	96.964798 
3687.000000	96.961946 
3686.000000	96.961080 
3685.000000	96.957137 
3684.000000	96.949247 
3683.000000	96.941176 
3682.000000	96.936214 
3681.000000	96.931119 
3680.000000	96.918765 
3679.000000	96.894568 
3678.000000	96.861523 
3677.000000	96.828720 
3676.000000	96.801429 
3675.000000	96.780129 
3674.000000	96.762388 
3673.000000	96.742967 
3672.000000	96.719386 
3671.000000	96.699017 
3670.000000	96.688055 
3669.000000	96.682848 
3668.000000	96.675538 
3667.000000	96.662241 
3666.000000	96.646770 
3665.000000	96.634851 
3664.000000	96.626549 
3663.000000	96.617790 
3662.000000	96.604478 
3661.000000	96.584042 
3660.000000	96.556851 
3659.000000	96.525321 
3658.000000	96.493820 
3657.000000	96.464921 
3656.000000	96.437478 
3655.000000	96.409841 
3654.000000	96.379736 
3653.000000	96.345689 
3652.000000	96.308445 
3651.000000	96.270662 
3650.000000	96.234174 
3649.000000	96.201330 
3648.000000	96.177165 
3647.000000	96.164414 
3646.000000	96.161389 
3645.000000	96.164205 
3644.000000	96.168714 
3643.000000	96.171933 
3642.000000	96.171671 
3641.000000	96.165389 
3640.000000	96.151918 
3639.000000	96.131843 
3638.000000	96.107607 
3637.000000	96.081917 
3636.000000	96.056277 
3635.000000	96.030537 
3634.000000	96.003341 
3633.000000	95.973802 
3632.000000	95.941654 
3631.000000	95.907758 
3630.000000	95.874825 
3629.000000	95.845541 
3628.000000	95.822834 
3627.000000	95.808278 
3626.000000	95.798869 
3625.000000	95.793874 
3624.000000	95.795989 
3623.000000	95.805220 
3622.000000	95.816945 
3621.000000	95.825404 
3620.000000	95.826100 
3619.000000	95.818092 
3618.000000	95.806144 
3617.000000	95.798005 
3616.000000	95.800412 
3615.000000	95.816012 
3614.000000	95.839823 
3613.000000	95.861842 
3612.000000	95.875406 
3611.000000	95.881310 
3610.000000	95.886124 
3609.000000	95.897047 
3608.000000	95.915030 
3607.000000	95.935140 
3606.000000	95.952870 
3605.000000	95.968851 
3604.000000	95.987155 
3603.000000	96.009123 
3602.000000	96.030765 
3601.000000	96.046282 
3600.000000	96.052838 
3599.000000	96.052461 
3598.000000	96.050550 
3597.000000	96.051635 
3596.000000	96.057855 
3595.000000	96.066843 
3594.000000	96.072585 
3593.000000	96.071697 
3592.000000	96.065823 
3591.000000	96.059188 
3590.000000	96.056552 
3589.000000	96.060588 
3588.000000	96.068750 
3587.000000	96.075293 
3586.000000	96.078125 
3585.000000	96.079884 
3584.000000	96.084623 
3583.000000	96.094014 
3582.000000	96.106821 
3581.000000	96.119215 
3580.000000	96.127076 
3579.000000	96.128388 
3578.000000	96.124222 
3577.000000	96.118000 
3576.000000	96.112777 
3575.000000	96.109746 
3574.000000	96.107581 
3573.000000	96.103971 
3572.000000	96.097030 
3571.000000	96.085857 
3570.000000	96.071350 
3569.000000	96.057267 
3568.000000	96.048432 
3567.000000	96.046475 
3566.000000	96.048631 
3565.000000	96.051003 
3564.000000	96.051925 
3563.000000	96.052630 
3562.000000	96.054568 
3561.000000	96.057492 
3560.000000	96.060047 
3559.000000	96.061292 
3558.000000	96.061381 
3557.000000	96.061102 
3556.000000	96.061011 
3555.000000	96.061035 
3554.000000	96.060529 
3553.000000	96.058160 
3552.000000	96.052962 
3551.000000	96.045251 
3550.000000	96.036719 
3549.000000	96.029852 
3548.000000	96.026744 
3547.000000	96.027147 
3546.000000	96.028310 
3545.000000	96.027573 
3544.000000	96.025311 
3543.000000	96.024164 
3542.000000	96.025752 
3541.000000	96.029357 
3540.000000	96.033221 
3539.000000	96.035883 
3538.000000	96.036606 
3537.000000	96.035198 
3536.000000	96.032277 
3535.000000	96.028916 
3534.000000	96.025987 
3533.000000	96.023953 
3532.000000	96.023027 
3531.000000	96.023141 
3530.000000	96.023498 
3529.000000	96.022812 
3528.000000	96.020383 
3527.000000	96.016880 
3526.000000	96.013857 
3525.000000	96.012506 
3524.000000	96.012963 
3523.000000	96.014534 
3522.000000	96.016317 
3521.000000	96.017683 
3520.000000	96.018516 
3519.000000	96.018911 
3518.000000	96.018861 
3517.000000	96.018136 
3516.000000	96.016596 
3515.000000	96.014535 
3514.000000	96.012639 
3513.000000	96.011579 
3512.000000	96.011455 
3511.000000	96.011620 
3510.000000	96.011163 
3509.000000	96.009797 
3508.000000	96.008119 
3507.000000	96.006877 
3506.000000	96.006155 
3505.000000	96.005373 
3504.000000	96.003999 
3503.000000	96.002076 
3502.000000	96.000129 
3501.000000	95.998673 
3500.000000	95.997958 
3499.000000	95.998051 
3498.000000	95.998762 
3497.000000	95.999501 
3496.000000	95.999401 
3495.000000	95.997934 
3494.000000	95.995451 
3493.000000	95.992983 
3492.000000	95.991299 
3491.000000	95.990198 
3490.000000	95.988982 
3489.000000	95.987454 
3488.000000	95.985971 
3487.000000	95.984573 
3486.000000	95.982786 
3485.000000	95.980523 
3484.000000	95.978517 
3483.000000	95.977375 
3482.000000	95.976682 
3481.000000	95.975615 
3480.000000	95.974098 
3479.000000	95.972644 
3478.000000	95.971285 
3477.000000	95.969326 
3476.000000	95.966113 
3475.000000	95.961723 
3474.000000	95.956944 
3473.000000	95.952773 
3472.000000	95.949838 
3471.000000	95.948074 
3470.000000	95.946798 
3469.000000	95.945325 
3468.000000	95.943525 
3467.000000	95.941732 
3466.000000	95.940281 
3465.000000	95.939127 
3464.000000	95.937729 
3463.000000	95.935268 
3462.000000	95.931254 
3461.000000	95.926128 
3460.000000	95.921060 
3459.000000	95.916901 
3458.000000	95.913464 
3457.000000	95.909901 
3456.000000	95.905857 
3455.000000	95.901901 
3454.000000	95.898917 
3453.000000	95.897226 
3452.000000	95.896342 
3451.000000	95.895518 
3450.000000	95.894221 
3449.000000	95.892095 
3448.000000	95.888704 
3447.000000	95.883719 
3446.000000	95.877434 
3445.000000	95.871018 
3444.000000	95.865961 
3443.000000	95.863077 
3442.000000	95.861949 
3441.000000	95.861146 
3440.000000	95.859317 
3439.000000	95.856081 
3438.000000	95.851936 
3437.000000	95.847613 
3436.000000	95.843832 
3435.000000	95.841281 
3434.000000	95.840292 
3433.000000	95.840299 
3432.000000	95.840006 
3431.000000	95.838642 
3430.000000	95.836611 
3429.000000	95.834731 
3428.000000	95.832945 
3427.000000	95.830279 
3426.000000	95.826253 
3425.000000	95.821892 
3424.000000	95.818936 
3423.000000	95.817993 
3422.000000	95.817869 
3421.000000	95.816914 
3420.000000	95.814820 
3419.000000	95.812566 
3418.000000	95.810929 
3417.000000	95.809842 
3416.000000	95.809056 
3415.000000	95.808553 
3414.000000	95.808048 
3413.000000	95.806825 
3412.000000	95.804637 
3411.000000	95.802376 
3410.000000	95.801336 
3409.000000	95.802021 
3408.000000	95.803883 
3407.000000	95.805845 
3406.000000	95.806936 
3405.000000	95.806746 
3404.000000	95.805731 
3403.000000	95.804769 
3402.000000	95.804310 
3401.000000	95.804156 
3400.000000	95.804050 
3399.000000	95.804059 
3398.000000	95.804206 
3397.000000	95.804319 
3396.000000	95.804516 
3395.000000	95.805405 
3394.000000	95.807312 
3393.000000	95.809519 
3392.000000	95.810740 
3391.000000	95.810397 
3390.000000	95.809270 
3389.000000	95.808902 
3388.000000	95.810476 
3387.000000	95.814092 
3386.000000	95.818718 
3385.000000	95.822609 
3384.000000	95.824315 
3383.000000	95.823731 
3382.000000	95.822421 
3381.000000	95.822536 
3380.000000	95.824862 
3379.000000	95.828158 
3378.000000	95.830651 
3377.000000	95.832229 
3376.000000	95.834403 
3375.000000	95.838056 
3374.000000	95.842133 
3373.000000	95.844978 
3372.000000	95.846454 
3371.000000	95.848001 
3370.000000	95.850816 
3369.000000	95.854647 
3368.000000	95.858381 
3367.000000	95.861232 
3366.000000	95.863162 
3365.000000	95.864554 
3364.000000	95.865837 
3363.000000	95.867273 
3362.000000	95.868912 
3361.000000	95.870756 
3360.000000	95.873030 
3359.000000	95.876128 
3358.000000	95.880179 
3357.000000	95.884782 
3356.000000	95.889270 
3355.000000	95.893289 
3354.000000	95.897119 
3353.000000	95.901448 
3352.000000	95.906744 
3351.000000	95.912672 
3350.000000	95.918131 
3349.000000	95.922066 
3348.000000	95.924430 
3347.000000	95.926274 
3346.000000	95.928827 
3345.000000	95.932354 
3344.000000	95.935925 
3343.000000	95.938359 
3342.000000	95.939394 
3341.000000	95.940061 
3340.000000	95.941762 
3339.000000	95.944902 
3338.000000	95.948778 
3337.000000	95.952523 
3336.000000	95.955942 
3335.000000	95.959329 
3334.000000	95.962811 
3333.000000	95.966202 
3332.000000	95.969387 
3331.000000	95.972484 
3330.000000	95.975606 
3329.000000	95.978680 
3328.000000	95.981647 
3327.000000	95.984683 
3326.000000	95.988054 
3325.000000	95.991786 
3324.000000	95.995568 
3323.000000	95.999042 
3322.000000	96.002119 
3321.000000	96.005015 
3320.000000	96.008024 
3319.000000	96.011297 
3318.000000	96.014818 
3317.000000	96.018472 
3316.000000	96.022110 
3315.000000	96.025593 
3314.000000	96.028867 
3313.000000	96.031998 
3312.000000	96.035132 
3311.000000	96.038384 
3310.000000	96.041786 
3309.000000	96.045293 
3308.000000	96.048795 
3307.000000	96.052143 
3306.000000	96.055247 
3305.000000	96.058167 
3304.000000	96.061065 
3303.000000	96.064101 
3302.000000	96.067335 
3301.000000	96.070729 
3300.000000	96.074168 
3299.000000	96.077503 
3298.000000	96.080635 
3297.000000	96.083593 
3296.000000	96.086544 
3295.000000	96.089679 
3294.000000	96.093067 
3293.000000	96.096638 
3292.000000	96.100248 
3291.000000	96.103791 
3290.000000	96.107226 
3289.000000	96.110562 
3288.000000	96.113836 
3287.000000	96.117085 
3286.000000	96.120319 
3285.000000	96.123486 
3284.000000	96.126517 
3283.000000	96.129432 
3282.000000	96.132396 
3281.000000	96.135593 
3280.000000	96.139022 
3279.000000	96.142435 
3278.000000	96.145587 
3277.000000	96.148527 
3276.000000	96.151543 
3275.000000	96.154828 
3274.000000	96.158303 
3273.000000	96.161829 
3272.000000	96.165425 
3271.000000	96.169168 
3270.000000	96.173002 
3269.000000	96.176713 
3268.000000	96.180110 
3267.000000	96.183177 
3266.000000	96.186114 
3265.000000	96.189241 
3264.000000	96.192758 
3263.000000	96.196617 
3262.000000	96.200554 
3261.000000	96.204329 
3260.000000	96.207892 
3259.000000	96.211285 
3258.000000	96.214516 
3257.000000	96.217624 
3256.000000	96.220766 
3255.000000	96.224087 
3254.000000	96.227545 
3253.000000	96.231019 
3252.000000	96.234528 
3251.000000	96.238189 
3250.000000	96.241956 
3249.000000	96.245571 
3248.000000	96.248836 
3247.000000	96.251838 
3246.000000	96.254872 
3245.000000	96.258162 
3244.000000	96.261704 
3243.000000	96.265325 
3242.000000	96.268859 
3241.000000	96.272272 
3240.000000	96.275662 
3239.000000	96.279178 
3238.000000	96.282955 
3237.000000	96.287076 
3236.000000	96.291515 
3235.000000	96.296032 
3234.000000	96.300226 
3233.000000	96.303811 
3232.000000	96.306800 
3231.000000	96.309522 
3230.000000	96.312417 
3229.000000	96.315730 
3228.000000	96.319450 
3227.000000	96.323432 
3226.000000	96.327584 
3225.000000	96.331876 
3224.000000	96.336172 
3223.000000	96.340244 
3222.000000	96.343997 
3221.000000	96.347599 
3220.000000	96.351266 
3219.000000	96.354942 
3218.000000	96.358404 
3217.000000	96.361603 
3216.000000	96.364745 
3215.000000	96.368085 
3214.000000	96.371735 
3213.000000	96.375653 
3212.000000	96.379686 
3211.000000	96.383638 
3210.000000	96.387413 
3209.000000	96.391099 
3208.000000	96.394858 
3207.000000	96.398716 
3206.000000	96.402530 
3205.000000	96.406175 
3204.000000	96.409707 
3203.000000	96.413301 
3202.000000	96.417069 
3201.000000	96.420973 
3200.000000	96.424891 
3199.000000	96.428747 
3198.000000	96.432579 
3197.000000	96.436462 
3196.000000	96.440383 
3195.000000	96.444229 
3194.000000	96.447945 
3193.000000	96.451656 
3192.000000	96.455532 
3191.000000	96.459556 
3190.000000	96.463500 
3189.000000	96.467166 
3188.000000	96.470590 
3187.000000	96.474043 
3186.000000	96.477830 
3185.000000	96.482073 
3184.000000	96.486648 
3183.000000	96.491221 
3182.000000	96.495507 
3181.000000	96.499442 
3180.000000	96.503095 
3179.000000	96.506536 
3178.000000	96.509865 
3177.000000	96.513287 
3176.000000	96.517004 
3175.000000	96.521019 
3174.000000	96.525187 
3173.000000	96.529403 
3172.000000	96.533639 
3171.000000	96.537790 
3170.000000	96.541707 
3169.000000	96.545407 
3168.000000	96.549067 
3167.000000	96.552764 
3166.000000	96.556390 
3165.000000	96.559863 
3164.000000	96.563242 
3163.000000	96.566602 
3162.000000	96.569965 
3161.000000	96.573381 
3160.000000	96.576933 
3159.000000	96.580625 
3158.000000	96.584377 
3157.000000	96.588128 
3156.000000	96.591869 
3155.000000	96.595561 
3154.000000	96.599165 
3153.000000	96.602749 
3152.000000	96.606427 
3151.000000	96.610164 
3150.000000	96.613742 
3149.000000	96.616993 
3148.000000	96.619944 
3147.000000	96.622784 
3146.000000	96.625773 
3145.000000	96.629107 
3144.000000	96.632795 
3143.000000	96.636591 
3142.000000	96.640136 
3141.000000	96.643311 
3140.000000	96.646297 
3139.000000	96.649356 
3138.000000	96.652593 
3137.000000	96.655945 
3136.000000	96.659264 
3135.000000	96.662349 
3134.000000	96.665070 
3133.000000	96.667542 
3132.000000	96.670096 
3131.000000	96.672965 
3130.000000	96.676112 
3129.000000	96.679402 
3128.000000	96.682793 
3127.000000	96.686279 
3126.000000	96.689775 
3125.000000	96.693194 
3124.000000	96.696505 
3123.000000	96.699613 
3122.000000	96.702358 
3121.000000	96.704752 
3120.000000	96.707117 
3119.000000	96.709806 
3118.000000	96.712867 
3117.000000	96.716076 
3116.000000	96.719183 
3115.000000	96.722033 
3114.000000	96.724593 
3113.000000	96.727026 
3112.000000	96.729651 
3111.000000	96.732695 
3110.000000	96.736067 
3109.000000	96.739452 
3108.000000	96.742608 
3107.000000	96.745585 
3106.000000	96.748564 
3105.000000	96.751509 
3104.000000	96.753999 
3103.000000	96.755595 
3102.000000	96.756395 
3101.000000	96.757066 
3100.000000	96.758189 
3099.000000	96.759814 
3098.000000	96.761908 
3097.000000	96.764881 
3096.000000	96.769157 
3095.000000	96.774303 
3094.000000	96.779114 
3093.000000	96.782669 
3092.000000	96.784966 
3091.000000	96.786460 
3090.000000	96.787508 
3089.000000	96.788415 
3088.000000	96.789538 
3087.000000	96.791126 
3086.000000	96.793203 
3085.000000	96.795664 
3084.000000	96.798210 
3083.000000	96.800315 
3082.000000	96.801733 
3081.000000	96.803078 
3080.000000	96.805292 
3079.000000	96.808279 
3078.000000	96.810833 
3077.000000	96.812412 
3076.000000	96.814106 
3075.000000	96.816997 
3074.000000	96.820383 
3073.000000	96.822782 
3072.000000	96.823992 
3071.000000	96.824962 
3070.000000	96.826086 
3069.000000	96.826956 
3068.000000	96.827610 
3067.000000	96.828666 
3066.000000	96.830128 
3065.000000	96.831286 
3064.000000	96.831887 
3063.000000	96.832298 
3062.000000	96.832395 
3061.000000	96.831469 
3060.000000	96.829609 
3059.000000	96.828303 
3058.000000	96.829299 
3057.000000	96.833209 
3056.000000	96.838970 
3055.000000	96.843969 
3054.000000	96.845284 
3053.000000	96.842179 
3052.000000	96.837607 
3051.000000	96.836042 
3050.000000	96.839076 
3049.000000	96.843986 
3048.000000	96.846915 
3047.000000	96.846510 
3046.000000	96.844026 
3045.000000	96.841288 
3044.000000	96.839605 
3043.000000	96.840005 
3042.000000	96.842995 
3041.000000	96.847543 
3040.000000	96.851024 
3039.000000	96.851007 
3038.000000	96.847263 
3037.000000	96.841718 
3036.000000	96.836202 
3035.000000	96.830678 
3034.000000	96.824326 
3033.000000	96.817832 
3032.000000	96.813266 
3031.000000	96.811519 
3030.000000	96.811112 
3029.000000	96.809973 
3028.000000	96.807129 
3027.000000	96.802149 
3026.000000	96.794487 
3025.000000	96.784675 
3024.000000	96.775109 
3023.000000	96.768042 
3022.000000	96.763246 
3021.000000	96.759113 
3020.000000	96.755403 
3019.000000	96.753156 
3018.000000	96.751939 
3017.000000	96.749069 
3016.000000	96.742299 
3015.000000	96.732219 
3014.000000	96.721681 
3013.000000	96.713502 
3012.000000	96.708505 
3011.000000	96.704770 
3010.000000	96.698820 
3009.000000	96.688644 
3008.000000	96.675609 
3007.000000	96.662770 
3006.000000	96.651624 
3005.000000	96.641615 
3004.000000	96.632329 
3003.000000	96.624411 
3002.000000	96.618142 
3001.000000	96.612667 
3000.000000	96.607029 
2999.000000	96.600698 
2998.000000	96.592883 
2997.000000	96.582942 
2996.000000	96.571967 
2995.000000	96.562284 
2994.000000	96.554374 
2993.000000	96.545574 
2992.000000	96.533044 
2991.000000	96.517380 
2990.000000	96.502318 
2989.000000	96.491502 
2988.000000	96.486490 
2987.000000	96.487202 
2986.000000	96.492848 
2985.000000	96.502062 
2984.000000	96.512730 
2983.000000	96.522326 
2982.000000	96.528886 
2981.000000	96.531972 
2980.000000	96.532562 
2979.000000	96.531629 
2978.000000	96.529066 
2977.000000	96.524562 
2976.000000	96.519249 
2975.000000	96.515542 
2974.000000	96.515185 
2973.000000	96.518237 
2972.000000	96.523869 
2971.000000	96.531142 
2970.000000	96.538822 
2969.000000	96.545745 
2968.000000	96.552066 
2967.000000	96.559251 
2966.000000	96.568056 
2965.000000	96.577293 
2964.000000	96.585357 
2963.000000	96.592231 
2962.000000	96.599052 
2961.000000	96.606195 
2960.000000	96.612930 
2959.000000	96.618976 
2958.000000	96.625417 
2957.000000	96.633626 
2956.000000	96.643497 
2955.000000	96.653058 
2954.000000	96.660029 
2953.000000	96.664092 
2952.000000	96.667587 
2951.000000	96.673453 
2950.000000	96.682145 
2949.000000	96.690985 
2948.000000	96.696885 
2947.000000	96.699134 
2946.000000	96.699286 
2945.000000	96.699158 
2944.000000	96.699718 
2943.000000	96.701362 
2942.000000	96.703832 
2941.000000	96.705737 
2940.000000	96.705497 
2939.000000	96.703465 
2938.000000	96.702287 
2937.000000	96.704273 
2936.000000	96.708770 
2935.000000	96.712832 
2934.000000	96.714157 
2933.000000	96.712675 
2932.000000	96.709771 
2931.000000	96.707099 
2930.000000	96.706230 
2929.000000	96.708247 
2928.000000	96.712692 
2927.000000	96.717293 
2926.000000	96.719674 
2925.000000	96.719609 
2924.000000	96.719170 
2923.000000	96.720453 
2922.000000	96.723392 
2921.000000	96.726002 
2920.000000	96.726643 
2919.000000	96.725802 
2918.000000	96.725404 
2917.000000	96.726267 
2916.000000	96.726588 
2915.000000	96.723667 
2914.000000	96.717262 
2913.000000	96.710419 
2912.000000	96.706398 
2911.000000	96.705282 
2910.000000	96.704623 
2909.000000	96.703056 
2908.000000	96.701980 
2907.000000	96.703155 
2906.000000	96.705751 
2905.000000	96.706617 
2904.000000	96.703518 
2903.000000	96.697249 
2902.000000	96.692040 
2901.000000	96.692107 
2900.000000	96.698855 
2899.000000	96.710277 
2898.000000	96.722317 
2897.000000	96.731891 
2896.000000	96.738109 
2895.000000	96.741386 
2894.000000	96.742684 
2893.000000	96.743922 
2892.000000	96.747449 
2891.000000	96.753724 
2890.000000	96.760292 
2889.000000	96.764462 
2888.000000	96.766495 
2887.000000	96.768634 
2886.000000	96.771486 
2885.000000	96.773552 
2884.000000	96.774720 
2883.000000	96.777782 
2882.000000	96.784923 
2881.000000	96.794399 
2880.000000	96.802688 
2879.000000	96.809257 
2878.000000	96.816844 
2877.000000	96.827022 
2876.000000	96.837732 
2875.000000	96.845972 
2874.000000	96.851296 
2873.000000	96.855413 
2872.000000	96.859515 
2871.000000	96.863452 
2870.000000	96.867068 
2869.000000	96.870913 
2868.000000	96.875523 
2867.000000	96.880866 
2866.000000	96.886594 
2865.000000	96.892211 
2864.000000	96.897222 
2863.000000	96.902024 
2862.000000	96.908431 
2861.000000	96.918020 
2860.000000	96.929712 
2859.000000	96.940236 
2858.000000	96.947739 
2857.000000	96.953935 
2856.000000	96.961847 
2855.000000	96.972017 
2854.000000	96.981990 
2853.000000	96.989248 
2852.000000	96.993506 
2851.000000	96.996287 
2850.000000	96.999327 
2849.000000	97.003602 
2848.000000	97.009055 
2847.000000	97.014689 
2846.000000	97.019199 
2845.000000	97.021937 
2844.000000	97.023399 
2843.000000	97.024906 
2842.000000	97.027823 
2841.000000	97.032617 
2840.000000	97.038274 
2839.000000	97.042952 
2838.000000	97.045702 
2837.000000	97.047387 
2836.000000	97.049599 
2835.000000	97.052994 
2834.000000	97.057282 
2833.000000	97.062408 
2832.000000	97.068599 
2831.000000	97.075118 
2830.000000	97.080062 
2829.000000	97.082054 
2828.000000	97.081708 
2827.000000	97.081148 
2826.000000	97.082308 
2825.000000	97.085756 
2824.000000	97.090643 
2823.000000	97.095251 
2822.000000	97.098073 
2821.000000	97.098897 
2820.000000	97.098856 
2819.000000	97.099234 
2818.000000	97.100367 
2817.000000	97.101907 
2816.000000	97.103716 
2815.000000	97.106023 
2814.000000	97.108812 
2813.000000	97.111505 
2812.000000	97.113372 
2811.000000	97.114134 
2810.000000	97.114196 
2809.000000	97.114415 
2808.000000	97.115553 
2807.000000	97.117793 
2806.000000	97.120704 
2805.000000	97.123608 
2804.000000	97.126008 
2803.000000	97.127763 
2802.000000	97.129054 
2801.000000	97.130263 
2800.000000	97.131731 
2799.000000	97.133476 
2798.000000	97.135200 
2797.000000	97.136643 
2796.000000	97.137859 
2795.000000	97.139105 
2794.000000	97.140553 
2793.000000	97.142162 
2792.000000	97.143793 
2791.000000	97.145354 
2790.000000	97.146843 
2789.000000	97.148306 
2788.000000	97.149775 
2787.000000	97.151247 
2786.000000	97.152718 
2785.000000	97.154186 
2784.000000	97.155647 
2783.000000	97.157095 
2782.000000	97.158526 
2781.000000	97.159942 
2780.000000	97.161349 
2779.000000	97.162753 
2778.000000	97.164152 
2777.000000	97.165545 
2776.000000	97.166925 
2775.000000	97.168289 
2774.000000	97.169636 
2773.000000	97.170968 
2772.000000	97.172288 
2771.000000	97.173600 
2770.000000	97.174907 
2769.000000	97.176213 
2768.000000	97.177519 
2767.000000	97.178817 
2766.000000	97.180098 
2765.000000	97.181356 
2764.000000	97.182587 
2763.000000	97.183793 
2762.000000	97.184982 
2761.000000	97.186157 
2760.000000	97.187325 
2759.000000	97.188495 
2758.000000	97.189679 
2757.000000	97.190868 
2756.000000	97.192031 
2755.000000	97.193134 
2754.000000	97.194183 
2753.000000	97.195234 
2752.000000	97.196329 
2751.000000	97.197453 
2750.000000	97.198565 
2749.000000	97.199662 
2748.000000	97.200758 
2747.000000	97.201788 
2746.000000	97.202664 
2745.000000	97.203409 
2744.000000	97.204148 
2743.000000	97.204979 
2742.000000	97.205892 
2741.000000	97.206823 
2740.000000	97.207735 
2739.000000	97.208630 
2738.000000	97.209509 
2737.000000	97.210366 
2736.000000	97.211217 
2735.000000	97.212095 
2734.000000	97.213009 
2733.000000	97.213941 
2732.000000	97.214866 
2731.000000	97.215774 
2730.000000	97.216667 
2729.000000	97.217548 
2728.000000	97.218411 
2727.000000	97.219248 
2726.000000	97.220060 
2725.000000	97.220852 
2724.000000	97.221634 
2723.000000	97.222412 
2722.000000	97.223189 
2721.000000	97.223967 
2720.000000	97.224747 
2719.000000	97.225529 
2718.000000	97.226315 
2717.000000	97.227099 
2716.000000	97.227876 
2715.000000	97.228642 
2714.000000	97.229401 
2713.000000	97.230158 
2712.000000	97.230913 
2711.000000	97.231664 
2710.000000	97.232403 
2709.000000	97.233130 
2708.000000	97.233846 
2707.000000	97.234558 
2706.000000	97.235274 
2705.000000	97.235999 
2704.000000	97.236722 
2703.000000	97.237409 
2702.000000	97.238022 
2701.000000	97.238573 
2700.000000	97.239154 
2699.000000	97.239876 
2698.000000	97.240754 
2697.000000	97.241609 
2696.000000	97.242205 
2695.000000	97.242486 
2694.000000	97.242681 
2693.000000	97.243068 
2692.000000	97.243647 
2691.000000	97.244138 
2690.000000	97.244298 
2689.000000	97.244175 
2688.000000	97.244008 
2687.000000	97.243949 
2686.000000	97.244011 
2685.000000	97.244241 
2684.000000	97.244695 
2683.000000	97.245250 
2682.000000	97.245664 
2681.000000	97.245889 
2680.000000	97.246148 
2679.000000	97.246614 
2678.000000	97.247186 
2677.000000	97.247688 
2676.000000	97.248057 
2675.000000	97.248166 
2674.000000	97.247775 
2673.000000	97.246896 
2672.000000	97.245990 
2671.000000	97.245415 
2670.000000	97.244965 
2669.000000	97.244319 
2668.000000	97.243665 
2667.000000	97.243413 
2666.000000	97.243419 
2665.000000	97.242982 
2664.000000	97.241754 
2663.000000	97.240227 
2662.000000	97.239154 
2661.000000	97.238685 
2660.000000	97.238352 
2659.000000	97.237712 
2658.000000	97.236784 
2657.000000	97.235879 
2656.000000	97.235213 
2655.000000	97.234709 
2654.000000	97.234077 
2653.000000	97.233075 
2652.000000	97.231778 
2651.000000	97.230614 
2650.000000	97.230044 
2649.000000	97.230159 
2648.000000	97.230617 
2647.000000	97.230879 
2646.000000	97.230547 
2645.000000	97.229512 
2644.000000	97.227958 
2643.000000	97.226354 
2642.000000	97.225221 
2641.000000	97.224762 
2640.000000	97.224753 
2639.000000	97.224813 
2638.000000	97.224771 
2637.000000	97.224668 
2636.000000	97.224535 
2635.000000	97.224370 
2634.000000	97.224257 
2633.000000	97.224293 
2632.000000	97.224347 
2631.000000	97.224091 
2630.000000	97.223359 
2629.000000	97.222368 
2628.000000	97.221530 
2627.000000	97.221069 
2626.000000	97.220963 
2625.000000	97.221135 
2624.000000	97.221525 
2623.000000	97.221997 
2622.000000	97.222335 
2621.000000	97.222386 
2620.000000	97.222095 
2619.000000	97.221425 
2618.000000	97.220427 
2617.000000	97.219417 
2616.000000	97.218847 
2615.000000	97.218914 
2614.000000	97.219411 
2613.000000	97.219982 
2612.000000	97.220445 
2611.000000	97.220829 
2610.000000	97.221270 
2609.000000	97.221891 
2608.000000	97.222607 
2607.000000	97.223050 
2606.000000	97.222947 
2605.000000	97.222556 
2604.000000	97.222445 
2603.000000	97.222791 
2602.000000	97.223191 
2601.000000	97.223335 
2600.000000	97.223427 
2599.000000	97.223633 
2598.000000	97.223587 
2597.000000	97.222913 
2596.000000	97.221851 
2595.000000	97.220939 
2594.000000	97.220380 
2593.000000	97.220190 
2592.000000	97.220654 
2591.000000	97.221956 
2590.000000	97.223577 
2589.000000	97.224710 
2588.000000	97.225215 
2587.000000	97.225574 
2586.000000	97.226070 
2585.000000	97.226577 
2584.000000	97.227056 
2583.000000	97.227566 
2582.000000	97.227858 
2581.000000	97.227625 
2580.000000	97.227174 
2579.000000	97.227325 
2578.000000	97.228507 
2577.000000	97.230250 
2576.000000	97.231566 
2575.000000	97.231666 
2574.000000	97.230505 
2573.000000	97.228924 
2572.000000	97.227996 
2571.000000	97.227883 
2570.000000	97.227678 
2569.000000	97.226724 
2568.000000	97.225627 
2567.000000	97.225327 
2566.000000	97.225536 
2565.000000	97.225056 
2564.000000	97.223567 
2563.000000	97.222129 
2562.000000	97.221741 
2561.000000	97.222456 
2560.000000	97.224158 
2559.000000	97.227150 
2558.000000	97.231248 
2557.000000	97.235036 
2556.000000	97.237080 
2555.000000	97.237502 
2554.000000	97.237584 
2553.000000	97.237930 
2552.000000	97.237861 
2551.000000	97.236978 
2550.000000	97.236242 
2549.000000	97.236659 
2548.000000	97.237563 
2547.000000	97.237367 
2546.000000	97.235896 
2545.000000	97.234763 
2544.000000	97.235081 
2543.000000	97.235871 
2542.000000	97.235584 
2541.000000	97.234455 
2540.000000	97.234186 
2539.000000	97.235506 
2538.000000	97.237241 
2537.000000	97.238065 
2536.000000	97.238261 
2535.000000	97.238990 
2534.000000	97.240342 
2533.000000	97.241050 
2532.000000	97.240174 
2531.000000	97.238241 
2530.000000	97.236537 
2529.000000	97.235629 
2528.000000	97.235011 
2527.000000	97.234134 
2526.000000	97.233347 
2525.000000	97.233535 
2524.000000	97.235019 
2523.000000	97.237154 
2522.000000	97.239012 
2521.000000	97.240215 
2520.000000	97.240914 
2519.000000	97.241259 
2518.000000	97.241194 
2517.000000	97.240620 
2516.000000	97.239488 
2515.000000	97.237827 
2514.000000	97.236046 
2513.000000	97.235071 
2512.000000	97.235669 
2511.000000	97.237702 
2510.000000	97.240263 
2509.000000	97.242499 
2508.000000	97.244039 
2507.000000	97.244781 
2506.000000	97.244912 
2505.000000	97.245178 
2504.000000	97.246407 
2503.000000	97.248485 
2502.000000	97.250235 
2501.000000	97.250711 
2500.000000	97.250217 
2499.000000	97.249846 
2498.000000	97.250220 
2497.000000	97.251112 
2496.000000	97.252145 
2495.000000	97.253254 
2494.000000	97.254382 
2493.000000	97.255230 
2492.000000	97.255647 
2491.000000	97.256031 
2490.000000	97.257000 
2489.000000	97.258641 
2488.000000	97.260294 
2487.000000	97.261191 
2486.000000	97.261213 
2485.000000	97.260916 
2484.000000	97.260929 
2483.000000	97.261404 
2482.000000	97.262052 
2481.000000	97.262545 
2480.000000	97.262805 
2479.000000	97.263027 
2478.000000	97.263559 
2477.000000	97.264681 
2476.000000	97.266248 
2475.000000	97.267567 
2474.000000	97.267883 
2473.000000	97.267044 
2472.000000	97.265582 
2471.000000	97.264146 
2470.000000	97.263115 
2469.000000	97.262714 
2468.000000	97.263026 
2467.000000	97.263748 
2466.000000	97.264269 
2465.000000	97.264256 
2464.000000	97.264048 
2463.000000	97.264394 
2462.000000	97.265917 
2461.000000	97.268727 
2460.000000	97.272185 
2459.000000	97.275024 
2458.000000	97.276044 
2457.000000	97.274865 
2456.000000	97.271884 
2455.000000	97.267905 
2454.000000	97.263998 
2453.000000	97.261220 
2452.000000	97.259878 
2451.000000	97.259333 
2450.000000	97.259126 
2449.000000	97.259904 
2448.000000	97.262330 
2447.000000	97.265458 
2446.000000	97.267304 
2445.000000	97.267089 
2444.000000	97.265781 
2443.000000	97.264512 
2442.000000	97.263616 
2441.000000	97.263332 
2440.000000	97.264193 
2439.000000	97.266288 
2438.000000	97.269113 
2437.000000	97.272451 
2436.000000	97.276395 
2435.000000	97.280228 
2434.000000	97.282487 
2433.000000	97.282672 
2432.000000	97.282007 
2431.000000	97.282066 
2430.000000	97.283393 
2429.000000	97.285746 
2428.000000	97.288582 
2427.000000	97.290785 
2426.000000	97.291026 
2425.000000	97.289146 
2424.000000	97.286600 
2423.000000	97.284977 
2422.000000	97.284662 
2421.000000	97.285415 
2420.000000	97.287248 
2419.000000	97.290019 
2418.000000	97.292911 
2417.000000	97.295232 
2416.000000	97.297179 
2415.000000	97.299128 
2414.000000	97.300802 
2413.000000	97.301978 
2412.000000	97.303352 
2411.000000	97.305510 
2410.000000	97.307748 
2409.000000	97.309168 
2408.000000	97.310319 
2407.000000	97.312381 
2406.000000	97.315127 
2405.000000	97.317086 
2404.000000	97.317518 
2403.000000	97.317023 
2402.000000	97.316497 
2401.000000	97.316633 
2400.000000	97.318247 
2399.000000	97.321871 
2398.000000	97.326913 
2397.000000	97.332095 
2396.000000	97.336621 
2395.000000	97.340108 
2394.000000	97.341809 
2393.000000	97.341397 
2392.000000	97.340479 
2391.000000	97.341517 
2390.000000	97.344998 
2389.000000	97.349027 
2388.000000	97.351848 
2387.000000	97.353538 
2386.000000	97.354867 
2385.000000	97.355995 
2384.000000	97.357010 
2383.000000	97.358553 
2382.000000	97.361069 
2381.000000	97.364478 
2380.000000	97.369284 
2379.000000	97.376529 
2378.000000	97.385463 
2377.000000	97.392541 
2376.000000	97.394800 
2375.000000	97.393239 
2374.000000	97.390709 
2373.000000	97.387352 
2372.000000	97.381368 
2371.000000	97.374360 
2370.000000	97.371941 
2369.000000	97.376711 
2368.000000	97.383390 
2367.000000	97.384276 
2366.000000	97.378613 
2365.000000	97.372910 
2364.000000	97.371932 
2363.000000	97.374674 
2362.000000	97.378709 
2361.000000	97.383268 
2360.000000	97.388452 
2359.000000	97.392040 
2358.000000	97.392466 
2357.000000	97.392216 
2356.000000	97.393671 
2355.000000	97.395297 
2354.000000	97.393069 
2353.000000	97.387693 
2352.000000	97.382208 
2351.000000	97.374044 
2350.000000	97.358424 
2349.000000	97.334678 
2348.000000	97.310098 
2347.000000	97.293089 
2346.000000	97.287787 
2345.000000	97.293158 
2344.000000	97.302084 
2343.000000	97.310259 
2342.000000	97.319129 
2341.000000	97.332272 
2340.000000	97.348708 
2339.000000	97.362839 
2338.000000	97.370106 
2337.000000	97.371908 
2336.000000	97.373213 
2335.000000	97.376583 
2334.000000	97.378446 
2333.000000	97.375134 
2332.000000	97.368275 
2331.000000	97.361779 
2330.000000	97.357392 
2329.000000	97.351472 
2328.000000	97.342288 
2327.000000	97.330425 
2326.000000	97.317025 
2325.000000	97.304052 
2324.000000	97.294323 
2323.000000	97.291094 
2322.000000	97.291522 
2321.000000	97.290064 
2320.000000	97.285600 
2319.000000	97.283731 
2318.000000	97.288360 
2317.000000	97.295733 
2316.000000	97.299005 
2315.000000	97.294968 
2314.000000	97.285628 
2313.000000	97.274657 
2312.000000	97.265623 
2311.000000	97.260441 
2310.000000	97.258243 
2309.000000	97.255752 
2308.000000	97.251225 
2307.000000	97.246847 
2306.000000	97.245453 
2305.000000	97.246501 
2304.000000	97.246848 
2303.000000	97.245089 
2302.000000	97.242852 
2301.000000	97.242093 
2300.000000	97.242847 
2299.000000	97.243291 
2298.000000	97.241435 
2297.000000	97.236265 
2296.000000	97.229014 
2295.000000	97.222567 
2294.000000	97.219123 
2293.000000	97.218192 
2292.000000	97.217842 
2291.000000	97.217378 
2290.000000	97.217874 
2289.000000	97.220278 
2288.000000	97.223873 
2287.000000	97.227088 
2286.000000	97.228879 
2285.000000	97.229348 
2284.000000	97.229357 
2283.000000	97.229746 
2282.000000	97.230499 
2281.000000	97.230709 
2280.000000	97.229326 
2279.000000	97.226077 
2278.000000	97.221846 
2277.000000	97.218420 
2276.000000	97.217529 
2275.000000	97.219434 
2274.000000	97.222671 
2273.000000	97.225679 
2272.000000	97.228420 
2271.000000	97.231607 
2270.000000	97.234814 
2269.000000	97.236668 
2268.000000	97.236889 
2267.000000	97.236764 
2266.000000	97.237269 
2265.000000	97.237945 
2264.000000	97.237913 
2263.000000	97.236816 
2262.000000	97.234538 
2261.000000	97.231165 
2260.000000	97.227604 
2259.000000	97.225291 
2258.000000	97.224768 
2257.000000	97.225393 
2256.000000	97.226580 
2255.000000	97.228435 
2254.000000	97.230790 
2253.000000	97.232524 
2252.000000	97.232638 
2251.000000	97.231265 
2250.000000	97.229163 
2249.000000	97.226863 
2248.000000	97.224797 
2247.000000	97.223576 
2246.000000	97.223424 
2245.000000	97.223726 
2244.000000	97.223487 
2243.000000	97.222354 
2242.000000	97.220804 
2241.000000	97.219610 
2240.000000	97.219173 
2239.000000	97.219381 
2238.000000	97.219790 
2237.000000	97.219920 
2236.000000	97.219627 
2235.000000	97.219123 
2234.000000	97.218677 
2233.000000	97.218341 
2232.000000	97.218001 
2231.000000	97.217569 
2230.000000	97.217027 
2229.000000	97.216381 
2228.000000	97.215675 
2227.000000	97.214993 
2226.000000	97.214372 
2225.000000	97.213775 
2224.000000	97.213147 
2223.000000	97.212484 
2222.000000	97.211826 
2221.000000	97.211225 
2220.000000	97.210687 
2219.000000	97.210194 
2218.000000	97.209736 
2217.000000	97.209313 
2216.000000	97.208917 
2215.000000	97.208527 
2214.000000	97.208130 
2213.000000	97.207723 
2212.000000	97.207318 
2211.000000	97.206937 
2210.000000	97.206594 
2209.000000	97.206281 
2208.000000	97.205972 
2207.000000	97.205638 
2206.000000	97.205276 
2205.000000	97.204872 
2204.000000	97.204496 
2203.000000	97.204371 
2202.000000	97.204552 
2201.000000	97.204650 
2200.000000	97.204009 
2199.000000	97.202287 
2198.000000	97.199944 
2197.000000	97.198151 
2196.000000	97.197808 
2195.000000	97.198616 
2194.000000	97.199422 
2193.000000	97.199571 
2192.000000	97.199492 
2191.000000	97.199672 
2190.000000	97.199590 
2189.000000	97.198467 
2188.000000	97.196766 
2187.000000	97.195634 
2186.000000	97.194621 
2185.000000	97.191710 
2184.000000	97.187068 
2183.000000	97.185159 
2182.000000	97.190396 
2181.000000	97.201142 
2180.000000	97.209992 
2179.000000	97.211549 
2178.000000	97.207659 
2177.000000	97.204274 
2176.000000	97.204658 
2175.000000	97.207014 
2174.000000	97.208147 
2173.000000	97.207662 
2172.000000	97.208168 
2171.000000	97.212014 
2170.000000	97.218112 
2169.000000	97.221968 
2168.000000	97.219560 
2167.000000	97.211371 
2166.000000	97.201756 
2165.000000	97.193957 
2164.000000	97.187302 
2163.000000	97.180902 
2162.000000	97.178709 
2161.000000	97.187544 
2160.000000	97.209552 
2159.000000	97.238195 
2158.000000	97.263023 
2157.000000	97.278651 
2156.000000	97.286664 
2155.000000	97.290665 
2154.000000	97.292930 
2153.000000	97.295336 
2152.000000	97.299779 
2151.000000	97.305708 
2150.000000	97.309266 
2149.000000	97.307478 
2148.000000	97.302474 
2147.000000	97.299219 
2146.000000	97.299501 
2145.000000	97.301044 
2144.000000	97.302563 
2143.000000	97.306089 
2142.000000	97.312741 
2141.000000	97.319359 
2140.000000	97.322255 
2139.000000	97.322719 
2138.000000	97.325927 
2137.000000	97.334765 
2136.000000	97.346499 
2135.000000	97.355190 
2134.000000	97.356163 
2133.000000	97.349206 
2132.000000	97.339349 
2131.000000	97.333577 
2130.000000	97.334962 
2129.000000	97.340201 
2128.000000	97.343517 
2127.000000	97.342447 
2126.000000	97.338885 
2125.000000	97.335690 
2124.000000	97.333961 
2123.000000	97.333215 
2122.000000	97.332360 
2121.000000	97.330026 
2120.000000	97.325325 
2119.000000	97.318993 
2118.000000	97.313257 
2117.000000	97.309932 
2116.000000	97.308606 
2115.000000	97.306856 
2114.000000	97.302361 
2113.000000	97.295453 
2112.000000	97.289623 
2111.000000	97.288520 
2110.000000	97.292191 
2109.000000	97.297060 
2108.000000	97.299911 
2107.000000	97.300631 
2106.000000	97.300561 
2105.000000	97.300359 
2104.000000	97.300691 
2103.000000	97.302716 
2102.000000	97.305775 
2101.000000	97.306351 
2100.000000	97.302135 
2099.000000	97.296354 
2098.000000	97.295219 
2097.000000	97.300993 
2096.000000	97.309948 
2095.000000	97.316785 
2094.000000	97.319562 
2093.000000	97.319362 
2092.000000	97.317558 
2091.000000	97.315141 
2090.000000	97.313419 
2089.000000	97.313469 
2088.000000	97.314877 
2087.000000	97.315912 
2086.000000	97.315100 
2085.000000	97.312375 
2084.000000	97.308964 
2083.000000	97.306319 
2082.000000	97.304949 
2081.000000	97.304347 
2080.000000	97.304143 
2079.000000	97.304786 
2078.000000	97.306438 
2077.000000	97.307774 
2076.000000	97.307205 
2075.000000	97.305220 
2074.000000	97.303934 
2073.000000	97.303921 
2072.000000	97.303191 
2071.000000	97.299928 
2070.000000	97.294913 
2069.000000	97.290650 
2068.000000	97.288876 
2067.000000	97.289464 
2066.000000	97.291030 
2065.000000	97.291775 
2064.000000	97.290508 
2063.000000	97.287723 
2062.000000	97.285484 
2061.000000	97.285613 
2060.000000	97.288093 
2059.000000	97.291513 
2058.000000	97.294447 
2057.000000	97.296051 
2056.000000	97.295787 
2055.000000	97.293393 
2054.000000	97.289501 
2053.000000	97.285772 
2052.000000	97.283879 
2051.000000	97.284154 
2050.000000	97.285397 
2049.000000	97.286066 
2048.000000	97.285724 
2047.000000	97.285259 
2046.000000	97.285747 
2045.000000	97.287459 
2044.000000	97.289941 
2043.000000	97.292573 
2042.000000	97.294835 
2041.000000	97.296400 
2040.000000	97.297535 
2039.000000	97.299195 
2038.000000	97.301999 
2037.000000	97.305083 
2036.000000	97.306730 
2035.000000	97.306422 
2034.000000	97.305776 
2033.000000	97.307057 
2032.000000	97.310864 
2031.000000	97.315480 
2030.000000	97.318242 
2029.000000	97.317637 
2028.000000	97.314362 
2027.000000	97.310657 
2026.000000	97.308262 
2025.000000	97.307415 
2024.000000	97.307866 
2023.000000	97.310093 
2022.000000	97.314804 
2021.000000	97.321174 
2020.000000	97.326418 
2019.000000	97.327888 
2018.000000	97.325038 
2017.000000	97.319536 
2016.000000	97.314034 
2015.000000	97.310535 
2014.000000	97.309179 
2013.000000	97.308105 
2012.000000	97.305493 
2011.000000	97.302296 
2010.000000	97.301638 
2009.000000	97.304918 
2008.000000	97.309965 
2007.000000	97.313751 
2006.000000	97.315724 
2005.000000	97.316830 
2004.000000	97.317036 
2003.000000	97.315939 
2002.000000	97.314699 
2001.000000	97.314822 
2000.000000	97.315342 
1999.000000	97.313433 
1998.000000	97.307839 
1997.000000	97.300430 
1996.000000	97.294447 
1995.000000	97.291761 
1994.000000	97.292011 
1993.000000	97.293241 
1992.000000	97.293162 
1991.000000	97.291143 
1990.000000	97.289136 
1989.000000	97.289643 
1988.000000	97.292703 
1987.000000	97.295479 
1986.000000	97.295103 
1985.000000	97.291546 
1984.000000	97.287216 
1983.000000	97.284287 
1982.000000	97.283053 
1981.000000	97.282876 
1980.000000	97.283784 
1979.000000	97.286324 
1978.000000	97.290037 
1977.000000	97.293248 
1976.000000	97.294699 
1975.000000	97.294737 
1974.000000	97.294735 
1973.000000	97.295855 
1972.000000	97.298359 
1971.000000	97.301611 
1970.000000	97.304423 
1969.000000	97.305677 
1968.000000	97.304993 
1967.000000	97.302976 
1966.000000	97.301029 
1965.000000	97.300495 
1964.000000	97.301847 
1963.000000	97.304734 
1962.000000	97.308298 
1961.000000	97.311431 
1960.000000	97.313122 
1959.000000	97.312944 
1958.000000	97.311490 
1957.000000	97.310247 
1956.000000	97.310279 
1955.000000	97.311284 
1954.000000	97.312147 
1953.000000	97.312313 
1952.000000	97.312194 
1951.000000	97.312252 
1950.000000	97.312471 
1949.000000	97.312849 
1948.000000	97.313724 
1947.000000	97.315234 
1946.000000	97.316780 
1945.000000	97.317536 
1944.000000	97.317319 
1943.000000	97.316571 
1942.000000	97.315746 
1941.000000	97.314969 
1940.000000	97.314292 
1939.000000	97.313796 
1938.000000	97.313462 
1937.000000	97.313320 
1936.000000	97.313592 
1935.000000	97.314254 
1934.000000	97.314640 
1933.000000	97.314203 
1932.000000	97.313493 
1931.000000	97.313626 
1930.000000	97.314889 
1929.000000	97.316238 
1928.000000	97.316636 
1927.000000	97.316248 
1926.000000	97.315812 
1925.000000	97.315556 
1924.000000	97.315038 
1923.000000	97.313891 
1922.000000	97.312154 
1921.000000	97.309902 
1920.000000	97.307369 
1919.000000	97.305159 
1918.000000	97.303539 
1917.000000	97.301754 
1916.000000	97.299158 
1915.000000	97.296912 
1914.000000	97.296732 
1913.000000	97.298389 
1912.000000	97.299703 
1911.000000	97.299353 
1910.000000	97.298179 
1909.000000	97.297251 
1908.000000	97.296433 
1907.000000	97.295283 
1906.000000	97.293738 
1905.000000	97.291385 
1904.000000	97.287424 
1903.000000	97.282718 
1902.000000	97.279878 
1901.000000	97.279813 
1900.000000	97.280561 
1899.000000	97.280111 
1898.000000	97.278716 
1897.000000	97.277660 
1896.000000	97.276734 
1895.000000	97.274740 
1894.000000	97.271633 
1893.000000	97.268144 
1892.000000	97.264648 
1891.000000	97.261662 
1890.000000	97.260080 
1889.000000	97.259792 
1888.000000	97.259530 
1887.000000	97.259172 
1886.000000	97.259884 
1885.000000	97.261115 
1884.000000	97.260059 
1883.000000	97.255691 
1882.000000	97.251249 
1881.000000	97.250330 
1880.000000	97.252670 
1879.000000	97.254971 
1878.000000	97.254681 
1877.000000	97.252445 
1876.000000	97.250663 
1875.000000	97.250902 
1874.000000	97.253257 
1873.000000	97.256609 
1872.000000	97.259376 
1871.000000	97.260793 
1870.000000	97.261470 
1869.000000	97.262275 
1868.000000	97.262814 
1867.000000	97.262846 
1866.000000	97.263067 
1865.000000	97.262795 
1864.000000	97.260681 
1863.000000	97.257974 
1862.000000	97.258054 
1861.000000	97.262256 
1860.000000	97.268169 
1859.000000	97.273135 
1858.000000	97.277501 
1857.000000	97.282471 
1856.000000	97.287673 
1855.000000	97.292334 
1854.000000	97.296108 
1853.000000	97.297977 
1852.000000	97.297677 
1851.000000	97.297675 
1850.000000	97.300604 
1849.000000	97.305716 
1848.000000	97.309601 
1847.000000	97.310730 
1846.000000	97.310975 
1845.000000	97.312695 
1844.000000	97.315618 
1843.000000	97.318101 
1842.000000	97.319878 
1841.000000	97.321442 
1840.000000	97.323493 
1839.000000	97.326710 
1838.000000	97.330657 
1837.000000	97.333394 
1836.000000	97.333346 
1835.000000	97.331688 
1834.000000	97.331056 
1833.000000	97.332419 
1832.000000	97.335312 
1831.000000	97.338815 
1830.000000	97.341154 
1829.000000	97.341206 
1828.000000	97.340255 
1827.000000	97.340413 
1826.000000	97.342525 
1825.000000	97.345715 
1824.000000	97.348014 
1823.000000	97.348290 
1822.000000	97.347581 
1821.000000	97.347524 
1820.000000	97.348307 
1819.000000	97.348759 
1818.000000	97.348984 
1817.000000	97.350365 
1816.000000	97.351682 
1815.000000	97.350695 
1814.000000	97.348527 
1813.000000	97.348815 
1812.000000	97.351801 
1811.000000	97.352005 
1810.000000	97.347387 
1809.000000	97.343296 
1808.000000	97.342680 
1807.000000	97.342659 
1806.000000	97.341921 
1805.000000	97.342700 
1804.000000	97.344731 
1803.000000	97.343941 
1802.000000	97.338003 
1801.000000	97.330268 
1800.000000	97.324448 
1799.000000	97.319957 
1798.000000	97.317456 
1797.000000	97.318412 
1796.000000	97.319697 
1795.000000	97.317476 
1794.000000	97.313505 
1793.000000	97.314027 
1792.000000	97.319494 
1791.000000	97.322687 
1790.000000	97.322407 
1789.000000	97.323902 
1788.000000	97.328551 
1787.000000	97.333363 
1786.000000	97.336883 
1785.000000	97.340250 
1784.000000	97.343162 
1783.000000	97.345382 
1782.000000	97.348140 
1781.000000	97.352155 
1780.000000	97.356388 
1779.000000	97.359108 
1778.000000	97.361325 
1777.000000	97.364304 
1776.000000	97.366961 
1775.000000	97.368123 
1774.000000	97.367749 
1773.000000	97.367823 
1772.000000	97.370146 
1771.000000	97.372700 
1770.000000	97.373337 
1769.000000	97.373784 
1768.000000	97.376510 
1767.000000	97.380562 
1766.000000	97.383326 
1765.000000	97.385026 
1764.000000	97.388020 
1763.000000	97.392524 
1762.000000	97.395444 
1761.000000	97.395334 
1760.000000	97.394500 
1759.000000	97.394732 
1758.000000	97.395483 
1757.000000	97.395476 
1756.000000	97.395484 
1755.000000	97.396255 
1754.000000	97.396140 
1753.000000	97.393678 
1752.000000	97.390752 
1751.000000	97.391196 
1750.000000	97.395312 
1749.000000	97.399448 
1748.000000	97.401463 
1747.000000	97.402640 
1746.000000	97.403779 
1745.000000	97.404787 
1744.000000	97.406318 
1743.000000	97.407856 
1742.000000	97.407333 
1741.000000	97.404874 
1740.000000	97.403739 
1739.000000	97.405673 
1738.000000	97.407715 
1737.000000	97.407216 
1736.000000	97.404464 
1735.000000	97.401857 
1734.000000	97.401063 
1733.000000	97.400492 
1732.000000	97.399844 
1731.000000	97.401513 
1730.000000	97.406106 
1729.000000	97.409752 
1728.000000	97.410053 
1727.000000	97.408581 
1726.000000	97.407449 
1725.000000	97.406744 
1724.000000	97.405824 
1723.000000	97.404323 
1722.000000	97.402783 
1721.000000	97.401621 
1720.000000	97.400992 
1719.000000	97.400131 
1718.000000	97.397634 
1717.000000	97.394339 
1716.000000	97.389936 
1715.000000	97.383568 
1714.000000	97.378641 
1713.000000	97.377014 
1712.000000	97.375890 
1711.000000	97.373313 
1710.000000	97.370145 
1709.000000	97.367122 
1708.000000	97.363912 
1707.000000	97.360565 
1706.000000	97.357896 
1705.000000	97.355639 
1704.000000	97.350926 
1703.000000	97.342782 
1702.000000	97.332941 
1701.000000	97.325907 
1700.000000	97.322887 
1699.000000	97.318904 
1698.000000	97.313353 
1697.000000	97.309359 
1696.000000	97.306654 
1695.000000	97.302692 
1694.000000	97.297170 
1693.000000	97.291566 
1692.000000	97.286440 
1691.000000	97.281384 
1690.000000	97.276057 
1689.000000	97.270443 
1688.000000	97.264668 
1687.000000	97.258795 
1686.000000	97.252823 
1685.000000	97.247316 
1684.000000	97.242052 
1683.000000	97.236287 
1682.000000	97.230485 
1681.000000	97.224667 
1680.000000	97.218920 
1679.000000	97.213084 
1678.000000	97.206727 
1677.000000	97.199319 
1676.000000	97.191859 
1675.000000	97.186153 
1674.000000	97.180604 
1673.000000	97.172586 
1672.000000	97.163631 
1671.000000	97.157427 
1670.000000	97.154847 
1669.000000	97.151128 
1668.000000	97.144948 
1667.000000	97.140153 
1666.000000	97.136055 
1665.000000	97.130310 
1664.000000	97.124288 
1663.000000	97.121059 
1662.000000	97.118652 
1661.000000	97.110536 
1660.000000	97.098087 
1659.000000	97.088682 
1658.000000	97.086339 
1657.000000	97.085407 
1656.000000	97.082962 
1655.000000	97.079236 
1654.000000	97.078492 
1653.000000	97.072317 
1652.000000	97.052855 
1651.000000	97.031522 
1650.000000	97.011070 
1649.000000	96.998615 
1648.000000	96.994062 
1647.000000	96.992952 
1646.000000	96.989547 
1645.000000	96.986567 
1644.000000	96.982833 
1643.000000	96.978581 
1642.000000	96.976138 
1641.000000	96.975536 
1640.000000	96.973745 
1639.000000	96.968821 
1638.000000	96.962855 
1637.000000	96.959210 
1636.000000	96.957365 
1635.000000	96.958358 
1634.000000	96.964063 
1633.000000	96.969664 
1632.000000	96.970529 
1631.000000	96.969267 
1630.000000	96.972274 
1629.000000	96.980296 
1628.000000	96.988444 
1627.000000	96.995096 
1626.000000	97.001969 
1625.000000	97.008239 
1624.000000	97.013529 
1623.000000	97.021614 
1622.000000	97.034349 
1621.000000	97.044920 
1620.000000	97.049640 
1619.000000	97.053916 
1618.000000	97.064338 
1617.000000	97.076836 
1616.000000	97.081243 
1615.000000	97.082545 
1614.000000	97.088872 
1613.000000	97.096595 
1612.000000	97.099888 
1611.000000	97.101695 
1610.000000	97.108825 
1609.000000	97.120209 
1608.000000	97.131147 
1607.000000	97.143197 
1606.000000	97.157300 
1605.000000	97.168790 
1604.000000	97.177147 
1603.000000	97.187556 
1602.000000	97.201179 
1601.000000	97.212536 
1600.000000	97.219219 
1599.000000	97.225965 
1598.000000	97.235598 
1597.000000	97.245146 
1596.000000	97.252301 
1595.000000	97.259914 
1594.000000	97.270680 
1593.000000	97.281084 
1592.000000	97.286995 
1591.000000	97.290915 
1590.000000	97.297352 
1589.000000	97.304976 
1588.000000	97.310701 
1587.000000	97.316831 
1586.000000	97.326064 
1585.000000	97.333949 
1584.000000	97.336971 
1583.000000	97.340416 
1582.000000	97.348801 
1581.000000	97.358261 
1580.000000	97.365049 
1579.000000	97.373100 
1578.000000	97.386302 
1577.000000	97.399467 
1576.000000	97.403493 
1575.000000	97.402511 
1574.000000	97.403570 
1573.000000	97.404400 
1572.000000	97.405199 
1571.000000	97.409629 
1570.000000	97.416256 
1569.000000	97.412821 
1568.000000	97.400388 
1567.000000	97.392666 
1566.000000	97.393991 
1565.000000	97.397110 
1564.000000	97.400725 
1563.000000	97.405824 
1562.000000	97.411216 
1561.000000	97.404260 
1560.000000	97.390012 
1559.000000	97.383108 
1558.000000	97.380039 
1557.000000	97.378895 
1556.000000	97.373219 
1555.000000	97.372242 
1554.000000	97.370959 
1553.000000	97.368555 
1552.000000	97.364964 
1551.000000	97.361681 
1550.000000	97.353121 
1549.000000	97.337318 
1548.000000	97.320335 
1547.000000	97.310174 
1546.000000	97.307159 
1545.000000	97.305956 
1544.000000	97.300767 
1543.000000	97.289361 
1542.000000	97.275806 
1541.000000	97.267416 
1540.000000	97.254709 
1539.000000	97.233065 
1538.000000	97.213357 
1537.000000	97.194263 
1536.000000	97.174599 
1535.000000	97.157849 
1534.000000	97.147496 
1533.000000	97.140597 
1532.000000	97.131491 
1531.000000	97.116286 
1530.000000	97.098385 
1529.000000	97.083299 
1528.000000	97.070374 
1527.000000	97.055025 
1526.000000	97.035513 
1525.000000	97.016068 
1524.000000	97.001401 
1523.000000	96.991143 
1522.000000	96.980817 
1521.000000	96.964492 
1520.000000	96.940189 
1519.000000	96.911795 
1518.000000	96.884476 
1517.000000	96.860660 
1516.000000	96.838564 
1515.000000	96.817491 
1514.000000	96.798462 
1513.000000	96.783232 
1512.000000	96.771228 
1511.000000	96.756198 
1510.000000	96.734622 
1509.000000	96.710595 
1508.000000	96.691952 
1507.000000	96.670972 
1506.000000	96.641452 
1505.000000	96.615810 
1504.000000	96.594900 
1503.000000	96.574434 
1502.000000	96.552514 
1501.000000	96.530526 
1500.000000	96.511000 
1499.000000	96.493291 
1498.000000	96.471289 
1497.000000	96.445525 
1496.000000	96.423524 
1495.000000	96.405996 
1494.000000	96.388329 
1493.000000	96.370287 
1492.000000	96.355517 
1491.000000	96.345675 
1490.000000	96.336368 
1489.000000	96.323847 
1488.000000	96.306687 
1487.000000	96.282935 
1486.000000	96.256981 
1485.000000	96.231979 
1484.000000	96.207762 
1483.000000	96.185729 
1482.000000	96.166039 
1481.000000	96.147478 
1480.000000	96.127680 
1479.000000	96.105765 
1478.000000	96.083720 
1477.000000	96.064800 
1476.000000	96.046808 
1475.000000	96.023189 
1474.000000	95.994219 
1473.000000	95.969974 
1472.000000	95.957298 
1471.000000	95.948158 
1470.000000	95.934271 
1469.000000	95.917352 
1468.000000	95.900658 
1467.000000	95.882724 
1466.000000	95.861962 
1465.000000	95.841538 
1464.000000	95.825964 
1463.000000	95.811702 
1462.000000	95.792795 
1461.000000	95.772446 
1460.000000	95.759063 
1459.000000	95.754933 
1458.000000	95.744330 
1457.000000	95.714288 
1456.000000	95.683318 
1455.000000	95.664417 
1454.000000	95.647188 
1453.000000	95.631608 
1452.000000	95.623327 
1451.000000	95.622873 
1450.000000	95.624824 
1449.000000	95.629147 
1448.000000	95.637394 
1447.000000	95.643735 
1446.000000	95.640734 
1445.000000	95.631456 
1444.000000	95.625989 
1443.000000	95.625640 
1442.000000	95.624032 
1441.000000	95.618423 
1440.000000	95.613505 
1439.000000	95.611714 
1438.000000	95.608071 
1437.000000	95.601702 
1436.000000	95.600200 
1435.000000	95.603544 
1434.000000	95.604427 
1433.000000	95.605286 
1432.000000	95.612546 
1431.000000	95.626694 
1430.000000	95.639964 
1429.000000	95.648082 
1428.000000	95.655007 
1427.000000	95.664761 
1426.000000	95.677001 
1425.000000	95.689398 
1424.000000	95.704065 
1423.000000	95.720036 
1422.000000	95.731818 
1421.000000	95.740600 
1420.000000	95.757164 
1419.000000	95.780089 
1418.000000	95.788439 
1417.000000	95.782340 
1416.000000	95.783724 
1415.000000	95.800548 
1414.000000	95.820842 
1413.000000	95.833780 
1412.000000	95.843910 
1411.000000	95.859359 
1410.000000	95.877024 
1409.000000	95.892744 
1408.000000	95.909877 
1407.000000	95.931846 
1406.000000	95.955642 
1405.000000	95.977361 
1404.000000	96.001055 
1403.000000	96.028092 
1402.000000	96.052371 
1401.000000	96.073852 
1400.000000	96.101273 
1399.000000	96.137604 
1398.000000	96.171165 
1397.000000	96.192305 
1396.000000	96.206291 
1395.000000	96.224589 
1394.000000	96.249530 
1393.000000	96.277240 
1392.000000	96.309961 
1391.000000	96.349159 
1390.000000	96.389288 
1389.000000	96.423501 
1388.000000	96.449401 
1387.000000	96.468369 
1386.000000	96.482871 
1385.000000	96.497248 
1384.000000	96.517300 
1383.000000	96.544091 
1382.000000	96.571981 
1381.000000	96.595989 
1380.000000	96.616347 
1379.000000	96.636865 
1378.000000	96.660411 
1377.000000	96.687191 
1376.000000	96.716076 
1375.000000	96.745183 
1374.000000	96.771039 
1373.000000	96.792283 
1372.000000	96.812307 
1371.000000	96.835737 
1370.000000	96.863472 
1369.000000	96.890018 
1368.000000	96.911559 
1367.000000	96.930302 
1366.000000	96.950590 
1365.000000	96.975244 
1364.000000	97.002853 
1363.000000	97.027228 
1362.000000	97.043698 
1361.000000	97.054671 
1360.000000	97.066005 
1359.000000	97.081466 
1358.000000	97.100888 
1357.000000	97.121228 
1356.000000	97.139635 
1355.000000	97.154955 
1354.000000	97.167598 
1353.000000	97.180157 
1352.000000	97.193898 
1351.000000	97.208530 
1350.000000	97.224661 
1349.000000	97.240045 
1348.000000	97.252149 
1347.000000	97.261388 
1346.000000	97.270638 
1345.000000	97.281237 
1344.000000	97.292363 
1343.000000	97.303990 
1342.000000	97.317929 
1341.000000	97.333892 
1340.000000	97.347154 
1339.000000	97.353357 
1338.000000	97.353291 
1337.000000	97.351359 
1336.000000	97.351133 
1335.000000	97.353183 
1334.000000	97.356658 
1333.000000	97.361272 
1332.000000	97.366865 
1331.000000	97.372961 
1330.000000	97.378926 
1329.000000	97.384114 
1328.000000	97.388295 
1327.000000	97.392527 
1326.000000	97.397660 
1325.000000	97.401223 
1324.000000	97.400965 
1323.000000	97.397804 
1322.000000	97.394294 
1321.000000	97.392235 
1320.000000	97.392809 
1319.000000	97.396521 
1318.000000	97.401957 
1317.000000	97.406707 
1316.000000	97.409535 
1315.000000	97.410306 
1314.000000	97.408528 
1313.000000	97.404731 
1312.000000	97.401897 
1311.000000	97.402607 
1310.000000	97.405209 
1309.000000	97.406174 
1308.000000	97.405272 
1307.000000	97.405896 
1306.000000	97.410037 
1305.000000	97.414769 
1304.000000	97.416729 
1303.000000	97.415383 
1302.000000	97.411785 
1301.000000	97.407057 
1300.000000	97.403443 
1299.000000	97.403541 
1298.000000	97.406979 
1297.000000	97.410025 
1296.000000	97.409687 
1295.000000	97.407080 
1294.000000	97.405191 
1293.000000	97.405496 
1292.000000	97.407686 
1291.000000	97.410671 
1290.000000	97.412941 
1289.000000	97.413190 
1288.000000	97.411277 
1287.000000	97.407965 
1286.000000	97.403763 
1285.000000	97.399487 
1284.000000	97.397416 
1283.000000	97.399061 
1282.000000	97.402113 
1281.000000	97.402164 
1280.000000	97.398070 
1279.000000	97.393714 
1278.000000	97.393368 
1277.000000	97.397479 
1276.000000	97.403424 
1275.000000	97.408656 
1274.000000	97.411726 
1273.000000	97.412293 
1272.000000	97.411629 
1271.000000	97.411689 
1270.000000	97.412546 
1269.000000	97.412107 
1268.000000	97.409329 
1267.000000	97.405586 
1266.000000	97.401970 
1265.000000	97.398512 
1264.000000	97.396579 
1263.000000	97.398466 
1262.000000	97.403499 
1261.000000	97.407504 
1260.000000	97.408241 
1259.000000	97.408794 
1258.000000	97.412443 
1257.000000	97.417235 
1256.000000	97.418376 
1255.000000	97.414726 
1254.000000	97.410258 
1253.000000	97.409061 
1252.000000	97.410379 
1251.000000	97.409716 
1250.000000	97.404444 
1249.000000	97.397561 
1248.000000	97.395141 
1247.000000	97.399416 
1246.000000	97.405342 
1245.000000	97.406013 
1244.000000	97.400134 
1243.000000	97.392342 
1242.000000	97.387776 
1241.000000	97.388512 
1240.000000	97.393506 
1239.000000	97.398738 
1238.000000	97.398585 
1237.000000	97.390325 
1236.000000	97.376789 
1235.000000	97.362302 
1234.000000	97.347370 
1233.000000	97.330202 
1232.000000	97.311585 
1231.000000	97.293926 
1230.000000	97.276656 
1229.000000	97.257141 
1228.000000	97.235114 
1227.000000	97.211496 
1226.000000	97.183456 
1225.000000	97.145658 
1224.000000	97.096907 
1223.000000	97.041326 
1222.000000	96.982369 
1221.000000	96.919556 
1220.000000	96.851798 
1219.000000	96.779795 
1218.000000	96.703770 
1217.000000	96.622540 
1216.000000	96.535816 
1215.000000	96.444294 
1214.000000	96.347542 
1213.000000	96.245768 
1212.000000	96.143145 
1211.000000	96.043848 
1210.000000	95.944927 
1209.000000	95.839142 
1208.000000	95.725520 
1207.000000	95.610958 
1206.000000	95.500230 
1205.000000	95.390430 
1204.000000	95.277123 
1203.000000	95.160367 
1202.000000	95.042710 
1201.000000	94.925952 
1200.000000	94.811640 
1199.000000	94.700383 
1198.000000	94.589072 
1197.000000	94.473448 
1196.000000	94.354135 
1195.000000	94.235344 
1194.000000	94.117413 
1193.000000	93.995939 
1192.000000	93.868969 
1191.000000	93.739259 
1190.000000	93.608454 
1189.000000	93.474882 
1188.000000	93.338237 
1187.000000	93.200596 
1186.000000	93.061575 
1185.000000	92.918185 
1184.000000	92.770326 
1183.000000	92.620743 
1182.000000	92.469208 
1181.000000	92.312731 
1180.000000	92.151666 
1179.000000	91.988804 
1178.000000	91.821939 
1177.000000	91.644877 
1176.000000	91.456894 
1175.000000	91.263905 
1174.000000	91.069364 
1173.000000	90.871644 
1172.000000	90.671501 
1171.000000	90.473184 
1170.000000	90.276359 
1169.000000	90.076426 
1168.000000	89.875804 
1167.000000	89.686513 
1166.000000	89.519771 
1165.000000	89.382830 
1164.000000	89.287688 
1163.000000	89.250124 
1162.000000	89.273649 
1161.000000	89.341464 
1160.000000	89.426878 
1159.000000	89.504310 
1158.000000	89.550223 
1157.000000	89.546461 
1156.000000	89.489638 
1155.000000	89.391493 
1154.000000	89.266776 
1153.000000	89.125547 
1152.000000	88.976981 
1151.000000	88.830372 
1150.000000	88.688217 
1149.000000	88.546451 
1148.000000	88.404661 
1147.000000	88.267814 
1146.000000	88.135658 
1145.000000	88.000267 
1144.000000	87.857795 
1143.000000	87.713688 
1142.000000	87.572751 
1141.000000	87.433025 
1140.000000	87.292866 
1139.000000	87.154747 
1138.000000	87.018431 
1137.000000	86.879332 
1136.000000	86.736821 
1135.000000	86.595275 
1134.000000	86.454544 
1133.000000	86.309122 
1132.000000	86.159048 
1131.000000	86.011146 
1130.000000	85.866847 
1129.000000	85.719598 
1128.000000	85.567153 
1127.000000	85.415094 
1126.000000	85.265001 
1125.000000	85.110663 
1124.000000	84.949810 
1123.000000	84.788460 
1122.000000	84.629774 
1121.000000	84.469767 
1120.000000	84.307855 
1119.000000	84.149856 
1118.000000	83.996603 
1117.000000	83.842151 
1116.000000	83.686949 
1115.000000	83.539602 
1114.000000	83.401566 
1113.000000	83.263797 
1112.000000	83.122642 
1111.000000	82.984498 
1110.000000	82.851129 
1109.000000	82.715989 
1108.000000	82.578337 
1107.000000	82.444740 
1106.000000	82.314058 
1105.000000	82.177021 
1104.000000	82.033491 
1103.000000	81.894126 
1102.000000	81.761164 
1101.000000	81.626011 
1100.000000	81.488245 
1099.000000	81.357400 
1098.000000	81.236178 
1097.000000	81.115660 
1096.000000	80.993247 
1095.000000	80.876035 
1094.000000	80.763347 
1093.000000	80.644804 
1092.000000	80.520592 
1091.000000	80.404986 
1090.000000	80.304725 
1089.000000	80.211446 
1088.000000	80.119074 
1087.000000	80.030104 
1086.000000	79.941689 
1085.000000	79.845631 
1084.000000	79.746147 
1083.000000	79.657637 
1082.000000	79.580598 
1081.000000	79.499864 
1080.000000	79.410462 
1079.000000	79.323853 
1078.000000	79.243941 
1077.000000	79.158467 
1076.000000	79.059748 
1075.000000	78.952468 
1074.000000	78.835389 
1073.000000	78.696560 
1072.000000	78.531843 
1071.000000	78.346726 
1070.000000	78.134946 
1069.000000	77.878651 
1068.000000	77.577772 
1067.000000	77.258596 
1066.000000	76.945133 
1065.000000	76.640744 
1064.000000	76.344052 
1063.000000	76.058711 
1062.000000	75.777943 
1061.000000	75.483084 
1060.000000	75.169651 
1059.000000	74.855924 
1058.000000	74.556619 
1057.000000	74.266950 
1056.000000	73.979934 
1055.000000	73.697787 
1054.000000	73.417534 
1053.000000	73.126670 
1052.000000	72.823396 
1051.000000	72.521052 
1050.000000	72.223452 
1049.000000	71.918500 
1048.000000	71.603696 
1047.000000	71.292096 
1046.000000	70.986824 
1045.000000	70.675607 
1044.000000	70.355090 
1043.000000	70.035855 
1042.000000	69.719571 
1041.000000	69.396174 
1040.000000	69.068533 
1039.000000	68.754802 
1038.000000	68.460988 
1037.000000	68.176341 
1036.000000	67.900199 
1035.000000	67.646671 
1034.000000	67.418001 
1033.000000	67.200667 
1032.000000	66.992304 
1031.000000	66.804397 
1030.000000	66.634582 
1029.000000	66.466845 
1028.000000	66.304321 
1027.000000	66.170144 
1026.000000	66.068684 
1025.000000	65.976425 
1024.000000	65.878141 
1023.000000	65.781683 
1022.000000	65.689984 
1021.000000	65.590633 
1020.000000	65.481886 
1019.000000	65.378590 
1018.000000	65.283480 
1017.000000	65.181620 
1016.000000	65.070579 
1015.000000	64.966517 
1014.000000	64.873286 
1013.000000	64.775844 
1012.000000	64.671688 
1011.000000	64.578359 
1010.000000	64.501945 
1009.000000	64.428389 
1008.000000	64.353835 
1007.000000	64.293624 
1006.000000	64.253465 
1005.000000	64.221481 
1004.000000	64.195661 
1003.000000	64.188654 
1002.000000	64.198203 
1001.000000	64.204213 
1000.000000	64.203435 
999.000000	 64.216333 
998.000000	 64.251156 
997.000000	 64.291774 
996.000000	 64.329313 
995.000000	 64.375558 
994.000000	 64.435945 
993.000000	 64.499089 
992.000000	 64.561952 
991.000000	 64.636607 
990.000000	 64.723925 
989.000000	 64.809527 
988.000000	 64.893407 
987.000000	 64.994355 
986.000000	 65.117708 
985.000000	 65.248367 
984.000000	 65.382690 
983.000000	 65.536853 
982.000000	 65.715603 
981.000000	 65.903194 
980.000000	 66.093739 
979.000000	 66.300817 
978.000000	 66.528159 
977.000000	 66.760922 
976.000000	 66.995427 
975.000000	 67.248266 
974.000000	 67.525748 
973.000000	 67.812282 
972.000000	 68.098679 
971.000000	 68.394880 
970.000000	 68.704816 
969.000000	 69.015265 
968.000000	 69.319471 
967.000000	 69.627097 
966.000000	 69.942036 
965.000000	 70.254747 
964.000000	 70.564139 
963.000000	 70.882320 
962.000000	 71.209807 
961.000000	 71.530201 
960.000000	 71.836921 
959.000000	 72.141575 
958.000000	 72.448957 
957.000000	 72.747503 
956.000000	 73.031814 
955.000000	 73.311517 
954.000000	 73.590789 
953.000000	 73.861134 
952.000000	 74.120513 
951.000000	 74.377306 
950.000000	 74.629979 
949.000000	 74.865520 
948.000000	 75.083209 
947.000000	 75.296993 
946.000000	 75.509175 
945.000000	 75.705109 
944.000000	 75.879999 
943.000000	 76.047849 
942.000000	 76.217682 
941.000000	 76.383459 
940.000000	 76.544254 
939.000000	 76.711253 
938.000000	 76.887096 
937.000000	 77.060197 
936.000000	 77.227179 
935.000000	 77.399974 
934.000000	 77.583791 
933.000000	 77.768955 
932.000000	 77.951069 
931.000000	 78.138129 
930.000000	 78.331065 
929.000000	 78.518205 
928.000000	 78.696136 
927.000000	 78.875908 
926.000000	 79.061530 
925.000000	 79.241410 
924.000000	 79.407345 
923.000000	 79.563494 
922.000000	 79.711759 
921.000000	 79.847706 
920.000000	 79.975929 
919.000000	 80.109617 
918.000000	 80.249139 
917.000000	 80.379981 
916.000000	 80.497384 
915.000000	 80.614957 
914.000000	 80.744733 
913.000000	 80.887806 
912.000000	 81.048438 
911.000000	 81.237042 
910.000000	 81.454095 
909.000000	 81.690220 
908.000000	 81.945849 
907.000000	 82.231167 
906.000000	 82.543998 
905.000000	 82.868331 
904.000000	 83.197206 
903.000000	 83.536362 
902.000000	 83.883784 
901.000000	 84.227922 
900.000000	 84.568436 
899.000000	 84.916682 
898.000000	 85.272850 
897.000000	 85.622848 
896.000000	 85.959682 
895.000000	 86.286577 
894.000000	 86.598363 
893.000000	 86.883092 
892.000000	 87.145097 
891.000000	 87.403934 
890.000000	 87.665238 
889.000000	 87.912249 
888.000000	 88.129870 
887.000000	 88.317447 
886.000000	 88.476201 
885.000000	 88.605665 
884.000000	 88.715988 
883.000000	 88.822121 
882.000000	 88.921947 
881.000000	 89.002897 
880.000000	 89.073854 
879.000000	 89.164735 
878.000000	 89.288047 
877.000000	 89.427798 
876.000000	 89.574778 
875.000000	 89.745004 
874.000000	 89.952579 
873.000000	 90.191410 
872.000000	 90.455270 
871.000000	 90.749587 
870.000000	 91.070065 
869.000000	 91.392945 
868.000000	 91.700307 
867.000000	 91.996601 
866.000000	 92.290083 
865.000000	 92.576441 
864.000000	 92.851239 
863.000000	 93.121504 
862.000000	 93.393345 
861.000000	 93.661162 
860.000000	 93.918239 
859.000000	 94.165792 
858.000000	 94.404477 
857.000000	 94.629270 
856.000000	 94.838847 
855.000000	 95.037957 
854.000000	 95.225561 
853.000000	 95.393318 
852.000000	 95.540455 
851.000000	 95.677524 
850.000000	 95.811717 
849.000000	 95.941435 
848.000000	 96.067655 
847.000000	 96.194933 
846.000000	 96.317387 
845.000000	 96.419985 
844.000000	 96.498811 
843.000000	 96.565181 
842.000000	 96.625634 
841.000000	 96.673438 
840.000000	 96.704035 
839.000000	 96.722059 
838.000000	 96.728139 
837.000000	 96.716333 
836.000000	 96.691646 
835.000000	 96.673366 
834.000000	 96.672072 
833.000000	 96.678011 
832.000000	 96.680765 
831.000000	 96.685705 
830.000000	 96.702139 
829.000000	 96.730213 
828.000000	 96.770402 
827.000000	 96.831702 
826.000000	 96.917799 
825.000000	 97.017022 
824.000000	 97.116015 
823.000000	 97.210260 
822.000000	 97.293983 
821.000000	 97.356567 
820.000000	 97.396476 
819.000000	 97.422653 
818.000000	 97.435347 
817.000000	 97.418795 
816.000000	 97.357888 
815.000000	 97.249823 
814.000000	 97.094570 
813.000000	 96.885718 
812.000000	 96.615574 
811.000000	 96.276663 
810.000000	 95.852442 
809.000000	 95.320150 
808.000000	 94.672184 
807.000000	 93.926111 
806.000000	 93.109381 
805.000000	 92.246805 
804.000000	 91.368632 
803.000000	 90.513606 
802.000000	 89.713044 
801.000000	 88.987515 
800.000000	 88.366956 
799.000000	 87.892231 
798.000000	 87.583407 
797.000000	 87.423986 
796.000000	 87.384143 
795.000000	 87.438201 
794.000000	 87.553323 
793.000000	 87.688287 
792.000000	 87.816833 
791.000000	 87.933563 
790.000000	 88.030052 
789.000000	 88.085603 
788.000000	 88.086986 
787.000000	 88.034740 
786.000000	 87.923035 
785.000000	 87.735471 
784.000000	 87.470336 
783.000000	 87.151693 
782.000000	 86.809671 
781.000000	 86.470931 
780.000000	 86.173019 
779.000000	 85.960303 
778.000000	 85.853170 
777.000000	 85.842635 
776.000000	 85.921635 
775.000000	 86.094419 
774.000000	 86.346442 
773.000000	 86.634812 
772.000000	 86.922992 
771.000000	 87.201972 
770.000000	 87.468024 
769.000000	 87.706214 
768.000000	 87.908384 
767.000000	 88.083203 
766.000000	 88.235443 
765.000000	 88.357706 
764.000000	 88.455216 
763.000000	 88.555769 
762.000000	 88.680089 
761.000000	 88.821500 
760.000000	 88.967398 
759.000000	 89.120464 
758.000000	 89.285513 
757.000000	 89.455926 
756.000000	 89.628093 
755.000000	 89.811241 
754.000000	 90.007723 
753.000000	 90.198779 
752.000000	 90.363896 
751.000000	 90.502235 
750.000000	 90.626202 
749.000000	 90.747144 
748.000000	 90.874380 
747.000000	 91.012905 
746.000000	 91.154540 
745.000000	 91.286709 
744.000000	 91.416247 
743.000000	 91.567721 
742.000000	 91.751641 
741.000000	 91.951922 
740.000000	 92.150903 
739.000000	 92.347809 
738.000000	 92.545347 
737.000000	 92.736916 
736.000000	 92.916467 
735.000000	 93.085163 
734.000000	 93.240765 
733.000000	 93.375181 
732.000000	 93.487729 
731.000000	 93.585933 
730.000000	 93.669675 
729.000000	 93.730990 
728.000000	 93.773922 
727.000000	 93.817317 
726.000000	 93.874050 
725.000000	 93.945005 
724.000000	 94.034790 
723.000000	 94.152175 
722.000000	 94.290603 
721.000000	 94.428970 
720.000000	 94.557888 
719.000000	 94.685047 
718.000000	 94.809542 
717.000000	 94.915282 
716.000000	 94.996572 
715.000000	 95.068237 
714.000000	 95.143601 
713.000000	 95.223060 
712.000000	 95.311627 
711.000000	 95.423356 
710.000000	 95.556476 
709.000000	 95.685276 
708.000000	 95.788894 
707.000000	 95.868506 
706.000000	 95.925775 
705.000000	 95.947106 
704.000000	 95.921075 
703.000000	 95.849347 
702.000000	 95.725493 
701.000000	 95.521882 
700.000000	 95.213371 
699.000000	 94.803482 
698.000000	 94.322697 
697.000000	 93.823305 
696.000000	 93.384495 
695.000000	 93.092277 
694.000000	 92.990801 
693.000000	 93.061014 
692.000000	 93.251068 
691.000000	 93.512582 
690.000000	 93.804853 
689.000000	 94.091453 
688.000000	 94.352685 
687.000000	 94.588006 
686.000000	 94.795888 
685.000000	 94.968096 
684.000000	 95.109159 
683.000000	 95.238758 
682.000000	 95.366850 
681.000000	 95.487532 
680.000000	 95.602215 
679.000000	 95.724998 
678.000000	 95.855626 
677.000000	 95.975863 
676.000000	 96.084576 
675.000000	 96.201860 
674.000000	 96.329306 
673.000000	 96.438753 
672.000000	 96.516104 
671.000000	 96.585040 
670.000000	 96.677277 
669.000000	 96.802663 
668.000000	 96.955831 
667.000000	 97.092851 
666.000000	 97.169378 
665.000000	 97.198472 
664.000000	 97.216279 
663.000000	 97.251303 
662.000000	 97.310350 
661.000000	 97.370012 
660.000000	 97.416814 
659.000000	 97.464332 
658.000000	 97.515121 
657.000000	 97.541487 
656.000000	 97.529415 
655.000000	 97.498502 
654.000000	 97.460168 
653.000000	 97.398244 
652.000000	 97.319841 
651.000000	 97.280877 
650.000000	 97.316599 

