4000.000000	98.700872 
3999.000000	98.700222 
3998.000000	98.699336 
3997.000000	98.698413 
3996.000000	98.697775 
3995.000000	98.697630 
3994.000000	98.697962 
3993.000000	98.698499 
3992.000000	98.698832 
3991.000000	98.698702 
3990.000000	98.698097 
3989.000000	98.697232 
3988.000000	98.696457 
3987.000000	98.696072 
3986.000000	98.696196 
3985.000000	98.696679 
3984.000000	98.697141 
3983.000000	98.697248 
3982.000000	98.697000 
3981.000000	98.696701 
3980.000000	98.696490 
3979.000000	98.696070 
3978.000000	98.695146 
3977.000000	98.693980 
3976.000000	98.693242 
3975.000000	98.693254 
3974.000000	98.693579 
3973.000000	98.693454 
3972.000000	98.692472 
3971.000000	98.690841 
3970.000000	98.689146 
3969.000000	98.687950 
3968.000000	98.687559 
3967.000000	98.687909 
3966.000000	98.688564 
3965.000000	98.688915 
3964.000000	98.688473 
3963.000000	98.687150 
3962.000000	98.685380 
3961.000000	98.683800 
3960.000000	98.682704 
3959.000000	98.681957 
3958.000000	98.681361 
3957.000000	98.680960 
3956.000000	98.680868 
3955.000000	98.680795 
3954.000000	98.680118 
3953.000000	98.678435 
3952.000000	98.675965 
3951.000000	98.673419 
3950.000000	98.671301 
3949.000000	98.669552 
3948.000000	98.667775 
3947.000000	98.665795 
3946.000000	98.664046 
3945.000000	98.663283 
3944.000000	98.663826 
3943.000000	98.664939 
3942.000000	98.665637 
3941.000000	98.665859 
3940.000000	98.666195 
3939.000000	98.666859 
3938.000000	98.667264 
3937.000000	98.666577 
3936.000000	98.664576 
3935.000000	98.661838 
3934.000000	98.659462 
3933.000000	98.658339 
3932.000000	98.658544 
3931.000000	98.659278 
3930.000000	98.659616 
3929.000000	98.659483 
3928.000000	98.659453 
3927.000000	98.659753 
3926.000000	98.659812 
3925.000000	98.658777 
3924.000000	98.656498 
3923.000000	98.653741 
3922.000000	98.651335 
3921.000000	98.649634 
3920.000000	98.648652 
3919.000000	98.648317 
3918.000000	98.648416 
3917.000000	98.648528 
3916.000000	98.648364 
3915.000000	98.647993 
3914.000000	98.647679 
3913.000000	98.647527 
3912.000000	98.647365 
3911.000000	98.647045 
3910.000000	98.646495 
3909.000000	98.645663 
3908.000000	98.644636 
3907.000000	98.643483 
3906.000000	98.642177 
3905.000000	98.640386 
3904.000000	98.637763 
3903.000000	98.634798 
3902.000000	98.632748 
3901.000000	98.632444 
3900.000000	98.633637 
3899.000000	98.635167 
3898.000000	98.636077 
3897.000000	98.636221 
3896.000000	98.635830 
3895.000000	98.635306 
3894.000000	98.635105 
3893.000000	98.635375 
3892.000000	98.635580 
3891.000000	98.634847 
3890.000000	98.632993 
3889.000000	98.630479 
3888.000000	98.628020 
3887.000000	98.626371 
3886.000000	98.625931 
3885.000000	98.626346 
3884.000000	98.626815 
3883.000000	98.626773 
3882.000000	98.626335 
3881.000000	98.626017 
3880.000000	98.626153 
3879.000000	98.626548 
3878.000000	98.626837 
3877.000000	98.626918 
3876.000000	98.627074 
3875.000000	98.627426 
3874.000000	98.627580 
3873.000000	98.627106 
3872.000000	98.626134 
3871.000000	98.625167 
3870.000000	98.624598 
3869.000000	98.624647 
3868.000000	98.625247 
3867.000000	98.625956 
3866.000000	98.626421 
3865.000000	98.626650 
3864.000000	98.626803 
3863.000000	98.626933 
3862.000000	98.626909 
3861.000000	98.626825 
3860.000000	98.627022 
3859.000000	98.627627 
3858.000000	98.628327 
3857.000000	98.628653 
3856.000000	98.628488 
3855.000000	98.628181 
3854.000000	98.627728 
3853.000000	98.626837 
3852.000000	98.626009 
3851.000000	98.625860 
3850.000000	98.626212 
3849.000000	98.626751 
3848.000000	98.627356 
3847.000000	98.628041 
3846.000000	98.628675 
3845.000000	98.629008 
3844.000000	98.628978 
3843.000000	98.628767 
3842.000000	98.628562 
3841.000000	98.628534 
3840.000000	98.628799 
3839.000000	98.629346 
3838.000000	98.630036 
3837.000000	98.630589 
3836.000000	98.630791 
3835.000000	98.630625 
3834.000000	98.630251 
3833.000000	98.629995 
3832.000000	98.630124 
3831.000000	98.630630 
3830.000000	98.631321 
3829.000000	98.631993 
3828.000000	98.632724 
3827.000000	98.633854 
3826.000000	98.635332 
3825.000000	98.636442 
3824.000000	98.636344 
3823.000000	98.635007 
3822.000000	98.633310 
3821.000000	98.631932 
3820.000000	98.631127 
3819.000000	98.630916 
3818.000000	98.630875 
3817.000000	98.630963 
3816.000000	98.631717 
3815.000000	98.633228 
3814.000000	98.634709 
3813.000000	98.635330 
3812.000000	98.635257 
3811.000000	98.635670 
3810.000000	98.637214 
3809.000000	98.639043 
3808.000000	98.639739 
3807.000000	98.638857 
3806.000000	98.637166 
3805.000000	98.635343 
3804.000000	98.632988 
3803.000000	98.630597 
3802.000000	98.629610 
3801.000000	98.630151 
3800.000000	98.631416 
3799.000000	98.632226 
3798.000000	98.631823 
3797.000000	98.631276 
3796.000000	98.632250 
3795.000000	98.634854 
3794.000000	98.637582 
3793.000000	98.639443 
3792.000000	98.641105 
3791.000000	98.643886 
3790.000000	98.647538 
3789.000000	98.650074 
3788.000000	98.650008 
3787.000000	98.647607 
3786.000000	98.644332 
3785.000000	98.641658 
3784.000000	98.640255 
3783.000000	98.639802 
3782.000000	98.639253 
3781.000000	98.637767 
3780.000000	98.635689 
3779.000000	98.634500 
3778.000000	98.635161 
3777.000000	98.636570 
3776.000000	98.636402 
3775.000000	98.633743 
3774.000000	98.629931 
3773.000000	98.627096 
3772.000000	98.626746 
3771.000000	98.628886 
3770.000000	98.631853 
3769.000000	98.633975 
3768.000000	98.634749 
3767.000000	98.633744 
3766.000000	98.630821 
3765.000000	98.626918 
3764.000000	98.623714 
3763.000000	98.621982 
3762.000000	98.621190 
3761.000000	98.620705 
3760.000000	98.619809 
3759.000000	98.618029 
3758.000000	98.615014 
3757.000000	98.610211 
3756.000000	98.603296 
3755.000000	98.594396 
3754.000000	98.584759 
3753.000000	98.576838 
3752.000000	98.572730 
3751.000000	98.571705 
3750.000000	98.571471 
3749.000000	98.571691 
3748.000000	98.572681 
3747.000000	98.573653 
3746.000000	98.575110 
3745.000000	98.577528 
3744.000000	98.580716 
3743.000000	98.583856 
3742.000000	98.583546 
3741.000000	98.576682 
3740.000000	98.565344 
3739.000000	98.555819 
3738.000000	98.553395 
3737.000000	98.557587 
3736.000000	98.563633 
3735.000000	98.567260 
3734.000000	98.567912 
3733.000000	98.567414 
3732.000000	98.567907 
3731.000000	98.571279 
3730.000000	98.577023 
3729.000000	98.581989 
3728.000000	98.584243 
3727.000000	98.584650 
3726.000000	98.584932 
3725.000000	98.585666 
3724.000000	98.586667 
3723.000000	98.587588 
3722.000000	98.587600 
3721.000000	98.586352 
3720.000000	98.583676 
3719.000000	98.580654 
3718.000000	98.579718 
3717.000000	98.581434 
3716.000000	98.583274 
3715.000000	98.581527 
3714.000000	98.575769 
3713.000000	98.570684 
3712.000000	98.570361 
3711.000000	98.573410 
3710.000000	98.575420 
3709.000000	98.573626 
3708.000000	98.568183 
3707.000000	98.560041 
3706.000000	98.550182 
3705.000000	98.540005 
3704.000000	98.531074 
3703.000000	98.523870 
3702.000000	98.516245 
3701.000000	98.505798 
3700.000000	98.492811 
3699.000000	98.479622 
3698.000000	98.469071 
3697.000000	98.462806 
3696.000000	98.460033 
3695.000000	98.457920 
3694.000000	98.453451 
3693.000000	98.445743 
3692.000000	98.436384 
3691.000000	98.427570 
3690.000000	98.419447 
3689.000000	98.411477 
3688.000000	98.405792 
3687.000000	98.404119 
3686.000000	98.404110 
3685.000000	98.402375 
3684.000000	98.398152 
3683.000000	98.393426 
3682.000000	98.390079 
3681.000000	98.387111 
3680.000000	98.381446 
3679.000000	98.370228 
3678.000000	98.353698 
3677.000000	98.336644 
3676.000000	98.323618 
3675.000000	98.315202 
3674.000000	98.309812 
3673.000000	98.304566 
3672.000000	98.296936 
3671.000000	98.289222 
3670.000000	98.284247 
3669.000000	98.281398 
3668.000000	98.279150 
3667.000000	98.276302 
3666.000000	98.272529 
3665.000000	98.268333 
3664.000000	98.263600 
3663.000000	98.257999 
3662.000000	98.251692 
3661.000000	98.244739 
3660.000000	98.236937 
3659.000000	98.227927 
3658.000000	98.218353 
3657.000000	98.209301 
3656.000000	98.201131 
3655.000000	98.193973 
3654.000000	98.186689 
3653.000000	98.177320 
3652.000000	98.165282 
3651.000000	98.152382 
3650.000000	98.140551 
3649.000000	98.131386 
3648.000000	98.127528 
3647.000000	98.129903 
3646.000000	98.136546 
3645.000000	98.145155 
3644.000000	98.154566 
3643.000000	98.164185 
3642.000000	98.172851 
3641.000000	98.178350 
3640.000000	98.179315 
3639.000000	98.176081 
3638.000000	98.170069 
3637.000000	98.162335 
3636.000000	98.153144 
3635.000000	98.142611 
3634.000000	98.130944 
3633.000000	98.118607 
3632.000000	98.106415 
3631.000000	98.096234 
3630.000000	98.090176 
3629.000000	98.086318 
3628.000000	98.081570 
3627.000000	98.077807 
3626.000000	98.076678 
3625.000000	98.077324 
3624.000000	98.078647 
3623.000000	98.079217 
3622.000000	98.077362 
3621.000000	98.072700 
3620.000000	98.065802 
3619.000000	98.057443 
3618.000000	98.049875 
3617.000000	98.046457 
3616.000000	98.049375 
3615.000000	98.058855 
3614.000000	98.072190 
3613.000000	98.084350 
3612.000000	98.091662 
3611.000000	98.094491 
3610.000000	98.096702 
3609.000000	98.102200 
3608.000000	98.110745 
3607.000000	98.118897 
3606.000000	98.124630 
3605.000000	98.129369 
3604.000000	98.135833 
3603.000000	98.144448 
3602.000000	98.152136 
3601.000000	98.155041 
3600.000000	98.151903 
3599.000000	98.145367 
3598.000000	98.140459 
3597.000000	98.140712 
3596.000000	98.145905 
3595.000000	98.152081 
3594.000000	98.153994 
3593.000000	98.149456 
3592.000000	98.140099 
3591.000000	98.128794 
3590.000000	98.118510 
3589.000000	98.112095 
3588.000000	98.110895 
3587.000000	98.113900 
3586.000000	98.119617 
3585.000000	98.126944 
3584.000000	98.134717 
3583.000000	98.141536 
3582.000000	98.146557 
3581.000000	98.149394 
3580.000000	98.149848 
3579.000000	98.147981 
3578.000000	98.144542 
3577.000000	98.140993 
3576.000000	98.138247 
3575.000000	98.135913 
3574.000000	98.132552 
3573.000000	98.126942 
3572.000000	98.118752 
3571.000000	98.108098 
3570.000000	98.095572 
3569.000000	98.083357 
3568.000000	98.074895 
3567.000000	98.072078 
3566.000000	98.073734 
3565.000000	98.076963 
3564.000000	98.079120 
3563.000000	98.079269 
3562.000000	98.078119 
3561.000000	98.076936 
3560.000000	98.076490 
3559.000000	98.076589 
3558.000000	98.076596 
3557.000000	98.076154 
3556.000000	98.075216 
3555.000000	98.073625 
3554.000000	98.071134 
3553.000000	98.067493 
3552.000000	98.062672 
3551.000000	98.056915 
3550.000000	98.050847 
3549.000000	98.045654 
3548.000000	98.042669 
3547.000000	98.041913 
3546.000000	98.041615 
3545.000000	98.039864 
3544.000000	98.036659 
3543.000000	98.033486 
3542.000000	98.031346 
3541.000000	98.030046 
3540.000000	98.029060 
3539.000000	98.028089 
3538.000000	98.026916 
3537.000000	98.025192 
3536.000000	98.022761 
3535.000000	98.019800 
3534.000000	98.016603 
3533.000000	98.013493 
3532.000000	98.010842 
3531.000000	98.008901 
3530.000000	98.007374 
3529.000000	98.005430 
3528.000000	98.002425 
3527.000000	97.998543 
3526.000000	97.994683 
3525.000000	97.991685 
3524.000000	97.989716 
3523.000000	97.988387 
3522.000000	97.987153 
3521.000000	97.985680 
3520.000000	97.983981 
3519.000000	97.982236 
3518.000000	97.980524 
3517.000000	97.978674 
3516.000000	97.976424 
3515.000000	97.973743 
3514.000000	97.970913 
3513.000000	97.968287 
3512.000000	97.965990 
3511.000000	97.963870 
3510.000000	97.961701 
3509.000000	97.959428 
3508.000000	97.957184 
3507.000000	97.955096 
3506.000000	97.953147 
3505.000000	97.951210 
3504.000000	97.949167 
3503.000000	97.947007 
3502.000000	97.944818 
3501.000000	97.942703 
3500.000000	97.940702 
3499.000000	97.938809 
3498.000000	97.936987 
3497.000000	97.935140 
3496.000000	97.933106 
3495.000000	97.930779 
3494.000000	97.928256 
3493.000000	97.925794 
3492.000000	97.923566 
3491.000000	97.921502 
3490.000000	97.919417 
3489.000000	97.917222 
3488.000000	97.914894 
3487.000000	97.912344 
3486.000000	97.909513 
3485.000000	97.906644 
3484.000000	97.904172 
3483.000000	97.902292 
3482.000000	97.900800 
3481.000000	97.899317 
3480.000000	97.897633 
3479.000000	97.895698 
3478.000000	97.893421 
3477.000000	97.890697 
3476.000000	97.887584 
3475.000000	97.884388 
3474.000000	97.881491 
3473.000000	97.879087 
3472.000000	97.877073 
3471.000000	97.875153 
3470.000000	97.873085 
3469.000000	97.870862 
3468.000000	97.868685 
3467.000000	97.866745 
3466.000000	97.865025 
3465.000000	97.863287 
3464.000000	97.861223 
3463.000000	97.858651 
3462.000000	97.855639 
3461.000000	97.852488 
3460.000000	97.849500 
3459.000000	97.846746 
3458.000000	97.844087 
3457.000000	97.841391 
3456.000000	97.838703 
3455.000000	97.836142 
3454.000000	97.833745 
3453.000000	97.831509 
3452.000000	97.829516 
3451.000000	97.827911 
3450.000000	97.826676 
3449.000000	97.825463 
3448.000000	97.823718 
3447.000000	97.821097 
3446.000000	97.817849 
3445.000000	97.814756 
3444.000000	97.812534 
3443.000000	97.811272 
3442.000000	97.810373 
3441.000000	97.809040 
3440.000000	97.806882 
3439.000000	97.804034 
3438.000000	97.800840 
3437.000000	97.797575 
3436.000000	97.794554 
3435.000000	97.792278 
3434.000000	97.791145 
3433.000000	97.790938 
3432.000000	97.790802 
3431.000000	97.790018 
3430.000000	97.788640 
3429.000000	97.787234 
3428.000000	97.786064 
3427.000000	97.784804 
3426.000000	97.783151 
3425.000000	97.781446 
3424.000000	97.780391 
3423.000000	97.780162 
3422.000000	97.780117 
3421.000000	97.779480 
3420.000000	97.778141 
3419.000000	97.776613 
3418.000000	97.775387 
3417.000000	97.774598 
3416.000000	97.774199 
3415.000000	97.774095 
3414.000000	97.773988 
3413.000000	97.773359 
3412.000000	97.771854 
3411.000000	97.769704 
3410.000000	97.767725 
3409.000000	97.766787 
3408.000000	97.767192 
3407.000000	97.768497 
3406.000000	97.769869 
3405.000000	97.770752 
3404.000000	97.771184 
3403.000000	97.771468 
3402.000000	97.771667 
3401.000000	97.771567 
3400.000000	97.771091 
3399.000000	97.770523 
3398.000000	97.770224 
3397.000000	97.770292 
3396.000000	97.770625 
3395.000000	97.771173 
3394.000000	97.771943 
3393.000000	97.772785 
3392.000000	97.773388 
3391.000000	97.773536 
3390.000000	97.773333 
3389.000000	97.773170 
3388.000000	97.773461 
3387.000000	97.774367 
3386.000000	97.775682 
3385.000000	97.776897 
3384.000000	97.777540 
3383.000000	97.777625 
3382.000000	97.777790 
3381.000000	97.778774 
3380.000000	97.780663 
3379.000000	97.782749 
3378.000000	97.784254 
3377.000000	97.785185 
3376.000000	97.786210 
3375.000000	97.787768 
3374.000000	97.789538 
3373.000000	97.790897 
3372.000000	97.791742 
3371.000000	97.792623 
3370.000000	97.794117 
3369.000000	97.796238 
3368.000000	97.798470 
3367.000000	97.800236 
3366.000000	97.801237 
3365.000000	97.801541 
3364.000000	97.801562 
3363.000000	97.801917 
3362.000000	97.803085 
3361.000000	97.805112 
3360.000000	97.807668 
3359.000000	97.810399 
3358.000000	97.813138 
3357.000000	97.815788 
3356.000000	97.818191 
3355.000000	97.820279 
3354.000000	97.822290 
3353.000000	97.824643 
3352.000000	97.827496 
3351.000000	97.830526 
3350.000000	97.833189 
3349.000000	97.835147 
3348.000000	97.836499 
3347.000000	97.837700 
3346.000000	97.839286 
3345.000000	97.841526 
3344.000000	97.844134 
3343.000000	97.846476 
3342.000000	97.848202 
3341.000000	97.849603 
3340.000000	97.851186 
3339.000000	97.852951 
3338.000000	97.854464 
3337.000000	97.855583 
3336.000000	97.856792 
3335.000000	97.858687 
3334.000000	97.861324 
3333.000000	97.864245 
3332.000000	97.866959 
3331.000000	97.869296 
3330.000000	97.871344 
3329.000000	97.873260 
3328.000000	97.875199 
3327.000000	97.877300 
3326.000000	97.879618 
3325.000000	97.882049 
3324.000000	97.884377 
3323.000000	97.886457 
3322.000000	97.888356 
3321.000000	97.890275 
3320.000000	97.892349 
3319.000000	97.894544 
3318.000000	97.896753 
3317.000000	97.898927 
3316.000000	97.901096 
3315.000000	97.903285 
3314.000000	97.905457 
3313.000000	97.907547 
3312.000000	97.909551 
3311.000000	97.911538 
3310.000000	97.913583 
3309.000000	97.915692 
3308.000000	97.917774 
3307.000000	97.919715 
3306.000000	97.921499 
3305.000000	97.923208 
3304.000000	97.924956 
3303.000000	97.926811 
3302.000000	97.928766 
3301.000000	97.930777 
3300.000000	97.932782 
3299.000000	97.934729 
3298.000000	97.936606 
3297.000000	97.938432 
3296.000000	97.940255 
3295.000000	97.942118 
3294.000000	97.944034 
3293.000000	97.945983 
3292.000000	97.947930 
3291.000000	97.949846 
3290.000000	97.951715 
3289.000000	97.953533 
3288.000000	97.955299 
3287.000000	97.957025 
3286.000000	97.958721 
3285.000000	97.960398 
3284.000000	97.962058 
3283.000000	97.963717 
3282.000000	97.965409 
3281.000000	97.967160 
3280.000000	97.968957 
3279.000000	97.970748 
3278.000000	97.972499 
3277.000000	97.974216 
3276.000000	97.975924 
3275.000000	97.977626 
3274.000000	97.979312 
3273.000000	97.980988 
3272.000000	97.982695 
3271.000000	97.984463 
3270.000000	97.986278 
3269.000000	97.988096 
3268.000000	97.989879 
3267.000000	97.991621 
3266.000000	97.993343 
3265.000000	97.995088 
3264.000000	97.996884 
3263.000000	97.998716 
3262.000000	98.000523 
3261.000000	98.002253 
3260.000000	98.003914 
3259.000000	98.005574 
3258.000000	98.007277 
3257.000000	98.009030 
3256.000000	98.010826 
3255.000000	98.012641 
3254.000000	98.014400 
3253.000000	98.016024 
3252.000000	98.017536 
3251.000000	98.019068 
3250.000000	98.020719 
3249.000000	98.022445 
3248.000000	98.024147 
3247.000000	98.025820 
3246.000000	98.027577 
3245.000000	98.029499 
3244.000000	98.031536 
3243.000000	98.033536 
3242.000000	98.035375 
3241.000000	98.037026 
3240.000000	98.038547 
3239.000000	98.040030 
3238.000000	98.041606 
3237.000000	98.043433 
3236.000000	98.045613 
3235.000000	98.048034 
3234.000000	98.050327 
3233.000000	98.052099 
3232.000000	98.053224 
3231.000000	98.053950 
3230.000000	98.054640 
3229.000000	98.055452 
3228.000000	98.056356 
3227.000000	98.057417 
3226.000000	98.058973 
3225.000000	98.061343 
3224.000000	98.064316 
3223.000000	98.067259 
3222.000000	98.069789 
3221.000000	98.072110 
3220.000000	98.074574 
3219.000000	98.077029 
3218.000000	98.078921 
3217.000000	98.079961 
3216.000000	98.080419 
3215.000000	98.080833 
3214.000000	98.081658 
3213.000000	98.083085 
3212.000000	98.084925 
3211.000000	98.086668 
3210.000000	98.087910 
3209.000000	98.088838 
3208.000000	98.090107 
3207.000000	98.092133 
3206.000000	98.094649 
3205.000000	98.097060 
3204.000000	98.099114 
3203.000000	98.101096 
3202.000000	98.103338 
3201.000000	98.105676 
3200.000000	98.107543 
3199.000000	98.108635 
3198.000000	98.109379 
3197.000000	98.110555 
3196.000000	98.112459 
3195.000000	98.114698 
3194.000000	98.116841 
3193.000000	98.118987 
3192.000000	98.121424 
3191.000000	98.123948 
3190.000000	98.125890 
3189.000000	98.126889 
3188.000000	98.127446 
3187.000000	98.128627 
3186.000000	98.131178 
3185.000000	98.135039 
3184.000000	98.139433 
3183.000000	98.143499 
3182.000000	98.146913 
3181.000000	98.149800 
3180.000000	98.152249 
3179.000000	98.154119 
3178.000000	98.155398 
3177.000000	98.156495 
3176.000000	98.158010 
3175.000000	98.160237 
3174.000000	98.163062 
3173.000000	98.166135 
3172.000000	98.169044 
3171.000000	98.171513 
3170.000000	98.173589 
3169.000000	98.175595 
3168.000000	98.177786 
3167.000000	98.180078 
3166.000000	98.182247 
3165.000000	98.184253 
3164.000000	98.186258 
3163.000000	98.188384 
3162.000000	98.190616 
3161.000000	98.192892 
3160.000000	98.195179 
3159.000000	98.197450 
3158.000000	98.199711 
3157.000000	98.202029 
3156.000000	98.204440 
3155.000000	98.206834 
3154.000000	98.209046 
3153.000000	98.211058 
3152.000000	98.213021 
3151.000000	98.215042 
3150.000000	98.217069 
3149.000000	98.219000 
3148.000000	98.220837 
3147.000000	98.222691 
3146.000000	98.224678 
3145.000000	98.226813 
3144.000000	98.229008 
3143.000000	98.231106 
3142.000000	98.232987 
3141.000000	98.234656 
3140.000000	98.236274 
3139.000000	98.238045 
3138.000000	98.240062 
3137.000000	98.242271 
3136.000000	98.244502 
3135.000000	98.246545 
3134.000000	98.248250 
3133.000000	98.249620 
3132.000000	98.250824 
3131.000000	98.252051 
3130.000000	98.253423 
3129.000000	98.255097 
3128.000000	98.257277 
3127.000000	98.259983 
3126.000000	98.262945 
3125.000000	98.265795 
3124.000000	98.268319 
3123.000000	98.270427 
3122.000000	98.272030 
3121.000000	98.273137 
3120.000000	98.273973 
3119.000000	98.274878 
3118.000000	98.276092 
3117.000000	98.277707 
3116.000000	98.279733 
3115.000000	98.282041 
3114.000000	98.284326 
3113.000000	98.286280 
3112.000000	98.287859 
3111.000000	98.289315 
3110.000000	98.290954 
3109.000000	98.292861 
3108.000000	98.294902 
3107.000000	98.296969 
3106.000000	98.299100 
3105.000000	98.301278 
3104.000000	98.303152 
3103.000000	98.304184 
3102.000000	98.304207 
3101.000000	98.303688 
3100.000000	98.303314 
3099.000000	98.303454 
3098.000000	98.304178 
3097.000000	98.305625 
3096.000000	98.307915 
3095.000000	98.310717 
3094.000000	98.313447 
3093.000000	98.315921 
3092.000000	98.318389 
3091.000000	98.320893 
3090.000000	98.322917 
3089.000000	98.323863 
3088.000000	98.323642 
3087.000000	98.322873 
3086.000000	98.322723 
3085.000000	98.324229 
3084.000000	98.327086 
3083.000000	98.329252 
3082.000000	98.328900 
3081.000000	98.327059 
3080.000000	98.327003 
3079.000000	98.330234 
3078.000000	98.334570 
3077.000000	98.337247 
3076.000000	98.338515 
3075.000000	98.340516 
3074.000000	98.343936 
3073.000000	98.347703 
3072.000000	98.351061 
3071.000000	98.353921 
3070.000000	98.355586 
3069.000000	98.355161 
3068.000000	98.353217 
3067.000000	98.351328 
3066.000000	98.349836 
3065.000000	98.347692 
3064.000000	98.344640 
3063.000000	98.341906 
3062.000000	98.340383 
3061.000000	98.339564 
3060.000000	98.338798 
3059.000000	98.338489 
3058.000000	98.339714 
3057.000000	98.343350 
3056.000000	98.349356 
3055.000000	98.355770 
3054.000000	98.358854 
3053.000000	98.356202 
3052.000000	98.350098 
3051.000000	98.346111 
3050.000000	98.347294 
3049.000000	98.351040 
3048.000000	98.352609 
3047.000000	98.350335 
3046.000000	98.346127 
3045.000000	98.342303 
3044.000000	98.339886 
3043.000000	98.339474 
3042.000000	98.341414 
3041.000000	98.344137 
3040.000000	98.343867 
3039.000000	98.337605 
3038.000000	98.326244 
3037.000000	98.313781 
3036.000000	98.303312 
3035.000000	98.294714 
3034.000000	98.286576 
3033.000000	98.278902 
3032.000000	98.272471 
3031.000000	98.266506 
3030.000000	98.259133 
3029.000000	98.250205 
3028.000000	98.241676 
3027.000000	98.234527 
3026.000000	98.226972 
3025.000000	98.216801 
3024.000000	98.204197 
3023.000000	98.191033 
3022.000000	98.178442 
3021.000000	98.166563 
3020.000000	98.155652 
3019.000000	98.145510 
3018.000000	98.134197 
3017.000000	98.119287 
3016.000000	98.100804 
3015.000000	98.081540 
3014.000000	98.064205 
3013.000000	98.049179 
3012.000000	98.034936 
3011.000000	98.019331 
3010.000000	98.000487 
3009.000000	97.978036 
3008.000000	97.954120 
3007.000000	97.932135 
3006.000000	97.913815 
3005.000000	97.898158 
3004.000000	97.883351 
3003.000000	97.868845 
3002.000000	97.855273 
3001.000000	97.843344 
3000.000000	97.833179 
2999.000000	97.823802 
2998.000000	97.812940 
2997.000000	97.798507 
2996.000000	97.780882 
2995.000000	97.762468 
2994.000000	97.743979 
2993.000000	97.722324 
2992.000000	97.693878 
2991.000000	97.659876 
2990.000000	97.627343 
2989.000000	97.604249 
2988.000000	97.594303 
2987.000000	97.596091 
2986.000000	97.605574 
2985.000000	97.618657 
2984.000000	97.632062 
2983.000000	97.643253 
2982.000000	97.650646 
2981.000000	97.653900 
2980.000000	97.653441 
2979.000000	97.649502 
2978.000000	97.642182 
2977.000000	97.632707 
2976.000000	97.623863 
2975.000000	97.618201 
2974.000000	97.615912 
2973.000000	97.615281 
2972.000000	97.615175 
2971.000000	97.616247 
2970.000000	97.619651 
2969.000000	97.625671 
2968.000000	97.634019 
2967.000000	97.644464 
2966.000000	97.656361 
2965.000000	97.668198 
2964.000000	97.678586 
2963.000000	97.687511 
2962.000000	97.695996 
2961.000000	97.704709 
2960.000000	97.713541 
2959.000000	97.722394 
2958.000000	97.731700 
2957.000000	97.741913 
2956.000000	97.752748 
2955.000000	97.763085 
2954.000000	97.771699 
2953.000000	97.778442 
2952.000000	97.784870 
2951.000000	97.793210 
2950.000000	97.803946 
2949.000000	97.814385 
2948.000000	97.820189 
2947.000000	97.818633 
2946.000000	97.810732 
2945.000000	97.800689 
2944.000000	97.793247 
2943.000000	97.790832 
2942.000000	97.792264 
2941.000000	97.793894 
2940.000000	97.792451 
2939.000000	97.787394 
2938.000000	97.780681 
2937.000000	97.774454 
2936.000000	97.769045 
2935.000000	97.762881 
2934.000000	97.753864 
2933.000000	97.740950 
2932.000000	97.725104 
2931.000000	97.708942 
2930.000000	97.694958 
2929.000000	97.683693 
2928.000000	97.673671 
2927.000000	97.663159 
2926.000000	97.651894 
2925.000000	97.641393 
2924.000000	97.633985 
2923.000000	97.631363 
2922.000000	97.633307 
2921.000000	97.637667 
2920.000000	97.642453 
2919.000000	97.648272 
2918.000000	97.657656 
2917.000000	97.671228 
2916.000000	97.685429 
2915.000000	97.695371 
2914.000000	97.699850 
2913.000000	97.702212 
2912.000000	97.706180 
2911.000000	97.711923 
2910.000000	97.716827 
2909.000000	97.719182 
2908.000000	97.720064 
2907.000000	97.721642 
2906.000000	97.724213 
2905.000000	97.725134 
2904.000000	97.721224 
2903.000000	97.712624 
2902.000000	97.705237 
2901.000000	97.706739 
2900.000000	97.720351 
2899.000000	97.742293 
2898.000000	97.764952 
2897.000000	97.782890 
2896.000000	97.795062 
2895.000000	97.802842 
2894.000000	97.808373 
2893.000000	97.814728 
2892.000000	97.824870 
2891.000000	97.838635 
2890.000000	97.852046 
2889.000000	97.861383 
2888.000000	97.867232 
2887.000000	97.872925 
2886.000000	97.879684 
2885.000000	97.885550 
2884.000000	97.889375 
2883.000000	97.893429 
2882.000000	97.900673 
2881.000000	97.911075 
2880.000000	97.922442 
2879.000000	97.933954 
2878.000000	97.946684 
2877.000000	97.960674 
2876.000000	97.973660 
2875.000000	97.983672 
2874.000000	97.991426 
2873.000000	97.998898 
2872.000000	98.006586 
2871.000000	98.013686 
2870.000000	98.020353 
2869.000000	98.027964 
2868.000000	98.037025 
2867.000000	98.046286 
2866.000000	98.054323 
2865.000000	98.060840 
2864.000000	98.066051 
2863.000000	98.070081 
2862.000000	98.073705 
2861.000000	98.078365 
2860.000000	98.084275 
2859.000000	98.089495 
2858.000000	98.092340 
2857.000000	98.094108 
2856.000000	98.097996 
2855.000000	98.105601 
2854.000000	98.115693 
2853.000000	98.126275 
2852.000000	98.136864 
2851.000000	98.148479 
2850.000000	98.162299 
2849.000000	98.178810 
2848.000000	98.197555 
2847.000000	98.217110 
2846.000000	98.235570 
2845.000000	98.251648 
2844.000000	98.265569 
2843.000000	98.278836 
2842.000000	98.292967 
2841.000000	98.307949 
2840.000000	98.321608 
2839.000000	98.330900 
2838.000000	98.334420 
2837.000000	98.333752 
2836.000000	98.332234 
2835.000000	98.332545 
2834.000000	98.335714 
2833.000000	98.341964 
2832.000000	98.351371 
2831.000000	98.363351 
2830.000000	98.376119 
2829.000000	98.387305 
2828.000000	98.395300 
2827.000000	98.400183 
2826.000000	98.403616 
2825.000000	98.407655 
2824.000000	98.413080 
2823.000000	98.418662 
2822.000000	98.422362 
2821.000000	98.423365 
2820.000000	98.422877 
2819.000000	98.423043 
2818.000000	98.425314 
2817.000000	98.429702 
2816.000000	98.435053 
2815.000000	98.439786 
2814.000000	98.442689 
2813.000000	98.443370 
2812.000000	98.442166 
2811.000000	98.439769 
2810.000000	98.437037 
2809.000000	98.434982 
2808.000000	98.434575 
2807.000000	98.436473 
2806.000000	98.440856 
2805.000000	98.447192 
2804.000000	98.453908 
2803.000000	98.458783 
2802.000000	98.460521 
2801.000000	98.460142 
2800.000000	98.460321 
2799.000000	98.462888 
2798.000000	98.467130 
2797.000000	98.470787 
2796.000000	98.472622 
2795.000000	98.473714 
2794.000000	98.476191 
2793.000000	98.480943 
2792.000000	98.486787 
2791.000000	98.491610 
2790.000000	98.494026 
2789.000000	98.493900 
2788.000000	98.491993 
2787.000000	98.489630 
2786.000000	98.488319 
2785.000000	98.488893 
2784.000000	98.490877 
2783.000000	98.493107 
2782.000000	98.494932 
2781.000000	98.496589 
2780.000000	98.498489 
2779.000000	98.500587 
2778.000000	98.502555 
2777.000000	98.504190 
2776.000000	98.505507 
2775.000000	98.506626 
2774.000000	98.507707 
2773.000000	98.508901 
2772.000000	98.510252 
2771.000000	98.511687 
2770.000000	98.513129 
2769.000000	98.514596 
2768.000000	98.516143 
2767.000000	98.517724 
2766.000000	98.519199 
2765.000000	98.520503 
2764.000000	98.521695 
2763.000000	98.522833 
2762.000000	98.523870 
2761.000000	98.524766 
2760.000000	98.525636 
2759.000000	98.526703 
2758.000000	98.528075 
2757.000000	98.529559 
2756.000000	98.530756 
2755.000000	98.531454 
2754.000000	98.531883 
2753.000000	98.532557 
2752.000000	98.533739 
2751.000000	98.535216 
2750.000000	98.536590 
2749.000000	98.537748 
2748.000000	98.538795 
2747.000000	98.539661 
2746.000000	98.540117 
2745.000000	98.540210 
2744.000000	98.540428 
2743.000000	98.541173 
2742.000000	98.542328 
2741.000000	98.543473 
2740.000000	98.544456 
2739.000000	98.545402 
2738.000000	98.546296 
2737.000000	98.546934 
2736.000000	98.547294 
2735.000000	98.547719 
2734.000000	98.548611 
2733.000000	98.550065 
2732.000000	98.551853 
2731.000000	98.553655 
2730.000000	98.555325 
2729.000000	98.556939 
2728.000000	98.558561 
2727.000000	98.559950 
2726.000000	98.560671 
2725.000000	98.560588 
2724.000000	98.560130 
2723.000000	98.559929 
2722.000000	98.560223 
2721.000000	98.560824 
2720.000000	98.561575 
2719.000000	98.562592 
2718.000000	98.563985 
2717.000000	98.565521 
2716.000000	98.566746 
2715.000000	98.567451 
2714.000000	98.567861 
2713.000000	98.568342 
2712.000000	98.569008 
2711.000000	98.569685 
2710.000000	98.570180 
2709.000000	98.570474 
2708.000000	98.570691 
2707.000000	98.571006 
2706.000000	98.571592 
2705.000000	98.572499 
2704.000000	98.573490 
2703.000000	98.574130 
2702.000000	98.574221 
2701.000000	98.574123 
2700.000000	98.574526 
2699.000000	98.575834 
2698.000000	98.577796 
2697.000000	98.579591 
2696.000000	98.580432 
2695.000000	98.580168 
2694.000000	98.579376 
2693.000000	98.578857 
2692.000000	98.578824 
2691.000000	98.578813 
2690.000000	98.578366 
2689.000000	98.577597 
2688.000000	98.576956 
2687.000000	98.576619 
2686.000000	98.576449 
2685.000000	98.576408 
2684.000000	98.576607 
2683.000000	98.576928 
2682.000000	98.577018 
2681.000000	98.576832 
2680.000000	98.576840 
2679.000000	98.577469 
2678.000000	98.578590 
2677.000000	98.579728 
2676.000000	98.580514 
2675.000000	98.580694 
2674.000000	98.580016 
2673.000000	98.578566 
2672.000000	98.577014 
2671.000000	98.576050 
2670.000000	98.575703 
2669.000000	98.575565 
2668.000000	98.575513 
2667.000000	98.575762 
2666.000000	98.576195 
2665.000000	98.576146 
2664.000000	98.575134 
2663.000000	98.573525 
2662.000000	98.572257 
2661.000000	98.571888 
2660.000000	98.572051 
2659.000000	98.571864 
2658.000000	98.570826 
2657.000000	98.569309 
2656.000000	98.568147 
2655.000000	98.567726 
2654.000000	98.567573 
2653.000000	98.566894 
2652.000000	98.565521 
2651.000000	98.564195 
2650.000000	98.563808 
2649.000000	98.564520 
2648.000000	98.565713 
2647.000000	98.566636 
2646.000000	98.566894 
2645.000000	98.566441 
2644.000000	98.565477 
2643.000000	98.564403 
2642.000000	98.563648 
2641.000000	98.563339 
2640.000000	98.563249 
2639.000000	98.563135 
2638.000000	98.562987 
2637.000000	98.562899 
2636.000000	98.562936 
2635.000000	98.563342 
2634.000000	98.564541 
2633.000000	98.566460 
2632.000000	98.568026 
2631.000000	98.567944 
2630.000000	98.566112 
2629.000000	98.563812 
2628.000000	98.562403 
2627.000000	98.562287 
2626.000000	98.563443 
2625.000000	98.566165 
2624.000000	98.570606 
2623.000000	98.575979 
2622.000000	98.580852 
2621.000000	98.584035 
2620.000000	98.584750 
2619.000000	98.582493 
2618.000000	98.577652 
2617.000000	98.572115 
2616.000000	98.568075 
2615.000000	98.566044 
2614.000000	98.564894 
2613.000000	98.563776 
2612.000000	98.563246 
2611.000000	98.564311 
2610.000000	98.567208 
2609.000000	98.571345 
2608.000000	98.575664 
2607.000000	98.578924 
2606.000000	98.580442 
2605.000000	98.580886 
2604.000000	98.581665 
2603.000000	98.583229 
2602.000000	98.584675 
2601.000000	98.585285 
2600.000000	98.585473 
2599.000000	98.585734 
2598.000000	98.585689 
2597.000000	98.584913 
2596.000000	98.583837 
2595.000000	98.582975 
2594.000000	98.582018 
2593.000000	98.580681 
2592.000000	98.579858 
2591.000000	98.580715 
2590.000000	98.582893 
2589.000000	98.584691 
2588.000000	98.585202 
2587.000000	98.585295 
2586.000000	98.586192 
2585.000000	98.587978 
2584.000000	98.589843 
2583.000000	98.591025 
2582.000000	98.591110 
2581.000000	98.590016 
2580.000000	98.588323 
2579.000000	98.587305 
2578.000000	98.588056 
2577.000000	98.590513 
2576.000000	98.593462 
2575.000000	98.595579 
2574.000000	98.596422 
2573.000000	98.596453 
2572.000000	98.596305 
2571.000000	98.596125 
2570.000000	98.595689 
2569.000000	98.594968 
2568.000000	98.594282 
2567.000000	98.593810 
2566.000000	98.593234 
2565.000000	98.592124 
2564.000000	98.590562 
2563.000000	98.589034 
2562.000000	98.587817 
2561.000000	98.586969 
2560.000000	98.586899 
2559.000000	98.588267 
2558.000000	98.591006 
2557.000000	98.593887 
2556.000000	98.595632 
2555.000000	98.596297 
2554.000000	98.596926 
2553.000000	98.597965 
2552.000000	98.598687 
2551.000000	98.598498 
2550.000000	98.597933 
2549.000000	98.597707 
2548.000000	98.597348 
2547.000000	98.595833 
2546.000000	98.593380 
2545.000000	98.591582 
2544.000000	98.591420 
2543.000000	98.592096 
2542.000000	98.592217 
2541.000000	98.591616 
2540.000000	98.591206 
2539.000000	98.591334 
2538.000000	98.591265 
2537.000000	98.590490 
2536.000000	98.589745 
2535.000000	98.590170 
2534.000000	98.591828 
2533.000000	98.593543 
2532.000000	98.594156 
2531.000000	98.593580 
2530.000000	98.592497 
2529.000000	98.591379 
2528.000000	98.590086 
2527.000000	98.588443 
2526.000000	98.586851 
2525.000000	98.586069 
2524.000000	98.586470 
2523.000000	98.587799 
2522.000000	98.589552 
2521.000000	98.591354 
2520.000000	98.592908 
2519.000000	98.593872 
2518.000000	98.594037 
2517.000000	98.593480 
2516.000000	98.592438 
2515.000000	98.591202 
2514.000000	98.590254 
2513.000000	98.590217 
2512.000000	98.591340 
2511.000000	98.593182 
2510.000000	98.595014 
2509.000000	98.596438 
2508.000000	98.597266 
2507.000000	98.597109 
2506.000000	98.595717 
2505.000000	98.593804 
2504.000000	98.592867 
2503.000000	98.593701 
2502.000000	98.595636 
2501.000000	98.597384 
2500.000000	98.598488 
2499.000000	98.599438 
2498.000000	98.600665 
2497.000000	98.602171 
2496.000000	98.604039 
2495.000000	98.606530 
2494.000000	98.609345 
2493.000000	98.611308 
2492.000000	98.611382 
2491.000000	98.609896 
2490.000000	98.608357 
2489.000000	98.607838 
2488.000000	98.607899 
2487.000000	98.607394 
2486.000000	98.606030 
2485.000000	98.604694 
2484.000000	98.604240 
2483.000000	98.604494 
2482.000000	98.604758 
2481.000000	98.604884 
2480.000000	98.605372 
2479.000000	98.606553 
2478.000000	98.608173 
2477.000000	98.609767 
2476.000000	98.611077 
2475.000000	98.612061 
2474.000000	98.612759 
2473.000000	98.613143 
2472.000000	98.612912 
2471.000000	98.611651 
2470.000000	98.609538 
2469.000000	98.607678 
2468.000000	98.607178 
2467.000000	98.607972 
2466.000000	98.608983 
2465.000000	98.609429 
2464.000000	98.609597 
2463.000000	98.610351 
2462.000000	98.612292 
2461.000000	98.615270 
2460.000000	98.618198 
2459.000000	98.619554 
2458.000000	98.618498 
2457.000000	98.615569 
2456.000000	98.612188 
2455.000000	98.609418 
2454.000000	98.607546 
2453.000000	98.606569 
2452.000000	98.606344 
2451.000000	98.606467 
2450.000000	98.606697 
2449.000000	98.607374 
2448.000000	98.608761 
2447.000000	98.610187 
2446.000000	98.610581 
2445.000000	98.609832 
2444.000000	98.608812 
2443.000000	98.608105 
2442.000000	98.607569 
2441.000000	98.607242 
2440.000000	98.607688 
2439.000000	98.609197 
2438.000000	98.611410 
2437.000000	98.613920 
2436.000000	98.616493 
2435.000000	98.618562 
2434.000000	98.619366 
2433.000000	98.618874 
2432.000000	98.617893 
2431.000000	98.617071 
2430.000000	98.616548 
2429.000000	98.616555 
2428.000000	98.617403 
2427.000000	98.618641 
2426.000000	98.619075 
2425.000000	98.618027 
2424.000000	98.616118 
2423.000000	98.614468 
2422.000000	98.613574 
2421.000000	98.613600 
2420.000000	98.614827 
2419.000000	98.616858 
2418.000000	98.618393 
2417.000000	98.618961 
2416.000000	98.619758 
2415.000000	98.621692 
2414.000000	98.623944 
2413.000000	98.625548 
2412.000000	98.626896 
2411.000000	98.628359 
2410.000000	98.628942 
2409.000000	98.627925 
2408.000000	98.626560 
2407.000000	98.626456 
2406.000000	98.627236 
2405.000000	98.627355 
2404.000000	98.626480 
2403.000000	98.625579 
2402.000000	98.625356 
2401.000000	98.625935 
2400.000000	98.627518 
2399.000000	98.630011 
2398.000000	98.632399 
2397.000000	98.633609 
2396.000000	98.633593 
2395.000000	98.632679 
2394.000000	98.630660 
2393.000000	98.627781 
2392.000000	98.625825 
2391.000000	98.626679 
2390.000000	98.629982 
2389.000000	98.633572 
2388.000000	98.636080 
2387.000000	98.637922 
2386.000000	98.639865 
2385.000000	98.641813 
2384.000000	98.643225 
2383.000000	98.643474 
2382.000000	98.641671 
2381.000000	98.637316 
2380.000000	98.631311 
2379.000000	98.625412 
2378.000000	98.620296 
2377.000000	98.615302 
2376.000000	98.610594 
2375.000000	98.608089 
2374.000000	98.609033 
2373.000000	98.611690 
2372.000000	98.612873 
2371.000000	98.611665 
2370.000000	98.609836 
2369.000000	98.608550 
2368.000000	98.606514 
2367.000000	98.602250 
2366.000000	98.596659 
2365.000000	98.592256 
2364.000000	98.590455 
2363.000000	98.590791 
2362.000000	98.592176 
2361.000000	98.593785 
2360.000000	98.595167 
2359.000000	98.595805 
2358.000000	98.595154 
2357.000000	98.593243 
2356.000000	98.590757 
2355.000000	98.588319 
2354.000000	98.585639 
2353.000000	98.582994 
2352.000000	98.581842 
2351.000000	98.582787 
2350.000000	98.584659 
2349.000000	98.585565 
2348.000000	98.584870 
2347.000000	98.583286 
2346.000000	98.582329 
2345.000000	98.583059 
2344.000000	98.585000 
2343.000000	98.586803 
2342.000000	98.587440 
2341.000000	98.587180 
2340.000000	98.587097 
2339.000000	98.587732 
2338.000000	98.588385 
2337.000000	98.588145 
2336.000000	98.587404 
2335.000000	98.587090 
2334.000000	98.586856 
2333.000000	98.586010 
2332.000000	98.585871 
2331.000000	98.588268 
2330.000000	98.592764 
2329.000000	98.596657 
2328.000000	98.599144 
2327.000000	98.601177 
2326.000000	98.602988 
2325.000000	98.604132 
2324.000000	98.604996 
2323.000000	98.607265 
2322.000000	98.610341 
2321.000000	98.612049 
2320.000000	98.611892 
2319.000000	98.612070 
2318.000000	98.614033 
2317.000000	98.616164 
2316.000000	98.616886 
2315.000000	98.617002 
2314.000000	98.618792 
2313.000000	98.622925 
2312.000000	98.628911 
2311.000000	98.636017 
2310.000000	98.642988 
2309.000000	98.647695 
2308.000000	98.648934 
2307.000000	98.647868 
2306.000000	98.646236 
2305.000000	98.644878 
2304.000000	98.644090 
2303.000000	98.644937 
2302.000000	98.648362 
2301.000000	98.653236 
2300.000000	98.656215 
2299.000000	98.653986 
2298.000000	98.645843 
2297.000000	98.633753 
2296.000000	98.621233 
2295.000000	98.611332 
2294.000000	98.605496 
2293.000000	98.603586 
2292.000000	98.604772 
2291.000000	98.608159 
2290.000000	98.612546 
2289.000000	98.616687 
2288.000000	98.619628 
2287.000000	98.620877 
2286.000000	98.619999 
2285.000000	98.617041 
2284.000000	98.613049 
2283.000000	98.609693 
2282.000000	98.607949 
2281.000000	98.607504 
2280.000000	98.607263 
2279.000000	98.606198 
2278.000000	98.604049 
2277.000000	98.601829 
2276.000000	98.601349 
2275.000000	98.603521 
2274.000000	98.607517 
2273.000000	98.611972 
2272.000000	98.616329 
2271.000000	98.620130 
2270.000000	98.622121 
2269.000000	98.621673 
2268.000000	98.620469 
2267.000000	98.620958 
2266.000000	98.623251 
2265.000000	98.625140 
2264.000000	98.625115 
2263.000000	98.623631 
2262.000000	98.621405 
2261.000000	98.618254 
2260.000000	98.614205 
2259.000000	98.610289 
2258.000000	98.607510 
2257.000000	98.606199 
2256.000000	98.606820 
2255.000000	98.610111 
2254.000000	98.615595 
2253.000000	98.620766 
2252.000000	98.623033 
2251.000000	98.621865 
2250.000000	98.618320 
2249.000000	98.613500 
2248.000000	98.608513 
2247.000000	98.605041 
2246.000000	98.604257 
2245.000000	98.605299 
2244.000000	98.605705 
2243.000000	98.604003 
2242.000000	98.601161 
2241.000000	98.599314 
2240.000000	98.599571 
2239.000000	98.601478 
2238.000000	98.603811 
2237.000000	98.605513 
2236.000000	98.606181 
2235.000000	98.606077 
2234.000000	98.605785 
2233.000000	98.605751 
2232.000000	98.606067 
2231.000000	98.606528 
2230.000000	98.606739 
2229.000000	98.606339 
2228.000000	98.605441 
2227.000000	98.604750 
2226.000000	98.604820 
2225.000000	98.605261 
2224.000000	98.605084 
2223.000000	98.604002 
2222.000000	98.602887 
2221.000000	98.602753 
2220.000000	98.603575 
2219.000000	98.604599 
2218.000000	98.605331 
2217.000000	98.605984 
2216.000000	98.606909 
2215.000000	98.608021 
2214.000000	98.608888 
2213.000000	98.609216 
2212.000000	98.609111 
2211.000000	98.608928 
2210.000000	98.608959 
2209.000000	98.609253 
2208.000000	98.609715 
2207.000000	98.610240 
2206.000000	98.610778 
2205.000000	98.611327 
2204.000000	98.611906 
2203.000000	98.612529 
2202.000000	98.613182 
2201.000000	98.613809 
2200.000000	98.614325 
2199.000000	98.614708 
2198.000000	98.615012 
2197.000000	98.615349 
2196.000000	98.615835 
2195.000000	98.616438 
2194.000000	98.616932 
2193.000000	98.617190 
2192.000000	98.617452 
2191.000000	98.618039 
2190.000000	98.618879 
2189.000000	98.619692 
2188.000000	98.620560 
2187.000000	98.621754 
2186.000000	98.622946 
2185.000000	98.623302 
2184.000000	98.622820 
2183.000000	98.623000 
2182.000000	98.625311 
2181.000000	98.629480 
2180.000000	98.633383 
2179.000000	98.635242 
2178.000000	98.635077 
2177.000000	98.634313 
2176.000000	98.634292 
2175.000000	98.635265 
2174.000000	98.636665 
2173.000000	98.637858 
2172.000000	98.638732 
2171.000000	98.639705 
2170.000000	98.641057 
2169.000000	98.642346 
2168.000000	98.642957 
2167.000000	98.643160 
2166.000000	98.643796 
2165.000000	98.644579 
2164.000000	98.643776 
2163.000000	98.640750 
2162.000000	98.638370 
2161.000000	98.641227 
2160.000000	98.651175 
2159.000000	98.665200 
2158.000000	98.677889 
2157.000000	98.686188 
2156.000000	98.690265 
2155.000000	98.691083 
2154.000000	98.689300 
2153.000000	98.686527 
2152.000000	98.685336 
2151.000000	98.686447 
2150.000000	98.687055 
2149.000000	98.683658 
2148.000000	98.676423 
2147.000000	98.669454 
2146.000000	98.666370 
2145.000000	98.667064 
2144.000000	98.669528 
2143.000000	98.673251 
2142.000000	98.678988 
2141.000000	98.685865 
2140.000000	98.691185 
2139.000000	98.693867 
2138.000000	98.696230 
2137.000000	98.700550 
2136.000000	98.704918 
2135.000000	98.704598 
2134.000000	98.697397 
2133.000000	98.686510 
2132.000000	98.677924 
2131.000000	98.674993 
2130.000000	98.676371 
2129.000000	98.678288 
2128.000000	98.677982 
2127.000000	98.675302 
2126.000000	98.671877 
2125.000000	98.669410 
2124.000000	98.668501 
2123.000000	98.668460 
2122.000000	98.667960 
2121.000000	98.666042 
2120.000000	98.662752 
2119.000000	98.658953 
2118.000000	98.655706 
2117.000000	98.653734 
2116.000000	98.652938 
2115.000000	98.652128 
2114.000000	98.649546 
2113.000000	98.644530 
2112.000000	98.638797 
2111.000000	98.635320 
2110.000000	98.635563 
2109.000000	98.638286 
2108.000000	98.641100 
2107.000000	98.642809 
2106.000000	98.643767 
2105.000000	98.644698 
2104.000000	98.646047 
2103.000000	98.647843 
2102.000000	98.649255 
2101.000000	98.648715 
2100.000000	98.645514 
2099.000000	98.641398 
2098.000000	98.639609 
2097.000000	98.641672 
2096.000000	98.646138 
2095.000000	98.650083 
2094.000000	98.651854 
2093.000000	98.651823 
2092.000000	98.650957 
2091.000000	98.649851 
2090.000000	98.648881 
2089.000000	98.648496 
2088.000000	98.648855 
2087.000000	98.649426 
2086.000000	98.649491 
2085.000000	98.649002 
2084.000000	98.648615 
2083.000000	98.648827 
2082.000000	98.649412 
2081.000000	98.649889 
2080.000000	98.650305 
2079.000000	98.651154 
2078.000000	98.652545 
2077.000000	98.653889 
2076.000000	98.654622 
2075.000000	98.654940 
2074.000000	98.655409 
2073.000000	98.655987 
2072.000000	98.656033 
2071.000000	98.655271 
2070.000000	98.654218 
2069.000000	98.653638 
2068.000000	98.653792 
2067.000000	98.654416 
2066.000000	98.655155 
2065.000000	98.655774 
2064.000000	98.656063 
2063.000000	98.655971 
2062.000000	98.655937 
2061.000000	98.656660 
2060.000000	98.658357 
2059.000000	98.660587 
2058.000000	98.662639 
2057.000000	98.664064 
2056.000000	98.664743 
2055.000000	98.664692 
2054.000000	98.664249 
2053.000000	98.664170 
2052.000000	98.665070 
2051.000000	98.666741 
2050.000000	98.668277 
2049.000000	98.668984 
2048.000000	98.669030 
2047.000000	98.669150 
2046.000000	98.669891 
2045.000000	98.671259 
2044.000000	98.672975 
2043.000000	98.674799 
2042.000000	98.676589 
2041.000000	98.678270 
2040.000000	98.679929 
2039.000000	98.681819 
2038.000000	98.684043 
2037.000000	98.686245 
2036.000000	98.687834 
2035.000000	98.688606 
2034.000000	98.689166 
2033.000000	98.690543 
2032.000000	98.693205 
2031.000000	98.696452 
2030.000000	98.698846 
2029.000000	98.699461 
2028.000000	98.698605 
2027.000000	98.697289 
2026.000000	98.696104 
2025.000000	98.695087 
2024.000000	98.694538 
2023.000000	98.695361 
2022.000000	98.698223 
2021.000000	98.702370 
2020.000000	98.705536 
2019.000000	98.705758 
2018.000000	98.702870 
2017.000000	98.698643 
2016.000000	98.695462 
2015.000000	98.694328 
2014.000000	98.694292 
2013.000000	98.693463 
2012.000000	98.691139 
2011.000000	98.689088 
2010.000000	98.689977 
2009.000000	98.694348 
2008.000000	98.699568 
2007.000000	98.702530 
2006.000000	98.702947 
2005.000000	98.702699 
2004.000000	98.702740 
2003.000000	98.702413 
2002.000000	98.701475 
2001.000000	98.700483 
2000.000000	98.699018 
1999.000000	98.695450 
1998.000000	98.689206 
1997.000000	98.682216 
1996.000000	98.677373 
1995.000000	98.675952 
1994.000000	98.677143 
1993.000000	98.679140 
1992.000000	98.680306 
1991.000000	98.680099 
1990.000000	98.679427 
1989.000000	98.679717 
1988.000000	98.681184 
1987.000000	98.682358 
1986.000000	98.681741 
1985.000000	98.679571 
1984.000000	98.677411 
1983.000000	98.676356 
1982.000000	98.676333 
1981.000000	98.676925 
1980.000000	98.677942 
1979.000000	98.678976 
1978.000000	98.679125 
1977.000000	98.677853 
1976.000000	98.675833 
1975.000000	98.674494 
1974.000000	98.674839 
1973.000000	98.676973 
1972.000000	98.680193 
1971.000000	98.683349 
1970.000000	98.685382 
1969.000000	98.685775 
1968.000000	98.684573 
1967.000000	98.682202 
1966.000000	98.679539 
1965.000000	98.677773 
1964.000000	98.677703 
1963.000000	98.679263 
1962.000000	98.681679 
1961.000000	98.683843 
1960.000000	98.684816 
1959.000000	98.684171 
1958.000000	98.682251 
1957.000000	98.680226 
1956.000000	98.679181 
1955.000000	98.679091 
1954.000000	98.679073 
1953.000000	98.678543 
1952.000000	98.677753 
1951.000000	98.677101 
1950.000000	98.676562 
1949.000000	98.676069 
1948.000000	98.675863 
1947.000000	98.676010 
1946.000000	98.675933 
1945.000000	98.674964 
1944.000000	98.673135 
1943.000000	98.670992 
1942.000000	98.668860 
1941.000000	98.666756 
1940.000000	98.664856 
1939.000000	98.663436 
1938.000000	98.662536 
1937.000000	98.662190 
1936.000000	98.662585 
1935.000000	98.663457 
1934.000000	98.663816 
1933.000000	98.663128 
1932.000000	98.662162 
1931.000000	98.661914 
1930.000000	98.662140 
1929.000000	98.661674 
1928.000000	98.660117 
1927.000000	98.658290 
1926.000000	98.657024 
1925.000000	98.656271 
1924.000000	98.655505 
1923.000000	98.654367 
1922.000000	98.652716 
1921.000000	98.650629 
1920.000000	98.648737 
1919.000000	98.647725 
1918.000000	98.647387 
1917.000000	98.646745 
1916.000000	98.645404 
1915.000000	98.644095 
1914.000000	98.643517 
1913.000000	98.643431 
1912.000000	98.643044 
1911.000000	98.642081 
1910.000000	98.640889 
1909.000000	98.639831 
1908.000000	98.638971 
1907.000000	98.638181 
1906.000000	98.637288 
1905.000000	98.636177 
1904.000000	98.634907 
1903.000000	98.633698 
1902.000000	98.632719 
1901.000000	98.631915 
1900.000000	98.631127 
1899.000000	98.630287 
1898.000000	98.629427 
1897.000000	98.628571 
1896.000000	98.627703 
1895.000000	98.626799 
1894.000000	98.625842 
1893.000000	98.624836 
1892.000000	98.623828 
1891.000000	98.622904 
1890.000000	98.622133 
1889.000000	98.621503 
1888.000000	98.620942 
1887.000000	98.620421 
1886.000000	98.619960 
1885.000000	98.619544 
1884.000000	98.619097 
1883.000000	98.618589 
1882.000000	98.618126 
1881.000000	98.617857 
1880.000000	98.617812 
1879.000000	98.617856 
1878.000000	98.617802 
1877.000000	98.617596 
1876.000000	98.617373 
1875.000000	98.617330 
1874.000000	98.617545 
1873.000000	98.617942 
1872.000000	98.618372 
1871.000000	98.618708 
1870.000000	98.618873 
1869.000000	98.618950 
1868.000000	98.619186 
1867.000000	98.619771 
1866.000000	98.620570 
1865.000000	98.621093 
1864.000000	98.621038 
1863.000000	98.620941 
1862.000000	98.621781 
1861.000000	98.623869 
1860.000000	98.626497 
1859.000000	98.628707 
1858.000000	98.630296 
1857.000000	98.631570 
1856.000000	98.632713 
1855.000000	98.633707 
1854.000000	98.634543 
1853.000000	98.635280 
1852.000000	98.636178 
1851.000000	98.637734 
1850.000000	98.640190 
1849.000000	98.643045 
1848.000000	98.645339 
1847.000000	98.646642 
1846.000000	98.647406 
1845.000000	98.648364 
1844.000000	98.649630 
1843.000000	98.650822 
1842.000000	98.651801 
1841.000000	98.652718 
1840.000000	98.654060 
1839.000000	98.656500 
1838.000000	98.659973 
1837.000000	98.663141 
1836.000000	98.664622 
1835.000000	98.664772 
1834.000000	98.665256 
1833.000000	98.666830 
1832.000000	98.668997 
1831.000000	98.670967 
1830.000000	98.672010 
1829.000000	98.671921 
1828.000000	98.671407 
1827.000000	98.671467 
1826.000000	98.672569 
1825.000000	98.674341 
1824.000000	98.675588 
1823.000000	98.675259 
1822.000000	98.673660 
1821.000000	98.671813 
1820.000000	98.670095 
1819.000000	98.668124 
1818.000000	98.666396 
1817.000000	98.666303 
1816.000000	98.667387 
1815.000000	98.667989 
1814.000000	98.668557 
1813.000000	98.671603 
1812.000000	98.677502 
1811.000000	98.681862 
1810.000000	98.681426 
1809.000000	98.678652 
1808.000000	98.676661 
1807.000000	98.675038 
1806.000000	98.672937 
1805.000000	98.671393 
1804.000000	98.670705 
1803.000000	98.669062 
1802.000000	98.665333 
1801.000000	98.661540 
1800.000000	98.659234 
1799.000000	98.656567 
1798.000000	98.652962 
1797.000000	98.650151 
1796.000000	98.647983 
1795.000000	98.645057 
1794.000000	98.642398 
1793.000000	98.643500 
1792.000000	98.648601 
1791.000000	98.653169 
1790.000000	98.655455 
1789.000000	98.658170 
1788.000000	98.662592 
1787.000000	98.666822 
1786.000000	98.669173 
1785.000000	98.670379 
1784.000000	98.671294 
1783.000000	98.671611 
1782.000000	98.670822 
1781.000000	98.669619 
1780.000000	98.669682 
1779.000000	98.671540 
1778.000000	98.674701 
1777.000000	98.678013 
1776.000000	98.679986 
1775.000000	98.680112 
1774.000000	98.678905 
1773.000000	98.677883 
1772.000000	98.678863 
1771.000000	98.681504 
1770.000000	98.683648 
1769.000000	98.684528 
1768.000000	98.685178 
1767.000000	98.686028 
1766.000000	98.686353 
1765.000000	98.686151 
1764.000000	98.686589 
1763.000000	98.688245 
1762.000000	98.689894 
1761.000000	98.690557 
1760.000000	98.691029 
1759.000000	98.691944 
1758.000000	98.692736 
1757.000000	98.692533 
1756.000000	98.691709 
1755.000000	98.690578 
1754.000000	98.687854 
1753.000000	98.682590 
1752.000000	98.676953 
1751.000000	98.675176 
1750.000000	98.678193 
1749.000000	98.682383 
1748.000000	98.684475 
1747.000000	98.684705 
1746.000000	98.684140 
1745.000000	98.683302 
1744.000000	98.683123 
1743.000000	98.684142 
1742.000000	98.685399 
1741.000000	98.686132 
1740.000000	98.687279 
1739.000000	98.689794 
1738.000000	98.692316 
1737.000000	98.692757 
1736.000000	98.690386 
1735.000000	98.685941 
1734.000000	98.680936 
1733.000000	98.677714 
1732.000000	98.678625 
1731.000000	98.683917 
1730.000000	98.691532 
1729.000000	98.697668 
1728.000000	98.700500 
1727.000000	98.701419 
1726.000000	98.702127 
1725.000000	98.702500 
1724.000000	98.702002 
1723.000000	98.701051 
1722.000000	98.700710 
1721.000000	98.700671 
1720.000000	98.699413 
1719.000000	98.695515 
1718.000000	98.689679 
1717.000000	98.686263 
1716.000000	98.686088 
1715.000000	98.685198 
1714.000000	98.683293 
1713.000000	98.682427 
1712.000000	98.682273 
1711.000000	98.681637 
1710.000000	98.680440 
1709.000000	98.679190 
1708.000000	98.678305 
1707.000000	98.677985 
1706.000000	98.678383 
1705.000000	98.678796 
1704.000000	98.675914 
1703.000000	98.667722 
1702.000000	98.655941 
1701.000000	98.646097 
1700.000000	98.640108 
1699.000000	98.633319 
1698.000000	98.626375 
1697.000000	98.623871 
1696.000000	98.625778 
1695.000000	98.627071 
1694.000000	98.625838 
1693.000000	98.623798 
1692.000000	98.620854 
1691.000000	98.616248 
1690.000000	98.610199 
1689.000000	98.603332 
1688.000000	98.596054 
1687.000000	98.588881 
1686.000000	98.583229 
1685.000000	98.580935 
1684.000000	98.579761 
1683.000000	98.576709 
1682.000000	98.572634 
1681.000000	98.567877 
1680.000000	98.562964 
1679.000000	98.558429 
1678.000000	98.554209 
1677.000000	98.549853 
1676.000000	98.545481 
1675.000000	98.541293 
1674.000000	98.536644 
1673.000000	98.531311 
1672.000000	98.526155 
1671.000000	98.522150 
1670.000000	98.519367 
1669.000000	98.516487 
1668.000000	98.513047 
1667.000000	98.509783 
1666.000000	98.506627 
1665.000000	98.503290 
1664.000000	98.500072 
1663.000000	98.497262 
1662.000000	98.494333 
1661.000000	98.490394 
1660.000000	98.485603 
1659.000000	98.481047 
1658.000000	98.477589 
1657.000000	98.474653 
1656.000000	98.471462 
1655.000000	98.468096 
1654.000000	98.465647 
1653.000000	98.462121 
1652.000000	98.456106 
1651.000000	98.451562 
1650.000000	98.448652 
1649.000000	98.445329 
1648.000000	98.441041 
1647.000000	98.436947 
1646.000000	98.433518 
1645.000000	98.430769 
1644.000000	98.428310 
1643.000000	98.425865 
1642.000000	98.423463 
1641.000000	98.421497 
1640.000000	98.419960 
1639.000000	98.418316 
1638.000000	98.416342 
1637.000000	98.414464 
1636.000000	98.412452 
1635.000000	98.410360 
1634.000000	98.409277 
1633.000000	98.408428 
1632.000000	98.405564 
1631.000000	98.401092 
1630.000000	98.397932 
1629.000000	98.396964 
1628.000000	98.396405 
1627.000000	98.395643 
1626.000000	98.395675 
1625.000000	98.396289 
1624.000000	98.396550 
1623.000000	98.397014 
1622.000000	98.398538 
1621.000000	98.398788 
1620.000000	98.395253 
1619.000000	98.389056 
1618.000000	98.384170 
1617.000000	98.381297 
1616.000000	98.377935 
1615.000000	98.377101 
1614.000000	98.380566 
1613.000000	98.382851 
1612.000000	98.379244 
1611.000000	98.371995 
1610.000000	98.367009 
1609.000000	98.366278 
1608.000000	98.368041 
1607.000000	98.371632 
1606.000000	98.375964 
1605.000000	98.378303 
1604.000000	98.378845 
1603.000000	98.381135 
1602.000000	98.386161 
1601.000000	98.390160 
1600.000000	98.390601 
1599.000000	98.389981 
1598.000000	98.390766 
1597.000000	98.391798 
1596.000000	98.391570 
1595.000000	98.391706 
1594.000000	98.394270 
1593.000000	98.397717 
1592.000000	98.399948 
1591.000000	98.402947 
1590.000000	98.409727 
1589.000000	98.418843 
1588.000000	98.426983 
1587.000000	98.434460 
1586.000000	98.442611 
1585.000000	98.448869 
1584.000000	98.451123 
1583.000000	98.452884 
1582.000000	98.458207 
1581.000000	98.465568 
1580.000000	98.471246 
1579.000000	98.475598 
1578.000000	98.482235 
1577.000000	98.492411 
1576.000000	98.502121 
1575.000000	98.511667 
1574.000000	98.523853 
1573.000000	98.535010 
1572.000000	98.543449 
1571.000000	98.553227 
1570.000000	98.565757 
1569.000000	98.573508 
1568.000000	98.574885 
1567.000000	98.577091 
1566.000000	98.582621 
1565.000000	98.586937 
1564.000000	98.589017 
1563.000000	98.590187 
1562.000000	98.591900 
1561.000000	98.592034 
1560.000000	98.592934 
1559.000000	98.597399 
1558.000000	98.601254 
1557.000000	98.604405 
1556.000000	98.605814 
1555.000000	98.607890 
1554.000000	98.608166 
1553.000000	98.608597 
1552.000000	98.609826 
1551.000000	98.610756 
1550.000000	98.607493 
1549.000000	98.600377 
1548.000000	98.593724 
1547.000000	98.591232 
1546.000000	98.591528 
1545.000000	98.591701 
1544.000000	98.591140 
1543.000000	98.589982 
1542.000000	98.587920 
1541.000000	98.585036 
1540.000000	98.574309 
1539.000000	98.555246 
1538.000000	98.540752 
1537.000000	98.533329 
1536.000000	98.527056 
1535.000000	98.520328 
1534.000000	98.516190 
1533.000000	98.514726 
1532.000000	98.511774 
1531.000000	98.503311 
1530.000000	98.491115 
1529.000000	98.479356 
1528.000000	98.469221 
1527.000000	98.459658 
1526.000000	98.449864 
1525.000000	98.440835 
1524.000000	98.433781 
1523.000000	98.428230 
1522.000000	98.422337 
1521.000000	98.412888 
1520.000000	98.398431 
1519.000000	98.380779 
1518.000000	98.361961 
1517.000000	98.344930 
1516.000000	98.332574 
1515.000000	98.325131 
1514.000000	98.320149 
1513.000000	98.315011 
1512.000000	98.307727 
1511.000000	98.295776 
1510.000000	98.278476 
1509.000000	98.258606 
1508.000000	98.242499 
1507.000000	98.231645 
1506.000000	98.220242 
1505.000000	98.207770 
1504.000000	98.196978 
1503.000000	98.187058 
1502.000000	98.175823 
1501.000000	98.163877 
1500.000000	98.152705 
1499.000000	98.141912 
1498.000000	98.127793 
1497.000000	98.110294 
1496.000000	98.094294 
1495.000000	98.082046 
1494.000000	98.071776 
1493.000000	98.062262 
1492.000000	98.054359 
1491.000000	98.048778 
1490.000000	98.043777 
1489.000000	98.037728 
1488.000000	98.028606 
1487.000000	98.013693 
1486.000000	97.995021 
1485.000000	97.975422 
1484.000000	97.956391 
1483.000000	97.939863 
1482.000000	97.926413 
1481.000000	97.915353 
1480.000000	97.904994 
1479.000000	97.894118 
1478.000000	97.882756 
1477.000000	97.871600 
1476.000000	97.859177 
1475.000000	97.842030 
1474.000000	97.820384 
1473.000000	97.800753 
1472.000000	97.788785 
1471.000000	97.780836 
1470.000000	97.771623 
1469.000000	97.761370 
1468.000000	97.751894 
1467.000000	97.742933 
1466.000000	97.734047 
1465.000000	97.726589 
1464.000000	97.721081 
1463.000000	97.714150 
1462.000000	97.703406 
1461.000000	97.692157 
1460.000000	97.685769 
1459.000000	97.685631 
1458.000000	97.682494 
1457.000000	97.666135 
1456.000000	97.645274 
1455.000000	97.631972 
1454.000000	97.622717 
1453.000000	97.613827 
1452.000000	97.608174 
1451.000000	97.609534 
1450.000000	97.617109 
1449.000000	97.629219 
1448.000000	97.643868 
1447.000000	97.656240 
1446.000000	97.661884 
1445.000000	97.662184 
1444.000000	97.662339 
1443.000000	97.663734 
1442.000000	97.663770 
1441.000000	97.660898 
1440.000000	97.657311 
1439.000000	97.655247 
1438.000000	97.653000 
1437.000000	97.648791 
1436.000000	97.645405 
1435.000000	97.644566 
1434.000000	97.643834 
1433.000000	97.643264 
1432.000000	97.645122 
1431.000000	97.650346 
1430.000000	97.655688 
1429.000000	97.657925 
1428.000000	97.657747 
1427.000000	97.657608 
1426.000000	97.658697 
1425.000000	97.660324 
1424.000000	97.663492 
1423.000000	97.667725 
1422.000000	97.669425 
1421.000000	97.667931 
1420.000000	97.667564 
1419.000000	97.668728 
1418.000000	97.664347 
1417.000000	97.655444 
1416.000000	97.651986 
1415.000000	97.657433 
1414.000000	97.664689 
1413.000000	97.666391 
1412.000000	97.664754 
1411.000000	97.666556 
1410.000000	97.672059 
1409.000000	97.678041 
1408.000000	97.685036 
1407.000000	97.695554 
1406.000000	97.709240 
1405.000000	97.724020 
1404.000000	97.741145 
1403.000000	97.761095 
1402.000000	97.780723 
1401.000000	97.799408 
1400.000000	97.820966 
1399.000000	97.846357 
1398.000000	97.867242 
1397.000000	97.874631 
1396.000000	97.870219 
1395.000000	97.866627 
1394.000000	97.875644 
1393.000000	97.898673 
1392.000000	97.931007 
1391.000000	97.965951 
1390.000000	97.996507 
1389.000000	98.018212 
1388.000000	98.030820 
1387.000000	98.037599 
1386.000000	98.042550 
1385.000000	98.048728 
1384.000000	98.058552 
1383.000000	98.072608 
1382.000000	98.088709 
1381.000000	98.104281 
1380.000000	98.118527 
1379.000000	98.133050 
1378.000000	98.150244 
1377.000000	98.170997 
1376.000000	98.194046 
1375.000000	98.217126 
1374.000000	98.238132 
1373.000000	98.256358 
1372.000000	98.272815 
1371.000000	98.289434 
1370.000000	98.307594 
1369.000000	98.326065 
1368.000000	98.343455 
1367.000000	98.359890 
1366.000000	98.376293 
1365.000000	98.393725 
1364.000000	98.411798 
1363.000000	98.427949 
1362.000000	98.440146 
1361.000000	98.449687 
1360.000000	98.460156 
1359.000000	98.474385 
1358.000000	98.492229 
1357.000000	98.510841 
1356.000000	98.527395 
1355.000000	98.540959 
1354.000000	98.552211 
1353.000000	98.563182 
1352.000000	98.575056 
1351.000000	98.588079 
1350.000000	98.603002 
1349.000000	98.617874 
1348.000000	98.629619 
1347.000000	98.637632 
1346.000000	98.644191 
1345.000000	98.650813 
1344.000000	98.656767 
1343.000000	98.661623 
1342.000000	98.666724 
1341.000000	98.672531 
1340.000000	98.677105 
1339.000000	98.679312 
1338.000000	98.680818 
1337.000000	98.683527 
1336.000000	98.686961 
1335.000000	98.689188 
1334.000000	98.689795 
1333.000000	98.690396 
1332.000000	98.692048 
1331.000000	98.694405 
1330.000000	98.697174 
1329.000000	98.700554 
1328.000000	98.704159 
1327.000000	98.707024 
1326.000000	98.708291 
1325.000000	98.706700 
1324.000000	98.702288 
1323.000000	98.696880 
1322.000000	98.692374 
1321.000000	98.689441 
1320.000000	98.688255 
1319.000000	98.689077 
1318.000000	98.691482 
1317.000000	98.694257 
1316.000000	98.696111 
1315.000000	98.695895 
1314.000000	98.692784 
1313.000000	98.687958 
1312.000000	98.684963 
1311.000000	98.686405 
1310.000000	98.690713 
1309.000000	98.694234 
1308.000000	98.695824 
1307.000000	98.697584 
1306.000000	98.701237 
1305.000000	98.705295 
1304.000000	98.707718 
1303.000000	98.708061 
1302.000000	98.706645 
1301.000000	98.703833 
1300.000000	98.701296 
1299.000000	98.701540 
1298.000000	98.704748 
1297.000000	98.707763 
1296.000000	98.707463 
1295.000000	98.704237 
1294.000000	98.700781 
1293.000000	98.698914 
1292.000000	98.698813 
1291.000000	98.700073 
1290.000000	98.702116 
1289.000000	98.704045 
1288.000000	98.705052 
1287.000000	98.704817 
1286.000000	98.703178 
1285.000000	98.700129 
1284.000000	98.696552 
1283.000000	98.693714 
1282.000000	98.691611 
1281.000000	98.688868 
1280.000000	98.685001 
1279.000000	98.681891 
1278.000000	98.681996 
1277.000000	98.685846 
1276.000000	98.691492 
1275.000000	98.695967 
1274.000000	98.696842 
1273.000000	98.693411 
1272.000000	98.687233 
1271.000000	98.680891 
1270.000000	98.675550 
1269.000000	98.670245 
1268.000000	98.663852 
1267.000000	98.656350 
1266.000000	98.647812 
1265.000000	98.638469 
1264.000000	98.630178 
1263.000000	98.625239 
1262.000000	98.622865 
1261.000000	98.619306 
1260.000000	98.613248 
1259.000000	98.608709 
1258.000000	98.609487 
1257.000000	98.612902 
1256.000000	98.612030 
1255.000000	98.603552 
1254.000000	98.590871 
1253.000000	98.579257 
1252.000000	98.570024 
1251.000000	98.560882 
1250.000000	98.550778 
1249.000000	98.542670 
1248.000000	98.541033 
1247.000000	98.546584 
1246.000000	98.553648 
1245.000000	98.553954 
1244.000000	98.543741 
1243.000000	98.527512 
1242.000000	98.515126 
1241.000000	98.514347 
1240.000000	98.524335 
1239.000000	98.535369 
1238.000000	98.536285 
1237.000000	98.523641 
1236.000000	98.503172 
1235.000000	98.482287 
1234.000000	98.462892 
1233.000000	98.442553 
1232.000000	98.419969 
1231.000000	98.396269 
1230.000000	98.372615 
1229.000000	98.349897 
1228.000000	98.329618 
1227.000000	98.311502 
1226.000000	98.290919 
1225.000000	98.262397 
1224.000000	98.225777 
1223.000000	98.185714 
1222.000000	98.145038 
1221.000000	98.101921 
1220.000000	98.054165 
1219.000000	98.002680 
1218.000000	97.949269 
1217.000000	97.893833 
1216.000000	97.835049 
1215.000000	97.771608 
1214.000000	97.702404 
1213.000000	97.628276 
1212.000000	97.553611 
1211.000000	97.482381 
1210.000000	97.412217 
1209.000000	97.336782 
1208.000000	97.255005 
1207.000000	97.173386 
1206.000000	97.097271 
1205.000000	97.024030 
1204.000000	96.947601 
1203.000000	96.866256 
1202.000000	96.783085 
1201.000000	96.701398 
1200.000000	96.622240 
1199.000000	96.544834 
1198.000000	96.467485 
1197.000000	96.389358 
1196.000000	96.311933 
1195.000000	96.237006 
1194.000000	96.163357 
1193.000000	96.087657 
1192.000000	96.008588 
1191.000000	95.927367 
1190.000000	95.844460 
1189.000000	95.758948 
1188.000000	95.671124 
1187.000000	95.582385 
1186.000000	95.492472 
1185.000000	95.400000 
1184.000000	95.305386 
1183.000000	95.209887 
1182.000000	95.112516 
1181.000000	95.011646 
1180.000000	94.908570 
1179.000000	94.805007 
1178.000000	94.697994 
1177.000000	94.582636 
1176.000000	94.459381 
1175.000000	94.333055 
1174.000000	94.205259 
1173.000000	94.073956 
1172.000000	93.940578 
1171.000000	93.810081 
1170.000000	93.682885 
1169.000000	93.554401 
1168.000000	93.424802 
1167.000000	93.302386 
1166.000000	93.195388 
1165.000000	93.108107 
1164.000000	93.047413 
1163.000000	93.024182 
1162.000000	93.042826 
1161.000000	93.093980 
1160.000000	93.159853 
1159.000000	93.221990 
1158.000000	93.263276 
1157.000000	93.270629 
1156.000000	93.240634 
1155.000000	93.179381 
1154.000000	93.095208 
1153.000000	92.995138 
1152.000000	92.888186 
1151.000000	92.784613 
1150.000000	92.688379 
1149.000000	92.595674 
1148.000000	92.503242 
1147.000000	92.412233 
1146.000000	92.321922 
1145.000000	92.226949 
1144.000000	92.124660 
1143.000000	92.019483 
1142.000000	91.916465 
1141.000000	91.815650 
1140.000000	91.715752 
1139.000000	91.617653 
1138.000000	91.521106 
1137.000000	91.423290 
1136.000000	91.323319 
1135.000000	91.223107 
1134.000000	91.121913 
1133.000000	91.015946 
1132.000000	90.905270 
1131.000000	90.794775 
1130.000000	90.686367 
1129.000000	90.576798 
1128.000000	90.465142 
1127.000000	90.355104 
1126.000000	90.247455 
1125.000000	90.137595 
1124.000000	90.023518 
1123.000000	89.909148 
1122.000000	89.796873 
1121.000000	89.683856 
1120.000000	89.568686 
1119.000000	89.454427 
1118.000000	89.342267 
1117.000000	89.229646 
1116.000000	89.117082 
1115.000000	89.008902 
1114.000000	88.904810 
1113.000000	88.799056 
1112.000000	88.690271 
1111.000000	88.583261 
1110.000000	88.479132 
1109.000000	88.373257 
1108.000000	88.264519 
1107.000000	88.156785 
1106.000000	88.050200 
1105.000000	87.940799 
1104.000000	87.829820 
1103.000000	87.723562 
1102.000000	87.622161 
1101.000000	87.519697 
1100.000000	87.416238 
1099.000000	87.317989 
1098.000000	87.226437 
1097.000000	87.136059 
1096.000000	87.045418 
1095.000000	86.958047 
1094.000000	86.871067 
1093.000000	86.775603 
1092.000000	86.671909 
1091.000000	86.572335 
1090.000000	86.485714 
1089.000000	86.409364 
1088.000000	86.338633 
1087.000000	86.272917 
1086.000000	86.209831 
1085.000000	86.145140 
1084.000000	86.081357 
1083.000000	86.025561 
1082.000000	85.976962 
1081.000000	85.928011 
1080.000000	85.878989 
1079.000000	85.838837 
1078.000000	85.809689 
1077.000000	85.783361 
1076.000000	85.755109 
1075.000000	85.727507 
1074.000000	85.698717 
1073.000000	85.660456 
1072.000000	85.609010 
1071.000000	85.543492 
1070.000000	85.451730 
1069.000000	85.315908 
1068.000000	85.138818 
1067.000000	84.951212 
1066.000000	84.784914 
1065.000000	84.647927 
1064.000000	84.530616 
1063.000000	84.420581 
1062.000000	84.303699 
1061.000000	84.166027 
1060.000000	84.007282 
1059.000000	83.845294 
1058.000000	83.699358 
1057.000000	83.575160 
1056.000000	83.468803 
1055.000000	83.374607 
1054.000000	83.284098 
1053.000000	83.188056 
1052.000000	83.085624 
1051.000000	82.982839 
1050.000000	82.879076 
1049.000000	82.766311 
1048.000000	82.644076 
1047.000000	82.521722 
1046.000000	82.403925 
1045.000000	82.287011 
1044.000000	82.170090 
1043.000000	82.056329 
1042.000000	81.942314 
1041.000000	81.819727 
1040.000000	81.689925 
1039.000000	81.564945 
1038.000000	81.452835 
1037.000000	81.353857 
1036.000000	81.270316 
1035.000000	81.205939 
1034.000000	81.155390 
1033.000000	81.108151 
1032.000000	81.061833 
1031.000000	81.017887 
1030.000000	80.968647 
1029.000000	80.907424 
1028.000000	80.848834 
1027.000000	80.817507 
1026.000000	80.815616 
1025.000000	80.820986 
1024.000000	80.818499 
1023.000000	80.812848 
1022.000000	80.808068 
1021.000000	80.797200 
1020.000000	80.777569 
1019.000000	80.756618 
1018.000000	80.736934 
1017.000000	80.712915 
1016.000000	80.686489 
1015.000000	80.668485 
1014.000000	80.660320 
1013.000000	80.651656 
1012.000000	80.639563 
1011.000000	80.632417 
1010.000000	80.631748 
1009.000000	80.628583 
1008.000000	80.621576 
1007.000000	80.620956 
1006.000000	80.630845 
1005.000000	80.645098 
1004.000000	80.663277 
1003.000000	80.692047 
1002.000000	80.727477 
1001.000000	80.755435 
1000.000000	80.774484 
999.000000	 80.799801 
998.000000	 80.839137 
997.000000	 80.882732 
996.000000	 80.922141 
995.000000	 80.961960 
994.000000	 81.007500 
993.000000	 81.057377 
992.000000	 81.112974 
991.000000	 81.179059 
990.000000	 81.250992 
989.000000	 81.317539 
988.000000	 81.379899 
987.000000	 81.451348 
986.000000	 81.535533 
985.000000	 81.623355 
984.000000	 81.714247 
983.000000	 81.820748 
982.000000	 81.946836 
981.000000	 82.080344 
980.000000	 82.212676 
979.000000	 82.348959 
978.000000	 82.492984 
977.000000	 82.640183 
976.000000	 82.792078 
975.000000	 82.960013 
974.000000	 83.146489 
973.000000	 83.338160 
972.000000	 83.524922 
971.000000	 83.712102 
970.000000	 83.906717 
969.000000	 84.105220 
968.000000	 84.301712 
967.000000	 84.496382 
966.000000	 84.690100 
965.000000	 84.881743 
964.000000	 85.074950 
963.000000	 85.275918 
962.000000	 85.480945 
961.000000	 85.677818 
960.000000	 85.862351 
959.000000	 86.041679 
958.000000	 86.219277 
957.000000	 86.389969 
956.000000	 86.552813 
955.000000	 86.715589 
954.000000	 86.882238 
953.000000	 87.047496 
952.000000	 87.207325 
951.000000	 87.362968 
950.000000	 87.512267 
949.000000	 87.649386 
948.000000	 87.776198 
947.000000	 87.902003 
946.000000	 88.028842 
945.000000	 88.148763 
944.000000	 88.258224 
943.000000	 88.363262 
942.000000	 88.467918 
941.000000	 88.569647 
940.000000	 88.669133 
939.000000	 88.772193 
938.000000	 88.878631 
937.000000	 88.981336 
936.000000	 89.079677 
935.000000	 89.181558 
934.000000	 89.289023 
933.000000	 89.394563 
932.000000	 89.495681 
931.000000	 89.600432 
930.000000	 89.713459 
929.000000	 89.828051 
928.000000	 89.937670 
927.000000	 90.044890 
926.000000	 90.153530 
925.000000	 90.260813 
924.000000	 90.362012 
923.000000	 90.455424 
922.000000	 90.540220 
921.000000	 90.617525 
920.000000	 90.694946 
919.000000	 90.780597 
918.000000	 90.870808 
917.000000	 90.953119 
916.000000	 91.023588 
915.000000	 91.092146 
914.000000	 91.169173 
913.000000	 91.256145 
912.000000	 91.351043 
911.000000	 91.453086 
910.000000	 91.559867 
909.000000	 91.668862 
908.000000	 91.783614 
907.000000	 91.910274 
906.000000	 92.048091 
905.000000	 92.191988 
904.000000	 92.342871 
903.000000	 92.504408 
902.000000	 92.670828 
901.000000	 92.830561 
900.000000	 92.982573 
899.000000	 93.137146 
898.000000	 93.299421 
897.000000	 93.462954 
896.000000	 93.620278 
895.000000	 93.768607 
894.000000	 93.905077 
893.000000	 94.028712 
892.000000	 94.148449 
891.000000	 94.276841 
890.000000	 94.412334 
889.000000	 94.537825 
888.000000	 94.638605 
887.000000	 94.712559 
886.000000	 94.764185 
885.000000	 94.800446 
884.000000	 94.832187 
883.000000	 94.866156 
882.000000	 94.894635 
881.000000	 94.907799 
880.000000	 94.918026 
879.000000	 94.954523 
878.000000	 95.029053 
877.000000	 95.124563 
876.000000	 95.223783 
875.000000	 95.331240 
874.000000	 95.457567 
873.000000	 95.599867 
872.000000	 95.749967 
871.000000	 95.907980 
870.000000	 96.075006 
869.000000	 96.242516 
868.000000	 96.399744 
867.000000	 96.544410 
866.000000	 96.679126 
865.000000	 96.805083 
864.000000	 96.925826 
863.000000	 97.049141 
862.000000	 97.177445 
861.000000	 97.302299 
860.000000	 97.414938 
859.000000	 97.516974 
858.000000	 97.615731 
857.000000	 97.714290 
856.000000	 97.810647 
855.000000	 97.901446 
854.000000	 97.982428 
853.000000	 98.050148 
852.000000	 98.106789 
851.000000	 98.159073 
850.000000	 98.210845 
849.000000	 98.262007 
848.000000	 98.314805 
847.000000	 98.372974 
846.000000	 98.433187 
845.000000	 98.485868 
844.000000	 98.526666 
843.000000	 98.559232 
842.000000	 98.585365 
841.000000	 98.601254 
840.000000	 98.605257 
839.000000	 98.599972 
838.000000	 98.584705 
837.000000	 98.556446 
836.000000	 98.521857 
835.000000	 98.497698 
834.000000	 98.493166 
833.000000	 98.499928 
832.000000	 98.505000 
831.000000	 98.505393 
830.000000	 98.505154 
829.000000	 98.506639 
828.000000	 98.511551 
827.000000	 98.523377 
826.000000	 98.541787 
825.000000	 98.560823 
824.000000	 98.577693 
823.000000	 98.595577 
822.000000	 98.613638 
821.000000	 98.624090 
820.000000	 98.623001 
819.000000	 98.613457 
818.000000	 98.593664 
817.000000	 98.550862 
816.000000	 98.472316 
815.000000	 98.356978 
814.000000	 98.212585 
813.000000	 98.045114 
812.000000	 97.852183 
811.000000	 97.620493 
810.000000	 97.328070 
809.000000	 96.956884 
808.000000	 96.507826 
807.000000	 95.999553 
806.000000	 95.452762 
805.000000	 94.883237 
804.000000	 94.310162 
803.000000	 93.757878 
802.000000	 93.244338 
801.000000	 92.780532 
800.000000	 92.386003 
799.000000	 92.089469 
798.000000	 91.905888 
797.000000	 91.825097 
796.000000	 91.827325 
795.000000	 91.894532 
794.000000	 92.002597 
793.000000	 92.121395 
792.000000	 92.231951 
791.000000	 92.331186 
790.000000	 92.415115 
789.000000	 92.470318 
788.000000	 92.485227 
787.000000	 92.455879 
786.000000	 92.377085 
785.000000	 92.242066 
784.000000	 92.055707 
783.000000	 91.836008 
782.000000	 91.600119 
781.000000	 91.363780 
780.000000	 91.156196 
779.000000	 91.015340 
778.000000	 90.960343 
777.000000	 90.983768 
776.000000	 91.075042 
775.000000	 91.232015 
774.000000	 91.442775 
773.000000	 91.676938 
772.000000	 91.906670 
771.000000	 92.122654 
770.000000	 92.323381 
769.000000	 92.505008 
768.000000	 92.668363 
767.000000	 92.819274 
766.000000	 92.954175 
765.000000	 93.061359 
764.000000	 93.144742 
763.000000	 93.230359 
762.000000	 93.338851 
761.000000	 93.464374 
760.000000	 93.589121 
759.000000	 93.705076 
758.000000	 93.813328 
757.000000	 93.916909 
756.000000	 94.024943 
755.000000	 94.150678 
754.000000	 94.293164 
753.000000	 94.430722 
752.000000	 94.542928 
751.000000	 94.630834 
750.000000	 94.708867 
749.000000	 94.786682 
748.000000	 94.866307 
747.000000	 94.947193 
746.000000	 95.025856 
745.000000	 95.099055 
744.000000	 95.174196 
743.000000	 95.267962 
742.000000	 95.388210 
741.000000	 95.525332 
740.000000	 95.665376 
739.000000	 95.801263 
738.000000	 95.926763 
737.000000	 96.031048 
736.000000	 96.107358 
735.000000	 96.160317 
734.000000	 96.200737 
733.000000	 96.239524 
732.000000	 96.285952 
731.000000	 96.340898 
730.000000	 96.391451 
729.000000	 96.424654 
728.000000	 96.446484 
727.000000	 96.475871 
726.000000	 96.521444 
725.000000	 96.576298 
724.000000	 96.634877 
723.000000	 96.699626 
722.000000	 96.769047 
721.000000	 96.834710 
720.000000	 96.894731 
719.000000	 96.956740 
718.000000	 97.022950 
717.000000	 97.086359 
716.000000	 97.145307 
715.000000	 97.205952 
714.000000	 97.266796 
713.000000	 97.317754 
712.000000	 97.359745 
711.000000	 97.408348 
710.000000	 97.470657 
709.000000	 97.534775 
708.000000	 97.588622 
707.000000	 97.632363 
706.000000	 97.666286 
705.000000	 97.681130 
704.000000	 97.668726 
703.000000	 97.629126 
702.000000	 97.555126 
701.000000	 97.423813 
700.000000	 97.217628 
699.000000	 96.944171 
698.000000	 96.632123 
697.000000	 96.320944 
696.000000	 96.060675 
695.000000	 95.904015 
694.000000	 95.877188 
693.000000	 95.964510 
692.000000	 96.128756 
691.000000	 96.335565 
690.000000	 96.557052 
689.000000	 96.766748 
688.000000	 96.945654 
687.000000	 97.089656 
686.000000	 97.201792 
685.000000	 97.288296 
684.000000	 97.365355 
683.000000	 97.450188 
682.000000	 97.541497 
681.000000	 97.625492 
680.000000	 97.703993 
679.000000	 97.794141 
678.000000	 97.896798 
677.000000	 97.993486 
676.000000	 98.073281 
675.000000	 98.143301 
674.000000	 98.201089 
673.000000	 98.226928 
672.000000	 98.217448 
671.000000	 98.197077 
670.000000	 98.188223 
669.000000	 98.188625 
668.000000	 98.211111 
667.000000	 98.307759 
666.000000	 98.441174 
665.000000	 98.536218 
664.000000	 98.574402 
663.000000	 98.572236 
662.000000	 98.567622 
661.000000	 98.590479 
660.000000	 98.639036 
659.000000	 98.696446 
658.000000	 98.748438 
657.000000	 98.786078 
656.000000	 98.799446 
655.000000	 98.785568 
654.000000	 98.753146 
653.000000	 98.713168 
652.000000	 98.673864 
651.000000	 98.647345 
650.000000	 98.642901 

