4000.000000	96.749414 
3999.000000	96.748166 
3998.000000	96.746026 
3997.000000	96.743497 
3996.000000	96.741233 
3995.000000	96.739773 
3994.000000	96.739450 
3993.000000	96.740212 
3992.000000	96.741500 
3991.000000	96.742418 
3990.000000	96.742386 
3989.000000	96.741569 
3988.000000	96.740574 
3987.000000	96.739957 
3986.000000	96.740055 
3985.000000	96.740926 
3984.000000	96.742090 
3983.000000	96.742698 
3982.000000	96.742474 
3981.000000	96.742153 
3980.000000	96.742478 
3979.000000	96.743092 
3978.000000	96.743063 
3977.000000	96.742237 
3976.000000	96.741383 
3975.000000	96.740977 
3974.000000	96.740561 
3973.000000	96.739491 
3972.000000	96.737673 
3971.000000	96.735473 
3970.000000	96.733320 
3969.000000	96.731727 
3968.000000	96.731245 
3967.000000	96.731958 
3966.000000	96.733230 
3965.000000	96.734102 
3964.000000	96.733795 
3963.000000	96.732072 
3962.000000	96.729461 
3961.000000	96.727080 
3960.000000	96.725787 
3959.000000	96.725581 
3958.000000	96.725871 
3957.000000	96.726219 
3956.000000	96.726447 
3955.000000	96.726143 
3954.000000	96.724896 
3953.000000	96.722797 
3952.000000	96.720445 
3951.000000	96.718312 
3950.000000	96.716288 
3949.000000	96.714089 
3948.000000	96.711629 
3947.000000	96.709217 
3946.000000	96.707572 
3945.000000	96.707468 
3944.000000	96.708943 
3943.000000	96.710780 
3942.000000	96.711788 
3941.000000	96.712074 
3940.000000	96.712433 
3939.000000	96.713111 
3938.000000	96.713450 
3937.000000	96.712742 
3936.000000	96.710965 
3935.000000	96.708449 
3934.000000	96.705726 
3933.000000	96.703496 
3932.000000	96.702370 
3931.000000	96.702103 
3930.000000	96.701860 
3929.000000	96.701587 
3928.000000	96.702092 
3927.000000	96.703759 
3926.000000	96.705523 
3925.000000	96.705654 
3924.000000	96.703779 
3923.000000	96.700943 
3922.000000	96.697996 
3921.000000	96.695248 
3920.000000	96.693250 
3919.000000	96.692817 
3918.000000	96.693809 
3917.000000	96.694914 
3916.000000	96.695199 
3915.000000	96.695018 
3914.000000	96.695082 
3913.000000	96.695496 
3912.000000	96.695912 
3911.000000	96.696197 
3910.000000	96.696122 
3909.000000	96.695312 
3908.000000	96.693748 
3907.000000	96.691636 
3906.000000	96.689129 
3905.000000	96.685716 
3904.000000	96.681022 
3903.000000	96.676085 
3902.000000	96.672837 
3901.000000	96.672359 
3900.000000	96.674105 
3899.000000	96.676473 
3898.000000	96.678260 
3897.000000	96.679008 
3896.000000	96.678570 
3895.000000	96.677378 
3894.000000	96.676377 
3893.000000	96.676294 
3892.000000	96.676559 
3891.000000	96.675681 
3890.000000	96.673184 
3889.000000	96.669908 
3888.000000	96.667144 
3887.000000	96.665583 
3886.000000	96.665127 
3885.000000	96.665154 
3884.000000	96.664918 
3883.000000	96.663935 
3882.000000	96.662467 
3881.000000	96.661419 
3880.000000	96.661335 
3879.000000	96.661638 
3878.000000	96.661468 
3877.000000	96.660801 
3876.000000	96.660315 
3875.000000	96.660223 
3874.000000	96.659922 
3873.000000	96.658966 
3872.000000	96.657638 
3871.000000	96.656309 
3870.000000	96.655013 
3869.000000	96.654002 
3868.000000	96.653547 
3867.000000	96.653389 
3866.000000	96.653085 
3865.000000	96.652724 
3864.000000	96.652819 
3863.000000	96.653308 
3862.000000	96.653429 
3861.000000	96.653079 
3860.000000	96.652955 
3859.000000	96.653408 
3858.000000	96.653937 
3857.000000	96.653827 
3856.000000	96.653038 
3855.000000	96.652059 
3854.000000	96.650828 
3853.000000	96.649223 
3852.000000	96.648043 
3851.000000	96.647931 
3850.000000	96.648537 
3849.000000	96.649496 
3848.000000	96.650808 
3847.000000	96.652468 
3846.000000	96.653849 
3845.000000	96.654294 
3844.000000	96.653866 
3843.000000	96.653029 
3842.000000	96.652088 
3841.000000	96.651351 
3840.000000	96.651015 
3839.000000	96.651164 
3838.000000	96.651724 
3837.000000	96.652212 
3836.000000	96.652266 
3835.000000	96.652033 
3834.000000	96.651990 
3833.000000	96.652529 
3832.000000	96.653553 
3831.000000	96.654637 
3830.000000	96.655456 
3829.000000	96.656030 
3828.000000	96.656827 
3827.000000	96.658160 
3826.000000	96.659413 
3825.000000	96.659684 
3824.000000	96.658684 
3823.000000	96.657156 
3822.000000	96.656261 
3821.000000	96.656140 
3820.000000	96.656191 
3819.000000	96.656024 
3818.000000	96.655876 
3817.000000	96.656540 
3816.000000	96.658666 
3815.000000	96.661907 
3814.000000	96.664822 
3813.000000	96.666024 
3812.000000	96.665510 
3811.000000	96.664990 
3810.000000	96.666046 
3809.000000	96.668398 
3808.000000	96.670178 
3807.000000	96.669851 
3806.000000	96.667514 
3805.000000	96.664163 
3804.000000	96.660458 
3803.000000	96.657886 
3802.000000	96.657885 
3801.000000	96.659847 
3800.000000	96.661905 
3799.000000	96.662297 
3798.000000	96.661272 
3797.000000	96.661561 
3796.000000	96.665414 
3795.000000	96.671735 
3794.000000	96.677005 
3793.000000	96.679234 
3792.000000	96.679864 
3791.000000	96.681750 
3790.000000	96.684986 
3789.000000	96.686720 
3788.000000	96.685390 
3787.000000	96.682713 
3786.000000	96.681088 
3785.000000	96.680440 
3784.000000	96.678878 
3783.000000	96.675777 
3782.000000	96.672255 
3781.000000	96.669991 
3780.000000	96.670231 
3779.000000	96.673224 
3778.000000	96.677480 
3777.000000	96.680561 
3776.000000	96.680630 
3775.000000	96.677526 
3774.000000	96.672752 
3773.000000	96.668304 
3772.000000	96.665439 
3771.000000	96.663733 
3770.000000	96.662058 
3769.000000	96.660485 
3768.000000	96.659493 
3767.000000	96.658542 
3766.000000	96.657075 
3765.000000	96.655188 
3764.000000	96.653996 
3763.000000	96.654153 
3762.000000	96.654600 
3761.000000	96.654297 
3760.000000	96.653592 
3759.000000	96.653456 
3758.000000	96.651323 
3757.000000	96.643495 
3756.000000	96.631226 
3755.000000	96.618526 
3754.000000	96.607450 
3753.000000	96.597468 
3752.000000	96.589533 
3751.000000	96.585574 
3750.000000	96.582262 
3749.000000	96.574761 
3748.000000	96.564986 
3747.000000	96.559545 
3746.000000	96.563081 
3745.000000	96.572256 
3744.000000	96.582745 
3743.000000	96.592854 
3742.000000	96.597511 
3741.000000	96.592115 
3740.000000	96.580589 
3739.000000	96.574076 
3738.000000	96.578494 
3737.000000	96.586148 
3736.000000	96.587795 
3735.000000	96.585451 
3734.000000	96.586586 
3733.000000	96.591204 
3732.000000	96.594851 
3731.000000	96.597323 
3730.000000	96.599802 
3729.000000	96.601179 
3728.000000	96.600965 
3727.000000	96.601148 
3726.000000	96.604122 
3725.000000	96.608988 
3724.000000	96.612708 
3723.000000	96.614512 
3722.000000	96.616401 
3721.000000	96.619517 
3720.000000	96.621071 
3719.000000	96.619615 
3718.000000	96.616821 
3717.000000	96.613795 
3716.000000	96.610396 
3715.000000	96.604595 
3714.000000	96.595014 
3713.000000	96.584148 
3712.000000	96.576086 
3711.000000	96.572168 
3710.000000	96.569789 
3709.000000	96.566600 
3708.000000	96.562359 
3707.000000	96.556527 
3706.000000	96.548987 
3705.000000	96.541186 
3704.000000	96.535250 
3703.000000	96.531506 
3702.000000	96.526142 
3701.000000	96.514573 
3700.000000	96.496887 
3699.000000	96.478566 
3698.000000	96.465806 
3697.000000	96.459894 
3696.000000	96.457949 
3695.000000	96.456149 
3694.000000	96.451232 
3693.000000	96.442736 
3692.000000	96.433624 
3691.000000	96.427223 
3690.000000	96.422133 
3689.000000	96.415133 
3688.000000	96.407709 
3687.000000	96.403035 
3686.000000	96.400656 
3685.000000	96.397366 
3684.000000	96.391639 
3683.000000	96.386009 
3682.000000	96.383076 
3681.000000	96.379058 
3680.000000	96.366605 
3679.000000	96.342902 
3678.000000	96.314101 
3677.000000	96.289096 
3676.000000	96.269463 
3675.000000	96.252671 
3674.000000	96.236680 
3673.000000	96.219326 
3672.000000	96.199835 
3671.000000	96.183172 
3670.000000	96.174224 
3669.000000	96.170753 
3668.000000	96.165896 
3667.000000	96.156022 
3666.000000	96.144600 
3665.000000	96.136498 
3664.000000	96.131418 
3663.000000	96.125534 
3662.000000	96.115190 
3661.000000	96.098448 
3660.000000	96.076119 
3659.000000	96.050307 
3658.000000	96.023880 
3657.000000	95.997894 
3656.000000	95.971867 
3655.000000	95.946879 
3654.000000	95.923498 
3653.000000	95.900598 
3652.000000	95.876461 
3651.000000	95.850213 
3650.000000	95.821689 
3649.000000	95.792381 
3648.000000	95.767605 
3647.000000	95.753229 
3646.000000	95.750639 
3645.000000	95.756069 
3644.000000	95.763703 
3643.000000	95.769317 
3642.000000	95.770567 
3641.000000	95.766075 
3640.000000	95.755814 
3639.000000	95.740675 
3638.000000	95.722798 
3637.000000	95.704386 
3636.000000	95.686121 
3635.000000	95.666293 
3634.000000	95.642776 
3633.000000	95.616239 
3632.000000	95.588871 
3631.000000	95.561566 
3630.000000	95.533352 
3629.000000	95.504480 
3628.000000	95.480056 
3627.000000	95.466190 
3626.000000	95.462639 
3625.000000	95.466740 
3624.000000	95.477013 
3623.000000	95.490810 
3622.000000	95.502728 
3621.000000	95.506315 
3620.000000	95.497945 
3619.000000	95.480537 
3618.000000	95.462619 
3617.000000	95.452919 
3616.000000	95.456913 
3615.000000	95.474632 
3614.000000	95.499441 
3613.000000	95.521985 
3612.000000	95.536606 
3611.000000	95.543285 
3610.000000	95.545904 
3609.000000	95.549349 
3608.000000	95.555950 
3607.000000	95.564991 
3606.000000	95.575112 
3605.000000	95.587168 
3604.000000	95.603584 
3603.000000	95.624290 
3602.000000	95.645044 
3601.000000	95.660030 
3600.000000	95.666628 
3599.000000	95.667032 
3598.000000	95.665467 
3597.000000	95.664813 
3596.000000	95.666768 
3595.000000	95.670542 
3594.000000	95.673279 
3593.000000	95.673589 
3592.000000	95.672030 
3591.000000	95.669799 
3590.000000	95.668226 
3589.000000	95.668147 
3588.000000	95.669027 
3587.000000	95.669707 
3586.000000	95.670743 
3585.000000	95.674300 
3584.000000	95.682431 
3583.000000	95.695008 
3582.000000	95.709470 
3581.000000	95.721491 
3580.000000	95.727595 
3579.000000	95.727417 
3578.000000	95.723611 
3577.000000	95.719917 
3576.000000	95.718472 
3575.000000	95.719083 
3574.000000	95.719646 
3573.000000	95.718103 
3572.000000	95.713229 
3571.000000	95.704564 
3570.000000	95.692643 
3569.000000	95.679653 
3568.000000	95.669141 
3567.000000	95.664071 
3566.000000	95.664676 
3565.000000	95.668682 
3564.000000	95.673521 
3563.000000	95.678222 
3562.000000	95.682875 
3561.000000	95.687297 
3560.000000	95.690455 
3559.000000	95.691377 
3558.000000	95.690292 
3557.000000	95.688588 
3556.000000	95.687518 
3555.000000	95.687311 
3554.000000	95.687367 
3553.000000	95.686779 
3552.000000	95.684915 
3551.000000	95.681516 
3550.000000	95.676978 
3549.000000	95.672738 
3548.000000	95.670639 
3547.000000	95.670973 
3546.000000	95.671742 
3545.000000	95.670833 
3544.000000	95.668760 
3543.000000	95.667904 
3542.000000	95.669484 
3541.000000	95.672566 
3540.000000	95.675555 
3539.000000	95.677511 
3538.000000	95.678133 
3537.000000	95.677291 
3536.000000	95.675262 
3535.000000	95.672685 
3534.000000	95.670259 
3533.000000	95.668541 
3532.000000	95.667858 
3531.000000	95.668124 
3530.000000	95.668507 
3529.000000	95.667799 
3528.000000	95.665405 
3527.000000	95.661977 
3526.000000	95.658977 
3525.000000	95.657548 
3524.000000	95.657925 
3523.000000	95.659537 
3522.000000	95.661444 
3521.000000	95.662922 
3520.000000	95.663847 
3519.000000	95.664425 
3518.000000	95.664707 
3517.000000	95.664400 
3516.000000	95.663341 
3515.000000	95.661929 
3514.000000	95.660953 
3513.000000	95.660911 
3512.000000	95.661446 
3511.000000	95.661537 
3510.000000	95.660378 
3509.000000	95.658121 
3508.000000	95.655760 
3507.000000	95.654212 
3506.000000	95.653528 
3505.000000	95.652978 
3504.000000	95.651856 
3503.000000	95.650173 
3502.000000	95.648618 
3501.000000	95.647856 
3500.000000	95.647985 
3499.000000	95.648604 
3498.000000	95.649201 
3497.000000	95.649456 
3496.000000	95.649163 
3495.000000	95.648130 
3494.000000	95.646360 
3493.000000	95.644277 
3492.000000	95.642438 
3491.000000	95.640939 
3490.000000	95.639474 
3489.000000	95.637939 
3488.000000	95.636525 
3487.000000	95.635207 
3486.000000	95.633664 
3485.000000	95.631902 
3484.000000	95.630438 
3483.000000	95.629508 
3482.000000	95.628581 
3481.000000	95.627093 
3480.000000	95.625260 
3479.000000	95.623653 
3478.000000	95.622250 
3477.000000	95.620391 
3476.000000	95.617514 
3475.000000	95.613683 
3474.000000	95.609539 
3473.000000	95.605952 
3472.000000	95.603563 
3471.000000	95.602368 
3470.000000	95.601661 
3469.000000	95.600613 
3468.000000	95.598932 
3467.000000	95.596944 
3466.000000	95.595177 
3465.000000	95.593883 
3464.000000	95.592786 
3463.000000	95.591211 
3462.000000	95.588604 
3461.000000	95.585047 
3460.000000	95.581212 
3459.000000	95.577681 
3458.000000	95.574443 
3457.000000	95.571135 
3456.000000	95.567706 
3455.000000	95.564632 
3454.000000	95.562505 
3453.000000	95.561475 
3452.000000	95.561103 
3451.000000	95.560673 
3450.000000	95.559584 
3449.000000	95.557565 
3448.000000	95.554642 
3447.000000	95.551099 
3446.000000	95.547407 
3445.000000	95.544125 
3444.000000	95.541692 
3443.000000	95.540198 
3442.000000	95.539262 
3441.000000	95.538204 
3440.000000	95.536514 
3439.000000	95.534129 
3438.000000	95.531331 
3437.000000	95.528500 
3436.000000	95.526033 
3435.000000	95.524270 
3434.000000	95.523314 
3433.000000	95.522832 
3432.000000	95.522252 
3431.000000	95.521309 
3430.000000	95.520161 
3429.000000	95.518995 
3428.000000	95.517642 
3427.000000	95.515796 
3426.000000	95.513566 
3425.000000	95.511597 
3424.000000	95.510430 
3423.000000	95.509832 
3422.000000	95.508933 
3421.000000	95.507154 
3420.000000	95.504847 
3419.000000	95.502874 
3418.000000	95.501689 
3417.000000	95.501110 
3416.000000	95.500832 
3415.000000	95.500723 
3414.000000	95.500569 
3413.000000	95.499970 
3412.000000	95.498752 
3411.000000	95.497325 
3410.000000	95.496365 
3409.000000	95.496170 
3408.000000	95.496444 
3407.000000	95.496599 
3406.000000	95.496224 
3405.000000	95.495355 
3404.000000	95.494405 
3403.000000	95.493763 
3402.000000	95.493444 
3401.000000	95.493214 
3400.000000	95.492978 
3399.000000	95.492836 
3398.000000	95.492769 
3397.000000	95.492586 
3396.000000	95.492288 
3395.000000	95.492228 
3394.000000	95.492688 
3393.000000	95.493423 
3392.000000	95.493811 
3391.000000	95.493467 
3390.000000	95.492672 
3389.000000	95.492237 
3388.000000	95.492917 
3387.000000	95.494868 
3386.000000	95.497505 
3385.000000	95.499780 
3384.000000	95.500872 
3383.000000	95.500722 
3382.000000	95.500126 
3381.000000	95.500196 
3380.000000	95.501401 
3379.000000	95.503234 
3378.000000	95.504904 
3377.000000	95.506391 
3376.000000	95.508368 
3375.000000	95.511021 
3374.000000	95.513449 
3373.000000	95.514605 
3372.000000	95.514561 
3371.000000	95.514486 
3370.000000	95.515403 
3369.000000	95.517257 
3368.000000	95.519271 
3367.000000	95.520791 
3366.000000	95.521690 
3365.000000	95.522254 
3364.000000	95.522979 
3363.000000	95.524300 
3362.000000	95.526273 
3361.000000	95.528561 
3360.000000	95.530865 
3359.000000	95.533240 
3358.000000	95.535820 
3357.000000	95.538414 
3356.000000	95.540638 
3355.000000	95.542499 
3354.000000	95.544619 
3353.000000	95.547712 
3352.000000	95.551860 
3351.000000	95.556303 
3350.000000	95.559983 
3349.000000	95.562323 
3348.000000	95.563561 
3347.000000	95.564516 
3346.000000	95.565994 
3345.000000	95.568260 
3344.000000	95.570909 
3343.000000	95.573187 
3342.000000	95.574662 
3341.000000	95.575692 
3340.000000	95.577121 
3339.000000	95.579363 
3338.000000	95.582063 
3337.000000	95.584608 
3336.000000	95.586776 
3335.000000	95.588761 
3334.000000	95.590761 
3333.000000	95.592788 
3332.000000	95.594803 
3331.000000	95.596789 
3330.000000	95.598670 
3329.000000	95.600340 
3328.000000	95.601854 
3327.000000	95.603485 
3326.000000	95.605491 
3325.000000	95.607849 
3324.000000	95.610261 
3323.000000	95.612426 
3322.000000	95.614319 
3321.000000	95.616207 
3320.000000	95.618392 
3319.000000	95.620953 
3318.000000	95.623716 
3317.000000	95.626430 
3316.000000	95.628922 
3315.000000	95.631130 
3314.000000	95.633075 
3313.000000	95.634862 
3312.000000	95.636680 
3311.000000	95.638717 
3310.000000	95.641065 
3309.000000	95.643682 
3308.000000	95.646377 
3307.000000	95.648810 
3306.000000	95.650648 
3305.000000	95.651844 
3304.000000	95.652762 
3303.000000	95.653997 
3302.000000	95.655928 
3301.000000	95.658455 
3300.000000	95.661082 
3299.000000	95.663251 
3298.000000	95.664704 
3297.000000	95.665662 
3296.000000	95.666746 
3295.000000	95.668581 
3294.000000	95.671395 
3293.000000	95.674917 
3292.000000	95.678585 
3291.000000	95.681938 
3290.000000	95.684824 
3289.000000	95.687325 
3288.000000	95.689574 
3287.000000	95.691624 
3286.000000	95.693433 
3285.000000	95.694958 
3284.000000	95.696286 
3283.000000	95.697720 
3282.000000	95.699641 
3281.000000	95.702161 
3280.000000	95.704874 
3279.000000	95.707120 
3278.000000	95.708677 
3277.000000	95.710044 
3276.000000	95.711876 
3275.000000	95.714213 
3274.000000	95.716593 
3273.000000	95.718883 
3272.000000	95.721589 
3271.000000	95.725145 
3270.000000	95.729271 
3269.000000	95.733148 
3268.000000	95.736156 
3267.000000	95.738316 
3266.000000	95.740192 
3265.000000	95.742493 
3264.000000	95.745567 
3263.000000	95.749159 
3262.000000	95.752638 
3261.000000	95.755566 
3260.000000	95.757962 
3259.000000	95.760022 
3258.000000	95.761876 
3257.000000	95.763705 
3256.000000	95.765876 
3255.000000	95.768623 
3254.000000	95.771709 
3253.000000	95.774653 
3252.000000	95.777279 
3251.000000	95.779825 
3250.000000	95.782512 
3249.000000	95.785244 
3248.000000	95.787798 
3247.000000	95.790171 
3246.000000	95.792588 
3245.000000	95.795226 
3244.000000	95.798044 
3243.000000	95.800867 
3242.000000	95.803571 
3241.000000	95.806157 
3240.000000	95.808703 
3239.000000	95.811304 
3238.000000	95.814055 
3237.000000	95.817011 
3236.000000	95.820120 
3235.000000	95.823218 
3234.000000	95.826141 
3233.000000	95.828846 
3232.000000	95.831402 
3231.000000	95.833926 
3230.000000	95.836503 
3229.000000	95.839152 
3228.000000	95.841858 
3227.000000	95.844611 
3226.000000	95.847435 
3225.000000	95.850365 
3224.000000	95.853368 
3223.000000	95.856344 
3222.000000	95.859207 
3221.000000	95.861962 
3220.000000	95.864687 
3219.000000	95.867426 
3218.000000	95.870156 
3217.000000	95.872860 
3216.000000	95.875568 
3215.000000	95.878349 
3214.000000	95.881255 
3213.000000	95.884288 
3212.000000	95.887376 
3211.000000	95.890406 
3210.000000	95.893307 
3209.000000	95.896101 
3208.000000	95.898876 
3207.000000	95.901692 
3206.000000	95.904538 
3205.000000	95.907391 
3204.000000	95.910278 
3203.000000	95.913254 
3202.000000	95.916318 
3201.000000	95.919382 
3200.000000	95.922337 
3199.000000	95.925157 
3198.000000	95.927927 
3197.000000	95.930755 
3196.000000	95.933644 
3195.000000	95.936500 
3194.000000	95.939274 
3193.000000	95.942076 
3192.000000	95.945081 
3191.000000	95.948324 
3190.000000	95.951614 
3189.000000	95.954692 
3188.000000	95.957467 
3187.000000	95.960097 
3186.000000	95.962886 
3185.000000	95.966023 
3184.000000	95.969447 
3183.000000	95.972923 
3182.000000	95.976281 
3181.000000	95.979496 
3180.000000	95.982570 
3179.000000	95.985462 
3178.000000	95.988203 
3177.000000	95.990975 
3176.000000	95.993966 
3175.000000	95.997203 
3174.000000	96.000578 
3173.000000	96.003981 
3172.000000	96.007320 
3171.000000	96.010478 
3170.000000	96.013394 
3169.000000	96.016192 
3168.000000	96.019088 
3167.000000	96.022119 
3166.000000	96.025113 
3165.000000	96.027927 
3164.000000	96.030591 
3163.000000	96.033209 
3162.000000	96.035850 
3161.000000	96.038551 
3160.000000	96.041338 
3159.000000	96.044188 
3158.000000	96.047057 
3157.000000	96.049954 
3156.000000	96.052921 
3155.000000	96.055932 
3154.000000	96.058881 
3153.000000	96.061725 
3152.000000	96.064537 
3151.000000	96.067391 
3150.000000	96.070242 
3149.000000	96.072961 
3148.000000	96.075472 
3147.000000	96.077849 
3146.000000	96.080317 
3145.000000	96.083092 
3144.000000	96.086165 
3143.000000	96.089225 
3142.000000	96.091906 
3141.000000	96.094137 
3140.000000	96.096224 
3139.000000	96.098569 
3138.000000	96.101257 
3137.000000	96.104018 
3136.000000	96.106519 
3135.000000	96.108622 
3134.000000	96.110463 
3133.000000	96.112388 
3132.000000	96.114713 
3131.000000	96.117398 
3130.000000	96.120093 
3129.000000	96.122580 
3128.000000	96.125064 
3127.000000	96.127876 
3126.000000	96.131093 
3125.000000	96.134551 
3124.000000	96.138061 
3123.000000	96.141431 
3122.000000	96.144381 
3121.000000	96.146716 
3120.000000	96.148591 
3119.000000	96.150430 
3118.000000	96.152567 
3117.000000	96.155048 
3116.000000	96.157693 
3115.000000	96.160240 
3114.000000	96.162500 
3113.000000	96.164557 
3112.000000	96.166832 
3111.000000	96.169764 
3110.000000	96.173344 
3109.000000	96.176980 
3108.000000	96.180002 
3107.000000	96.182307 
3106.000000	96.184341 
3105.000000	96.186379 
3104.000000	96.188037 
3103.000000	96.188754 
3102.000000	96.188602 
3101.000000	96.188342 
3100.000000	96.188687 
3099.000000	96.189886 
3098.000000	96.192051 
3097.000000	96.195449 
3096.000000	96.200065 
3095.000000	96.205126 
3094.000000	96.209636 
3093.000000	96.213145 
3092.000000	96.215734 
3091.000000	96.217420 
3090.000000	96.218091 
3089.000000	96.218023 
3088.000000	96.217985 
3087.000000	96.218730 
3086.000000	96.220559 
3085.000000	96.223238 
3084.000000	96.226042 
3083.000000	96.228166 
3082.000000	96.229433 
3081.000000	96.230563 
3080.000000	96.232349 
3079.000000	96.234634 
3078.000000	96.236577 
3077.000000	96.237910 
3076.000000	96.239285 
3075.000000	96.241191 
3074.000000	96.243177 
3073.000000	96.244612 
3072.000000	96.245672 
3071.000000	96.247027 
3070.000000	96.248856 
3069.000000	96.250799 
3068.000000	96.252605 
3067.000000	96.254241 
3066.000000	96.255460 
3065.000000	96.255912 
3064.000000	96.255671 
3063.000000	96.255185 
3062.000000	96.254733 
3061.000000	96.254332 
3060.000000	96.254154 
3059.000000	96.254610 
3058.000000	96.256029 
3057.000000	96.258496 
3056.000000	96.261756 
3055.000000	96.264891 
3054.000000	96.266519 
3053.000000	96.266083 
3052.000000	96.264915 
3051.000000	96.265299 
3050.000000	96.268099 
3049.000000	96.271868 
3048.000000	96.274425 
3047.000000	96.274846 
3046.000000	96.273603 
3045.000000	96.271629 
3044.000000	96.269920 
3043.000000	96.269677 
3042.000000	96.271827 
3041.000000	96.275893 
3040.000000	96.279672 
3039.000000	96.280814 
3038.000000	96.278908 
3037.000000	96.275805 
3036.000000	96.273697 
3035.000000	96.272884 
3034.000000	96.271971 
3033.000000	96.269965 
3032.000000	96.267355 
3031.000000	96.265159 
3030.000000	96.263811 
3029.000000	96.263299 
3028.000000	96.263460 
3027.000000	96.263491 
3026.000000	96.262041 
3025.000000	96.258712 
3024.000000	96.254955 
3023.000000	96.252456 
3022.000000	96.251067 
3021.000000	96.249559 
3020.000000	96.247961 
3019.000000	96.247555 
3018.000000	96.248414 
3017.000000	96.248496 
3016.000000	96.245889 
3015.000000	96.240975 
3014.000000	96.235935 
3013.000000	96.232742 
3012.000000	96.231717 
3011.000000	96.231263 
3010.000000	96.228834 
3009.000000	96.223056 
3008.000000	96.215128 
3007.000000	96.207657 
3006.000000	96.202005 
3005.000000	96.197605 
3004.000000	96.193716 
3003.000000	96.190656 
3002.000000	96.189037 
3001.000000	96.188813 
3000.000000	96.189442 
2999.000000	96.190036 
2998.000000	96.189070 
2997.000000	96.185072 
2996.000000	96.178258 
2995.000000	96.170749 
2994.000000	96.164517 
2993.000000	96.159583 
2992.000000	96.154561 
2991.000000	96.148417 
2990.000000	96.141414 
2989.000000	96.134965 
2988.000000	96.130852 
2987.000000	96.130030 
2986.000000	96.131864 
2985.000000	96.135002 
2984.000000	96.139014 
2983.000000	96.144432 
2982.000000	96.151085 
2981.000000	96.157254 
2980.000000	96.160816 
2979.000000	96.160695 
2978.000000	96.157172 
2977.000000	96.151763 
2976.000000	96.147089 
2975.000000	96.145736 
2974.000000	96.148417 
2973.000000	96.153564 
2972.000000	96.159058 
2971.000000	96.163917 
2970.000000	96.168077 
2969.000000	96.171501 
2968.000000	96.174270 
2967.000000	96.176823 
2966.000000	96.179357 
2965.000000	96.181443 
2964.000000	96.182903 
2963.000000	96.184604 
2962.000000	96.187663 
2961.000000	96.192085 
2960.000000	96.196817 
2959.000000	96.201062 
2958.000000	96.205027 
2957.000000	96.209403 
2956.000000	96.214387 
2955.000000	96.219193 
2954.000000	96.222531 
2953.000000	96.223980 
2952.000000	96.224983 
2951.000000	96.227850 
2950.000000	96.233220 
2949.000000	96.238949 
2948.000000	96.242149 
2947.000000	96.242010 
2946.000000	96.240234 
2945.000000	96.239168 
2944.000000	96.240023 
2943.000000	96.242514 
2942.000000	96.245256 
2941.000000	96.246433 
2940.000000	96.245051 
2939.000000	96.242104 
2938.000000	96.240000 
2937.000000	96.240160 
2936.000000	96.241331 
2935.000000	96.240759 
2934.000000	96.237016 
2933.000000	96.231359 
2932.000000	96.226488 
2931.000000	96.224245 
2930.000000	96.224611 
2929.000000	96.226489 
2928.000000	96.228802 
2927.000000	96.230864 
2926.000000	96.232259 
2925.000000	96.233025 
2924.000000	96.233908 
2923.000000	96.235887 
2922.000000	96.239156 
2921.000000	96.242867 
2920.000000	96.246173 
2919.000000	96.249236 
2918.000000	96.252710 
2917.000000	96.256310 
2916.000000	96.258583 
2915.000000	96.258504 
2914.000000	96.257010 
2913.000000	96.256384 
2912.000000	96.257932 
2911.000000	96.260609 
2910.000000	96.262224 
2909.000000	96.261855 
2908.000000	96.260779 
2907.000000	96.260958 
2906.000000	96.262941 
2905.000000	96.265400 
2904.000000	96.266605 
2903.000000	96.266055 
2902.000000	96.265261 
2901.000000	96.266138 
2900.000000	96.269385 
2899.000000	96.274301 
2898.000000	96.279704 
2897.000000	96.284964 
2896.000000	96.289737 
2895.000000	96.293415 
2894.000000	96.295692 
2893.000000	96.297607 
2892.000000	96.300904 
2891.000000	96.305900 
2890.000000	96.310784 
2889.000000	96.313760 
2888.000000	96.315189 
2887.000000	96.316767 
2886.000000	96.319085 
2885.000000	96.321237 
2884.000000	96.322827 
2883.000000	96.324988 
2882.000000	96.328749 
2881.000000	96.333431 
2880.000000	96.337601 
2879.000000	96.341179 
2878.000000	96.345457 
2877.000000	96.351056 
2876.000000	96.356863 
2875.000000	96.361346 
2874.000000	96.364238 
2873.000000	96.366416 
2872.000000	96.368683 
2871.000000	96.371168 
2870.000000	96.373738 
2869.000000	96.376375 
2868.000000	96.379059 
2867.000000	96.381694 
2866.000000	96.384285 
2865.000000	96.386964 
2864.000000	96.389783 
2863.000000	96.392744 
2862.000000	96.396084 
2861.000000	96.400169 
2860.000000	96.404899 
2859.000000	96.409557 
2858.000000	96.413622 
2857.000000	96.417480 
2856.000000	96.421941 
2855.000000	96.427055 
2854.000000	96.431821 
2853.000000	96.435257 
2852.000000	96.437388 
2851.000000	96.439046 
2850.000000	96.441030 
2849.000000	96.443700 
2848.000000	96.447130 
2847.000000	96.451162 
2846.000000	96.455289 
2845.000000	96.458900 
2844.000000	96.461832 
2843.000000	96.464536 
2842.000000	96.467625 
2841.000000	96.471320 
2840.000000	96.475294 
2839.000000	96.478932 
2838.000000	96.481777 
2837.000000	96.483848 
2836.000000	96.485603 
2835.000000	96.487622 
2834.000000	96.490319 
2833.000000	96.493878 
2832.000000	96.498173 
2831.000000	96.502576 
2830.000000	96.506070 
2829.000000	96.507972 
2828.000000	96.508603 
2827.000000	96.509168 
2826.000000	96.510798 
2825.000000	96.513722 
2824.000000	96.517294 
2823.000000	96.520580 
2822.000000	96.522929 
2821.000000	96.524229 
2820.000000	96.524803 
2819.000000	96.525117 
2818.000000	96.525544 
2817.000000	96.526379 
2816.000000	96.527884 
2815.000000	96.530094 
2814.000000	96.532561 
2813.000000	96.534512 
2812.000000	96.535428 
2811.000000	96.535429 
2810.000000	96.535136 
2809.000000	96.535223 
2808.000000	96.536103 
2807.000000	96.537909 
2806.000000	96.540525 
2805.000000	96.543564 
2804.000000	96.546414 
2803.000000	96.548524 
2802.000000	96.549762 
2801.000000	96.550528 
2800.000000	96.551470 
2799.000000	96.552935 
2798.000000	96.554699 
2797.000000	96.556257 
2796.000000	96.557343 
2795.000000	96.558127 
2794.000000	96.558963 
2793.000000	96.560046 
2792.000000	96.561342 
2791.000000	96.562718 
2790.000000	96.564054 
2789.000000	96.565270 
2788.000000	96.566350 
2787.000000	96.567365 
2786.000000	96.568434 
2785.000000	96.569629 
2784.000000	96.570915 
2783.000000	96.572194 
2782.000000	96.573401 
2781.000000	96.574560 
2780.000000	96.575725 
2779.000000	96.576925 
2778.000000	96.578144 
2777.000000	96.579342 
2776.000000	96.580480 
2775.000000	96.581550 
2774.000000	96.582581 
2773.000000	96.583625 
2772.000000	96.584703 
2771.000000	96.585796 
2770.000000	96.586892 
2769.000000	96.588039 
2768.000000	96.589299 
2767.000000	96.590653 
2766.000000	96.591980 
2765.000000	96.593158 
2764.000000	96.594159 
2763.000000	96.595052 
2762.000000	96.595898 
2761.000000	96.596715 
2760.000000	96.597537 
2759.000000	96.598454 
2758.000000	96.599509 
2757.000000	96.600586 
2756.000000	96.601464 
2755.000000	96.602063 
2754.000000	96.602580 
2753.000000	96.603332 
2752.000000	96.604422 
2751.000000	96.605671 
2750.000000	96.606883 
2749.000000	96.608100 
2748.000000	96.609411 
2747.000000	96.610582 
2746.000000	96.611221 
2745.000000	96.611302 
2744.000000	96.611316 
2743.000000	96.611757 
2742.000000	96.612624 
2741.000000	96.613576 
2740.000000	96.614367 
2739.000000	96.615001 
2738.000000	96.615515 
2737.000000	96.615881 
2736.000000	96.616150 
2735.000000	96.616519 
2734.000000	96.617132 
2733.000000	96.617940 
2732.000000	96.618823 
2731.000000	96.619751 
2730.000000	96.620753 
2729.000000	96.621810 
2728.000000	96.622844 
2727.000000	96.623770 
2726.000000	96.624530 
2725.000000	96.625134 
2724.000000	96.625692 
2723.000000	96.626328 
2722.000000	96.627040 
2721.000000	96.627716 
2720.000000	96.628302 
2719.000000	96.628901 
2718.000000	96.629637 
2717.000000	96.630483 
2716.000000	96.631261 
2715.000000	96.631837 
2714.000000	96.632273 
2713.000000	96.632740 
2712.000000	96.633309 
2711.000000	96.633914 
2710.000000	96.634478 
2709.000000	96.634985 
2708.000000	96.635472 
2707.000000	96.636035 
2706.000000	96.636818 
2705.000000	96.637889 
2704.000000	96.639071 
2703.000000	96.639978 
2702.000000	96.640366 
2701.000000	96.640440 
2700.000000	96.640770 
2699.000000	96.641787 
2698.000000	96.643366 
2697.000000	96.644832 
2696.000000	96.645504 
2695.000000	96.645270 
2694.000000	96.644692 
2693.000000	96.644522 
2692.000000	96.644966 
2691.000000	96.645536 
2690.000000	96.645615 
2689.000000	96.645091 
2688.000000	96.644370 
2687.000000	96.643864 
2686.000000	96.643677 
2685.000000	96.643762 
2684.000000	96.644080 
2683.000000	96.644526 
2682.000000	96.644900 
2681.000000	96.645109 
2680.000000	96.645297 
2679.000000	96.645703 
2678.000000	96.646469 
2677.000000	96.647554 
2676.000000	96.648592 
2675.000000	96.648841 
2674.000000	96.647702 
2673.000000	96.645487 
2672.000000	96.643425 
2671.000000	96.642442 
2670.000000	96.642228 
2669.000000	96.641871 
2668.000000	96.641117 
2667.000000	96.640500 
2666.000000	96.640307 
2665.000000	96.640056 
2664.000000	96.639236 
2663.000000	96.638067 
2662.000000	96.637128 
2661.000000	96.636479 
2660.000000	96.635599 
2659.000000	96.634135 
2658.000000	96.632390 
2657.000000	96.630982 
2656.000000	96.630195 
2655.000000	96.629710 
2654.000000	96.628892 
2653.000000	96.627384 
2652.000000	96.625575 
2651.000000	96.624412 
2650.000000	96.624574 
2649.000000	96.625829 
2648.000000	96.627199 
2647.000000	96.627741 
2646.000000	96.627083 
2645.000000	96.625365 
2644.000000	96.623078 
2643.000000	96.620965 
2642.000000	96.619686 
2641.000000	96.619336 
2640.000000	96.619405 
2639.000000	96.619350 
2638.000000	96.619142 
2637.000000	96.619088 
2636.000000	96.619320 
2635.000000	96.619728 
2634.000000	96.620231 
2633.000000	96.620768 
2632.000000	96.621056 
2631.000000	96.620708 
2630.000000	96.619733 
2629.000000	96.618697 
2628.000000	96.618225 
2627.000000	96.618411 
2626.000000	96.618904 
2625.000000	96.619406 
2624.000000	96.619893 
2623.000000	96.620431 
2622.000000	96.620953 
2621.000000	96.621243 
2620.000000	96.621019 
2619.000000	96.620098 
2618.000000	96.618630 
2617.000000	96.617214 
2616.000000	96.616500 
2615.000000	96.616626 
2614.000000	96.617152 
2613.000000	96.617548 
2612.000000	96.617732 
2611.000000	96.618024 
2610.000000	96.618690 
2609.000000	96.619630 
2608.000000	96.620407 
2607.000000	96.620593 
2606.000000	96.620193 
2605.000000	96.619724 
2604.000000	96.619726 
2603.000000	96.620179 
2602.000000	96.620601 
2601.000000	96.620713 
2600.000000	96.620726 
2599.000000	96.620879 
2598.000000	96.621069 
2597.000000	96.621116 
2596.000000	96.621071 
2595.000000	96.621003 
2594.000000	96.620727 
2593.000000	96.620156 
2592.000000	96.619789 
2591.000000	96.620267 
2590.000000	96.621429 
2589.000000	96.622267 
2588.000000	96.622143 
2587.000000	96.621641 
2586.000000	96.621846 
2585.000000	96.623128 
2584.000000	96.624990 
2583.000000	96.626744 
2582.000000	96.628016 
2581.000000	96.628730 
2580.000000	96.629022 
2579.000000	96.629230 
2578.000000	96.629669 
2577.000000	96.630216 
2576.000000	96.630321 
2575.000000	96.629532 
2574.000000	96.628016 
2573.000000	96.626561 
2572.000000	96.625892 
2571.000000	96.625953 
2570.000000	96.626026 
2569.000000	96.625683 
2568.000000	96.625437 
2567.000000	96.626054 
2566.000000	96.627432 
2565.000000	96.628638 
2564.000000	96.629019 
2563.000000	96.628865 
2562.000000	96.628848 
2561.000000	96.629310 
2560.000000	96.630352 
2559.000000	96.632108 
2558.000000	96.634395 
2557.000000	96.636379 
2556.000000	96.637257 
2555.000000	96.637223 
2554.000000	96.637293 
2553.000000	96.637977 
2552.000000	96.638702 
2551.000000	96.638875 
2550.000000	96.638851 
2549.000000	96.639280 
2548.000000	96.639851 
2547.000000	96.639572 
2546.000000	96.638228 
2545.000000	96.636810 
2544.000000	96.636295 
2543.000000	96.636525 
2542.000000	96.636747 
2541.000000	96.636845 
2540.000000	96.637415 
2539.000000	96.638676 
2538.000000	96.639992 
2537.000000	96.640628 
2536.000000	96.640639 
2535.000000	96.640698 
2534.000000	96.641249 
2533.000000	96.642079 
2532.000000	96.642721 
2531.000000	96.642988 
2530.000000	96.642971 
2529.000000	96.642728 
2528.000000	96.642246 
2527.000000	96.641717 
2526.000000	96.641610 
2525.000000	96.642257 
2524.000000	96.643521 
2523.000000	96.644881 
2522.000000	96.645900 
2521.000000	96.646534 
2520.000000	96.646973 
2519.000000	96.647339 
2518.000000	96.647583 
2517.000000	96.647585 
2516.000000	96.647283 
2515.000000	96.646752 
2514.000000	96.646273 
2513.000000	96.646232 
2512.000000	96.646809 
2511.000000	96.647828 
2510.000000	96.648906 
2509.000000	96.649780 
2508.000000	96.650391 
2507.000000	96.650755 
2506.000000	96.650964 
2505.000000	96.651275 
2504.000000	96.651966 
2503.000000	96.652998 
2502.000000	96.653922 
2501.000000	96.654313 
2500.000000	96.654193 
2499.000000	96.653924 
2498.000000	96.653800 
2497.000000	96.653853 
2496.000000	96.654054 
2495.000000	96.654427 
2494.000000	96.654927 
2493.000000	96.655345 
2492.000000	96.655532 
2491.000000	96.655625 
2490.000000	96.655937 
2489.000000	96.656572 
2488.000000	96.657263 
2487.000000	96.657660 
2486.000000	96.657738 
2485.000000	96.657812 
2484.000000	96.658172 
2483.000000	96.658789 
2482.000000	96.659408 
2481.000000	96.659838 
2480.000000	96.660081 
2479.000000	96.660286 
2478.000000	96.660701 
2477.000000	96.661428 
2476.000000	96.662023 
2475.000000	96.661677 
2474.000000	96.660118 
2473.000000	96.658241 
2472.000000	96.657326 
2471.000000	96.657538 
2470.000000	96.657875 
2469.000000	96.657640 
2468.000000	96.657295 
2467.000000	96.657490 
2466.000000	96.657917 
2465.000000	96.657753 
2464.000000	96.656912 
2463.000000	96.656238 
2462.000000	96.656522 
2461.000000	96.657817 
2460.000000	96.659669 
2459.000000	96.661569 
2458.000000	96.662990 
2457.000000	96.663331 
2456.000000	96.662198 
2455.000000	96.659866 
2454.000000	96.657345 
2453.000000	96.655653 
2452.000000	96.654963 
2451.000000	96.654699 
2450.000000	96.654528 
2449.000000	96.654843 
2448.000000	96.655975 
2447.000000	96.657384 
2446.000000	96.658138 
2445.000000	96.658000 
2444.000000	96.657487 
2443.000000	96.657127 
2442.000000	96.657211 
2441.000000	96.658034 
2440.000000	96.659739 
2439.000000	96.661990 
2438.000000	96.664377 
2437.000000	96.667025 
2436.000000	96.670144 
2435.000000	96.673108 
2434.000000	96.674736 
2433.000000	96.674601 
2432.000000	96.673491 
2431.000000	96.672644 
2430.000000	96.672875 
2429.000000	96.674425 
2428.000000	96.676959 
2427.000000	96.679419 
2426.000000	96.680610 
2425.000000	96.680264 
2424.000000	96.679220 
2423.000000	96.678548 
2422.000000	96.678656 
2421.000000	96.679440 
2420.000000	96.680744 
2419.000000	96.682360 
2418.000000	96.683910 
2417.000000	96.685249 
2416.000000	96.686773 
2415.000000	96.688790 
2414.000000	96.690828 
2413.000000	96.692306 
2412.000000	96.693519 
2411.000000	96.695025 
2410.000000	96.696586 
2409.000000	96.697773 
2408.000000	96.699089 
2407.000000	96.701222 
2406.000000	96.703592 
2405.000000	96.704796 
2404.000000	96.704215 
2403.000000	96.702283 
2402.000000	96.699804 
2401.000000	96.698027 
2400.000000	96.698643 
2399.000000	96.702303 
2398.000000	96.707456 
2397.000000	96.711872 
2396.000000	96.714903 
2395.000000	96.716986 
2394.000000	96.717794 
2393.000000	96.716909 
2392.000000	96.715867 
2391.000000	96.717133 
2390.000000	96.720754 
2389.000000	96.724051 
2388.000000	96.725120 
2387.000000	96.724826 
2386.000000	96.724817 
2385.000000	96.725407 
2384.000000	96.726305 
2383.000000	96.727906 
2382.000000	96.730847 
2381.000000	96.735470 
2380.000000	96.742470 
2379.000000	96.752460 
2378.000000	96.763495 
2377.000000	96.770540 
2376.000000	96.769732 
2375.000000	96.762478 
2374.000000	96.753626 
2373.000000	96.745781 
2372.000000	96.738162 
2371.000000	96.731064 
2370.000000	96.727416 
2369.000000	96.727998 
2368.000000	96.728112 
2367.000000	96.722419 
2366.000000	96.711866 
2365.000000	96.702826 
2364.000000	96.699505 
2363.000000	96.700576 
2362.000000	96.703292 
2361.000000	96.706978 
2360.000000	96.711824 
2359.000000	96.716134 
2358.000000	96.718035 
2357.000000	96.718671 
2356.000000	96.720174 
2355.000000	96.721403 
2354.000000	96.717697 
2353.000000	96.708233 
2352.000000	96.698266 
2351.000000	96.691430 
2350.000000	96.687060 
2349.000000	96.683972 
2348.000000	96.681837 
2347.000000	96.677277 
2346.000000	96.667989 
2345.000000	96.659238 
2344.000000	96.655403 
2343.000000	96.654673 
2342.000000	96.655731 
2341.000000	96.661624 
2340.000000	96.672910 
2339.000000	96.683898 
2338.000000	96.688429 
2337.000000	96.686964 
2336.000000	96.684843 
2335.000000	96.684484 
2334.000000	96.681106 
2333.000000	96.669301 
2332.000000	96.650884 
2331.000000	96.632603 
2330.000000	96.618217 
2329.000000	96.604829 
2328.000000	96.590033 
2327.000000	96.574592 
2326.000000	96.559338 
2325.000000	96.544462 
2324.000000	96.531898 
2323.000000	96.525745 
2322.000000	96.525686 
2321.000000	96.526794 
2320.000000	96.526820 
2319.000000	96.530124 
2318.000000	96.540306 
2317.000000	96.553287 
2316.000000	96.561393 
2315.000000	96.561005 
2314.000000	96.554337 
2313.000000	96.545341 
2312.000000	96.537463 
2311.000000	96.532941 
2310.000000	96.531615 
2309.000000	96.530685 
2308.000000	96.528219 
2307.000000	96.526113 
2306.000000	96.527310 
2305.000000	96.531523 
2304.000000	96.535778 
2303.000000	96.538882 
2302.000000	96.542572 
2301.000000	96.548177 
2300.000000	96.554129 
2299.000000	96.557232 
2298.000000	96.555634 
2297.000000	96.549987 
2296.000000	96.543190 
2295.000000	96.538565 
2294.000000	96.537465 
2293.000000	96.538239 
2292.000000	96.538512 
2291.000000	96.538180 
2290.000000	96.539270 
2289.000000	96.543012 
2288.000000	96.547993 
2287.000000	96.551716 
2286.000000	96.553104 
2285.000000	96.553313 
2284.000000	96.554190 
2283.000000	96.556377 
2282.000000	96.558914 
2281.000000	96.560574 
2280.000000	96.561061 
2279.000000	96.560804 
2278.000000	96.560187 
2277.000000	96.559535 
2276.000000	96.559505 
2275.000000	96.560723 
2274.000000	96.563140 
2273.000000	96.566251 
2272.000000	96.569771 
2271.000000	96.573411 
2270.000000	96.576314 
2269.000000	96.577704 
2268.000000	96.578027 
2267.000000	96.578403 
2266.000000	96.578898 
2265.000000	96.578504 
2264.000000	96.576744 
2263.000000	96.574084 
2262.000000	96.570854 
2261.000000	96.567036 
2260.000000	96.563225 
2259.000000	96.560603 
2258.000000	96.559656 
2257.000000	96.559930 
2256.000000	96.561162 
2255.000000	96.563562 
2254.000000	96.566591 
2253.000000	96.568501 
2252.000000	96.567978 
2251.000000	96.565309 
2250.000000	96.561667 
2249.000000	96.557993 
2248.000000	96.555000 
2247.000000	96.553396 
2246.000000	96.553263 
2245.000000	96.553646 
2244.000000	96.553246 
2243.000000	96.551729 
2242.000000	96.549761 
2241.000000	96.548158 
2240.000000	96.547183 
2239.000000	96.546597 
2238.000000	96.546005 
2237.000000	96.545122 
2236.000000	96.543928 
2235.000000	96.542611 
2234.000000	96.541349 
2233.000000	96.540155 
2232.000000	96.538955 
2231.000000	96.537705 
2230.000000	96.536361 
2229.000000	96.534868 
2228.000000	96.533256 
2227.000000	96.531643 
2226.000000	96.530090 
2225.000000	96.528564 
2224.000000	96.527017 
2223.000000	96.525441 
2222.000000	96.523869 
2221.000000	96.522341 
2220.000000	96.520842 
2219.000000	96.519338 
2218.000000	96.517815 
2217.000000	96.516273 
2216.000000	96.514722 
2215.000000	96.513166 
2214.000000	96.511605 
2213.000000	96.510040 
2212.000000	96.508478 
2211.000000	96.506936 
2210.000000	96.505426 
2209.000000	96.503940 
2208.000000	96.502458 
2207.000000	96.500963 
2206.000000	96.499431 
2205.000000	96.497860 
2204.000000	96.496345 
2203.000000	96.495072 
2202.000000	96.494226 
2201.000000	96.493754 
2200.000000	96.493025 
2199.000000	96.491168 
2198.000000	96.487950 
2197.000000	96.484187 
2196.000000	96.481033 
2195.000000	96.478816 
2194.000000	96.476897 
2193.000000	96.474847 
2192.000000	96.473240 
2191.000000	96.472674 
2190.000000	96.472470 
2189.000000	96.471491 
2188.000000	96.470059 
2187.000000	96.469290 
2186.000000	96.468247 
2185.000000	96.464156 
2184.000000	96.457261 
2183.000000	96.453355 
2182.000000	96.458094 
2181.000000	96.469823 
2180.000000	96.479744 
2179.000000	96.481009 
2178.000000	96.474874 
2177.000000	96.468032 
2176.000000	96.465741 
2175.000000	96.468276 
2174.000000	96.472756 
2173.000000	96.476379 
2172.000000	96.478377 
2171.000000	96.479810 
2170.000000	96.481305 
2169.000000	96.481087 
2168.000000	96.476546 
2167.000000	96.468185 
2166.000000	96.460116 
2165.000000	96.455193 
2164.000000	96.451520 
2163.000000	96.446385 
2162.000000	96.442937 
2161.000000	96.449441 
2160.000000	96.470838 
2159.000000	96.502495 
2158.000000	96.532916 
2157.000000	96.553546 
2156.000000	96.564047 
2155.000000	96.568629 
2154.000000	96.570811 
2153.000000	96.572250 
2152.000000	96.573833 
2151.000000	96.575381 
2150.000000	96.575223 
2149.000000	96.572676 
2148.000000	96.570793 
2147.000000	96.573910 
2146.000000	96.581878 
2145.000000	96.589549 
2144.000000	96.593337 
2143.000000	96.595442 
2142.000000	96.599584 
2141.000000	96.605477 
2140.000000	96.610748 
2139.000000	96.616437 
2138.000000	96.626636 
2137.000000	96.642543 
2136.000000	96.659642 
2135.000000	96.671403 
2134.000000	96.673890 
2133.000000	96.667660 
2132.000000	96.657689 
2131.000000	96.650308 
2130.000000	96.648426 
2129.000000	96.649830 
2128.000000	96.650728 
2127.000000	96.650125 
2126.000000	96.649667 
2125.000000	96.650345 
2124.000000	96.651153 
2123.000000	96.650554 
2122.000000	96.647610 
2121.000000	96.641835 
2120.000000	96.633416 
2119.000000	96.623805 
2118.000000	96.615292 
2117.000000	96.609628 
2116.000000	96.606828 
2115.000000	96.604991 
2114.000000	96.601289 
2113.000000	96.594514 
2112.000000	96.587327 
2111.000000	96.584407 
2110.000000	96.587464 
2109.000000	96.593261 
2108.000000	96.597290 
2107.000000	96.598114 
2106.000000	96.597058 
2105.000000	96.595730 
2104.000000	96.595564 
2103.000000	96.597779 
2102.000000	96.601299 
2101.000000	96.602040 
2100.000000	96.597123 
2099.000000	96.589367 
2098.000000	96.585343 
2097.000000	96.588493 
2096.000000	96.596104 
2095.000000	96.602508 
2094.000000	96.604244 
2093.000000	96.601650 
2092.000000	96.597090 
2091.000000	96.593059 
2090.000000	96.590960 
2089.000000	96.590514 
2088.000000	96.590133 
2087.000000	96.588227 
2086.000000	96.584350 
2085.000000	96.579323 
2084.000000	96.574564 
2083.000000	96.571060 
2082.000000	96.568675 
2081.000000	96.566547 
2080.000000	96.564410 
2079.000000	96.563166 
2078.000000	96.563529 
2077.000000	96.564484 
2076.000000	96.564155 
2075.000000	96.562076 
2074.000000	96.559390 
2073.000000	96.556696 
2072.000000	96.553103 
2071.000000	96.547891 
2070.000000	96.541880 
2069.000000	96.536633 
2068.000000	96.533152 
2067.000000	96.531641 
2066.000000	96.531614 
2065.000000	96.531542 
2064.000000	96.529430 
2063.000000	96.524802 
2062.000000	96.519566 
2061.000000	96.516326 
2060.000000	96.515893 
2059.000000	96.517208 
2058.000000	96.518731 
2057.000000	96.519276 
2056.000000	96.518070 
2055.000000	96.514600 
2054.000000	96.508989 
2053.000000	96.502385 
2052.000000	96.496691 
2051.000000	96.493350 
2050.000000	96.492158 
2049.000000	96.491479 
2048.000000	96.489907 
2047.000000	96.487683 
2046.000000	96.485987 
2045.000000	96.485320 
2044.000000	96.485229 
2043.000000	96.485234 
2042.000000	96.485311 
2041.000000	96.485550 
2040.000000	96.486050 
2039.000000	96.487249 
2038.000000	96.489499 
2037.000000	96.492043 
2036.000000	96.493294 
2035.000000	96.492557 
2034.000000	96.490930 
2033.000000	96.490280 
2032.000000	96.491362 
2031.000000	96.493216 
2030.000000	96.494081 
2029.000000	96.492901 
2028.000000	96.490212 
2027.000000	96.487691 
2026.000000	96.486500 
2025.000000	96.486401 
2024.000000	96.486742 
2023.000000	96.487899 
2022.000000	96.490988 
2021.000000	96.495953 
2020.000000	96.500441 
2019.000000	96.501541 
2018.000000	96.498322 
2017.000000	96.492616 
2016.000000	96.487775 
2015.000000	96.485942 
2014.000000	96.486560 
2013.000000	96.486905 
2012.000000	96.484877 
2011.000000	96.481808 
2010.000000	96.481397 
2009.000000	96.485368 
2008.000000	96.491397 
2007.000000	96.495946 
2006.000000	96.498250 
2005.000000	96.499743 
2004.000000	96.501052 
2003.000000	96.501706 
2002.000000	96.502144 
2001.000000	96.503400 
2000.000000	96.504601 
1999.000000	96.502812 
1998.000000	96.496123 
1997.000000	96.486123 
1996.000000	96.477064 
1995.000000	96.472500 
1994.000000	96.472879 
1993.000000	96.475557 
1992.000000	96.476794 
1991.000000	96.475179 
1990.000000	96.473046 
1989.000000	96.473759 
1988.000000	96.477691 
1987.000000	96.481340 
1986.000000	96.480736 
1985.000000	96.475386 
1984.000000	96.468352 
1983.000000	96.462837 
1982.000000	96.459651 
1981.000000	96.458334 
1980.000000	96.459505 
1979.000000	96.464385 
1978.000000	96.471846 
1977.000000	96.478079 
1976.000000	96.480410 
1975.000000	96.480160 
1974.000000	96.480774 
1973.000000	96.484240 
1972.000000	96.489983 
1971.000000	96.496174 
1970.000000	96.501025 
1969.000000	96.503163 
1968.000000	96.502066 
1967.000000	96.498810 
1966.000000	96.496135 
1965.000000	96.496624 
1964.000000	96.500869 
1963.000000	96.507604 
1962.000000	96.514862 
1961.000000	96.520911 
1960.000000	96.524520 
1959.000000	96.525242 
1958.000000	96.524097 
1957.000000	96.523542 
1956.000000	96.525499 
1955.000000	96.529525 
1954.000000	96.533396 
1953.000000	96.535630 
1952.000000	96.536691 
1951.000000	96.537665 
1950.000000	96.538941 
1949.000000	96.540653 
1948.000000	96.543311 
1947.000000	96.547044 
1946.000000	96.550785 
1945.000000	96.553197 
1944.000000	96.554130 
1943.000000	96.554432 
1942.000000	96.554720 
1941.000000	96.555010 
1940.000000	96.555396 
1939.000000	96.556178 
1938.000000	96.557402 
1937.000000	96.559049 
1936.000000	96.561392 
1935.000000	96.564398 
1934.000000	96.567024 
1933.000000	96.568392 
1932.000000	96.569539 
1931.000000	96.572563 
1930.000000	96.577886 
1929.000000	96.583173 
1928.000000	96.586178 
1927.000000	96.587197 
1926.000000	96.587844 
1925.000000	96.588655 
1924.000000	96.588819 
1923.000000	96.587836 
1922.000000	96.585803 
1921.000000	96.582785 
1920.000000	96.579495 
1919.000000	96.577577 
1918.000000	96.577659 
1917.000000	96.577837 
1916.000000	96.576377 
1915.000000	96.574966 
1914.000000	96.576125 
1913.000000	96.579241 
1912.000000	96.581486 
1911.000000	96.581889 
1910.000000	96.581984 
1909.000000	96.582647 
1908.000000	96.583216 
1907.000000	96.583181 
1906.000000	96.582474 
1905.000000	96.580313 
1904.000000	96.575944 
1903.000000	96.571213 
1902.000000	96.569263 
1901.000000	96.570384 
1900.000000	96.572157 
1899.000000	96.573061 
1898.000000	96.573647 
1897.000000	96.574299 
1896.000000	96.573859 
1895.000000	96.571585 
1894.000000	96.568409 
1893.000000	96.565278 
1892.000000	96.562331 
1891.000000	96.560031 
1890.000000	96.559197 
1889.000000	96.559539 
1888.000000	96.559911 
1887.000000	96.560351 
1886.000000	96.561612 
1885.000000	96.562712 
1884.000000	96.561398 
1883.000000	96.557558 
1882.000000	96.554197 
1881.000000	96.553904 
1880.000000	96.556253 
1879.000000	96.558755 
1878.000000	96.559435 
1877.000000	96.558595 
1876.000000	96.558113 
1875.000000	96.559559 
1874.000000	96.562942 
1873.000000	96.566590 
1872.000000	96.568758 
1871.000000	96.569350 
1870.000000	96.569444 
1869.000000	96.569643 
1868.000000	96.569885 
1867.000000	96.570877 
1866.000000	96.573207 
1865.000000	96.575297 
1864.000000	96.575267 
1863.000000	96.574262 
1862.000000	96.575357 
1861.000000	96.579293 
1860.000000	96.583681 
1859.000000	96.586875 
1858.000000	96.590074 
1857.000000	96.594425 
1856.000000	96.599107 
1855.000000	96.603044 
1854.000000	96.606020 
1853.000000	96.607639 
1852.000000	96.608145 
1851.000000	96.609562 
1850.000000	96.613448 
1849.000000	96.618529 
1848.000000	96.621895 
1847.000000	96.622880 
1846.000000	96.623658 
1845.000000	96.626234 
1844.000000	96.630148 
1843.000000	96.633917 
1842.000000	96.637109 
1841.000000	96.639977 
1840.000000	96.643369 
1839.000000	96.648230 
1838.000000	96.653909 
1837.000000	96.657570 
1836.000000	96.657202 
1835.000000	96.654863 
1834.000000	96.654320 
1833.000000	96.656241 
1832.000000	96.658651 
1831.000000	96.659646 
1830.000000	96.658695 
1829.000000	96.657077 
1828.000000	96.656477 
1827.000000	96.657561 
1826.000000	96.660158 
1825.000000	96.663343 
1824.000000	96.665661 
1823.000000	96.666522 
1822.000000	96.667112 
1821.000000	96.668561 
1820.000000	96.670458 
1819.000000	96.672114 
1818.000000	96.674742 
1817.000000	96.679312 
1816.000000	96.682971 
1815.000000	96.682930 
1814.000000	96.680834 
1813.000000	96.680589 
1812.000000	96.682367 
1811.000000	96.681805 
1810.000000	96.677808 
1809.000000	96.674015 
1808.000000	96.671981 
1807.000000	96.670464 
1806.000000	96.669690 
1805.000000	96.670538 
1804.000000	96.671053 
1803.000000	96.668433 
1802.000000	96.663104 
1801.000000	96.658786 
1800.000000	96.657194 
1799.000000	96.656800 
1798.000000	96.657938 
1797.000000	96.661159 
1796.000000	96.663783 
1795.000000	96.663704 
1794.000000	96.662784 
1793.000000	96.664133 
1792.000000	96.666190 
1791.000000	96.665283 
1790.000000	96.663582 
1789.000000	96.665198 
1788.000000	96.669838 
1787.000000	96.674381 
1786.000000	96.677480 
1785.000000	96.679844 
1784.000000	96.681412 
1783.000000	96.682201 
1782.000000	96.682785 
1781.000000	96.683878 
1780.000000	96.686096 
1779.000000	96.689567 
1778.000000	96.694840 
1777.000000	96.701232 
1776.000000	96.706578 
1775.000000	96.709473 
1774.000000	96.709983 
1773.000000	96.709752 
1772.000000	96.710102 
1771.000000	96.710073 
1770.000000	96.709260 
1769.000000	96.709478 
1768.000000	96.712102 
1767.000000	96.716057 
1766.000000	96.719239 
1765.000000	96.721323 
1764.000000	96.723416 
1763.000000	96.725747 
1762.000000	96.727390 
1761.000000	96.728286 
1760.000000	96.729195 
1759.000000	96.730156 
1758.000000	96.730859 
1757.000000	96.731406 
1756.000000	96.732729 
1755.000000	96.734449 
1754.000000	96.734781 
1753.000000	96.733020 
1752.000000	96.730895 
1751.000000	96.731101 
1750.000000	96.733908 
1749.000000	96.737076 
1748.000000	96.739084 
1747.000000	96.740449 
1746.000000	96.741559 
1745.000000	96.742669 
1744.000000	96.744415 
1743.000000	96.746288 
1742.000000	96.746868 
1741.000000	96.746349 
1740.000000	96.746646 
1739.000000	96.748425 
1738.000000	96.749541 
1737.000000	96.748517 
1736.000000	96.745973 
1735.000000	96.743820 
1734.000000	96.743128 
1733.000000	96.742320 
1732.000000	96.741018 
1731.000000	96.741573 
1730.000000	96.745269 
1729.000000	96.749463 
1728.000000	96.751474 
1727.000000	96.751157 
1726.000000	96.749795 
1725.000000	96.748356 
1724.000000	96.747199 
1723.000000	96.746196 
1722.000000	96.745433 
1721.000000	96.744550 
1720.000000	96.743245 
1719.000000	96.741413 
1718.000000	96.739278 
1717.000000	96.737163 
1716.000000	96.733263 
1715.000000	96.727525 
1714.000000	96.723979 
1713.000000	96.723666 
1712.000000	96.723235 
1711.000000	96.721059 
1710.000000	96.718615 
1709.000000	96.716502 
1708.000000	96.713619 
1707.000000	96.709920 
1706.000000	96.707135 
1705.000000	96.705380 
1704.000000	96.701044 
1703.000000	96.692710 
1702.000000	96.682474 
1701.000000	96.675468 
1700.000000	96.673061 
1699.000000	96.669849 
1698.000000	96.664975 
1697.000000	96.661318 
1696.000000	96.658668 
1695.000000	96.655254 
1694.000000	96.650805 
1693.000000	96.646168 
1692.000000	96.641618 
1691.000000	96.636686 
1690.000000	96.631231 
1689.000000	96.625547 
1688.000000	96.619990 
1687.000000	96.614618 
1686.000000	96.609371 
1685.000000	96.604772 
1684.000000	96.600032 
1683.000000	96.594302 
1682.000000	96.588316 
1681.000000	96.582327 
1680.000000	96.576970 
1679.000000	96.572152 
1678.000000	96.567047 
1677.000000	96.560795 
1676.000000	96.554408 
1675.000000	96.549406 
1674.000000	96.544227 
1673.000000	96.536949 
1672.000000	96.529358 
1671.000000	96.524443 
1670.000000	96.521971 
1669.000000	96.517861 
1668.000000	96.512187 
1667.000000	96.508362 
1666.000000	96.505532 
1665.000000	96.501426 
1664.000000	96.496500 
1663.000000	96.492816 
1662.000000	96.488840 
1661.000000	96.480484 
1660.000000	96.470688 
1659.000000	96.465180 
1658.000000	96.465076 
1657.000000	96.464299 
1656.000000	96.460800 
1655.000000	96.454815 
1654.000000	96.447301 
1653.000000	96.436279 
1652.000000	96.422487 
1651.000000	96.410939 
1650.000000	96.399969 
1649.000000	96.393703 
1648.000000	96.389864 
1647.000000	96.386310 
1646.000000	96.382050 
1645.000000	96.379910 
1644.000000	96.376517 
1643.000000	96.372080 
1642.000000	96.369220 
1641.000000	96.368816 
1640.000000	96.369132 
1639.000000	96.367738 
1638.000000	96.364270 
1637.000000	96.359003 
1636.000000	96.351920 
1635.000000	96.348016 
1634.000000	96.351135 
1633.000000	96.356585 
1632.000000	96.359117 
1631.000000	96.359215 
1630.000000	96.360549 
1629.000000	96.363742 
1628.000000	96.366787 
1627.000000	96.369710 
1626.000000	96.373067 
1625.000000	96.375798 
1624.000000	96.378510 
1623.000000	96.384092 
1622.000000	96.392249 
1621.000000	96.397669 
1620.000000	96.399681 
1619.000000	96.403239 
1618.000000	96.411153 
1617.000000	96.417605 
1616.000000	96.416246 
1615.000000	96.413180 
1614.000000	96.414632 
1613.000000	96.418265 
1612.000000	96.420737 
1611.000000	96.423919 
1610.000000	96.430285 
1609.000000	96.437923 
1608.000000	96.445231 
1607.000000	96.453910 
1606.000000	96.462931 
1605.000000	96.468796 
1604.000000	96.472979 
1603.000000	96.479371 
1602.000000	96.487755 
1601.000000	96.494874 
1600.000000	96.500639 
1599.000000	96.507766 
1598.000000	96.515986 
1597.000000	96.522772 
1596.000000	96.528209 
1595.000000	96.535216 
1594.000000	96.544585 
1593.000000	96.553115 
1592.000000	96.558711 
1591.000000	96.563356 
1590.000000	96.569023 
1589.000000	96.574525 
1588.000000	96.579246 
1587.000000	96.585535 
1586.000000	96.594025 
1585.000000	96.600732 
1584.000000	96.604360 
1583.000000	96.609278 
1582.000000	96.617376 
1581.000000	96.625572 
1580.000000	96.632337 
1579.000000	96.640677 
1578.000000	96.652431 
1577.000000	96.664398 
1576.000000	96.671439 
1575.000000	96.674032 
1574.000000	96.674354 
1573.000000	96.673393 
1572.000000	96.675100 
1571.000000	96.683027 
1570.000000	96.693601 
1569.000000	96.695985 
1568.000000	96.691541 
1567.000000	96.689647 
1566.000000	96.692781 
1565.000000	96.696833 
1564.000000	96.701536 
1563.000000	96.705678 
1562.000000	96.706629 
1561.000000	96.698460 
1560.000000	96.691502 
1559.000000	96.694271 
1558.000000	96.695974 
1557.000000	96.695212 
1556.000000	96.691003 
1555.000000	96.690669 
1554.000000	96.689918 
1553.000000	96.688421 
1552.000000	96.685550 
1551.000000	96.682279 
1550.000000	96.677014 
1549.000000	96.670643 
1548.000000	96.665752 
1547.000000	96.664141 
1546.000000	96.664093 
1545.000000	96.663036 
1544.000000	96.660378 
1543.000000	96.657369 
1542.000000	96.656800 
1541.000000	96.658935 
1540.000000	96.652471 
1539.000000	96.635789 
1538.000000	96.619225 
1537.000000	96.603723 
1536.000000	96.589598 
1535.000000	96.579329 
1534.000000	96.574591 
1533.000000	96.572043 
1532.000000	96.567251 
1531.000000	96.558404 
1530.000000	96.548386 
1529.000000	96.540048 
1528.000000	96.532407 
1527.000000	96.523639 
1526.000000	96.514071 
1525.000000	96.505652 
1524.000000	96.499444 
1523.000000	96.494637 
1522.000000	96.488997 
1521.000000	96.479674 
1520.000000	96.466040 
1519.000000	96.450265 
1518.000000	96.434977 
1517.000000	96.421684 
1516.000000	96.410424 
1515.000000	96.401583 
1514.000000	96.395048 
1513.000000	96.390313 
1512.000000	96.385392 
1511.000000	96.376979 
1510.000000	96.364726 
1509.000000	96.351589 
1508.000000	96.340309 
1507.000000	96.327724 
1506.000000	96.314359 
1505.000000	96.304328 
1504.000000	96.294831 
1503.000000	96.284407 
1502.000000	96.273200 
1501.000000	96.262487 
1500.000000	96.252924 
1499.000000	96.243494 
1498.000000	96.231931 
1497.000000	96.219001 
1496.000000	96.207563 
1495.000000	96.198325 
1494.000000	96.190537 
1493.000000	96.184177 
1492.000000	96.179374 
1491.000000	96.174707 
1490.000000	96.167479 
1489.000000	96.157363 
1488.000000	96.145468 
1487.000000	96.132217 
1486.000000	96.119691 
1485.000000	96.107962 
1484.000000	96.096215 
1483.000000	96.085372 
1482.000000	96.076010 
1481.000000	96.067416 
1480.000000	96.057691 
1479.000000	96.046369 
1478.000000	96.034992 
1477.000000	96.025164 
1476.000000	96.015060 
1475.000000	96.001429 
1474.000000	95.984556 
1473.000000	95.969218 
1472.000000	95.960078 
1471.000000	95.955452 
1470.000000	95.951193 
1469.000000	95.945591 
1468.000000	95.937823 
1467.000000	95.926900 
1466.000000	95.913963 
1465.000000	95.902444 
1464.000000	95.895072 
1463.000000	95.889028 
1462.000000	95.880702 
1461.000000	95.871643 
1460.000000	95.865452 
1459.000000	95.861485 
1458.000000	95.849570 
1457.000000	95.825964 
1456.000000	95.806551 
1455.000000	95.798170 
1454.000000	95.791531 
1453.000000	95.785382 
1452.000000	95.782554 
1451.000000	95.783627 
1450.000000	95.785683 
1449.000000	95.788227 
1448.000000	95.791055 
1447.000000	95.791968 
1446.000000	95.789044 
1445.000000	95.784462 
1444.000000	95.782447 
1443.000000	95.781783 
1442.000000	95.779172 
1441.000000	95.774562 
1440.000000	95.770014 
1439.000000	95.764034 
1438.000000	95.752687 
1437.000000	95.739420 
1436.000000	95.734430 
1435.000000	95.738071 
1434.000000	95.741794 
1433.000000	95.743856 
1432.000000	95.746687 
1431.000000	95.750485 
1430.000000	95.752592 
1429.000000	95.753751 
1428.000000	95.757158 
1427.000000	95.763357 
1426.000000	95.769890 
1425.000000	95.775212 
1424.000000	95.782235 
1423.000000	95.790402 
1422.000000	95.795344 
1421.000000	95.797403 
1420.000000	95.802623 
1419.000000	95.809176 
1418.000000	95.807378 
1417.000000	95.802019 
1416.000000	95.805804 
1415.000000	95.819900 
1414.000000	95.833904 
1413.000000	95.840859 
1412.000000	95.845078 
1411.000000	95.852453 
1410.000000	95.861512 
1409.000000	95.870096 
1408.000000	95.879532 
1407.000000	95.890672 
1406.000000	95.901261 
1405.000000	95.910566 
1404.000000	95.923505 
1403.000000	95.940359 
1402.000000	95.954996 
1401.000000	95.966376 
1400.000000	95.980632 
1399.000000	96.000654 
1398.000000	96.019824 
1397.000000	96.032326 
1396.000000	96.041277 
1395.000000	96.053740 
1394.000000	96.070882 
1393.000000	96.090034 
1392.000000	96.112016 
1391.000000	96.136750 
1390.000000	96.160279 
1389.000000	96.178518 
1388.000000	96.190764 
1387.000000	96.199400 
1386.000000	96.207492 
1385.000000	96.217785 
1384.000000	96.232609 
1383.000000	96.251078 
1382.000000	96.268874 
1381.000000	96.283025 
1380.000000	96.294305 
1379.000000	96.306131 
1378.000000	96.320970 
1377.000000	96.338305 
1376.000000	96.355607 
1375.000000	96.370376 
1374.000000	96.381591 
1373.000000	96.391544 
1372.000000	96.403765 
1371.000000	96.419542 
1370.000000	96.437157 
1369.000000	96.452658 
1368.000000	96.465153 
1367.000000	96.476814 
1366.000000	96.489426 
1365.000000	96.503278 
1364.000000	96.516659 
1363.000000	96.526259 
1362.000000	96.531469 
1361.000000	96.536423 
1360.000000	96.545596 
1359.000000	96.560031 
1358.000000	96.577110 
1357.000000	96.592738 
1356.000000	96.604719 
1355.000000	96.613630 
1354.000000	96.621429 
1353.000000	96.630310 
1352.000000	96.640194 
1351.000000	96.650044 
1350.000000	96.659780 
1349.000000	96.667962 
1348.000000	96.673832 
1347.000000	96.678673 
1346.000000	96.684993 
1345.000000	96.693353 
1344.000000	96.701982 
1343.000000	96.709206 
1342.000000	96.715180 
1341.000000	96.720157 
1340.000000	96.723140 
1339.000000	96.723860 
1338.000000	96.723960 
1337.000000	96.725166 
1336.000000	96.727688 
1335.000000	96.730702 
1334.000000	96.733926 
1333.000000	96.737753 
1332.000000	96.741697 
1331.000000	96.744507 
1330.000000	96.745831 
1329.000000	96.746754 
1328.000000	96.748469 
1327.000000	96.751287 
1326.000000	96.754159 
1325.000000	96.754655 
1324.000000	96.751920 
1323.000000	96.747282 
1322.000000	96.742734 
1321.000000	96.739770 
1320.000000	96.739418 
1319.000000	96.741621 
1318.000000	96.744806 
1317.000000	96.747308 
1316.000000	96.748523 
1315.000000	96.748135 
1314.000000	96.745618 
1313.000000	96.742113 
1312.000000	96.740770 
1311.000000	96.743256 
1310.000000	96.747107 
1309.000000	96.748799 
1308.000000	96.748077 
1307.000000	96.747734 
1306.000000	96.749629 
1305.000000	96.752480 
1304.000000	96.754683 
1303.000000	96.755570 
1302.000000	96.754578 
1301.000000	96.751404 
1300.000000	96.747818 
1299.000000	96.746794 
1298.000000	96.748970 
1297.000000	96.751434 
1296.000000	96.751002 
1295.000000	96.748026 
1294.000000	96.745740 
1293.000000	96.746699 
1292.000000	96.750369 
1291.000000	96.753811 
1290.000000	96.754542 
1289.000000	96.752735 
1288.000000	96.750368 
1287.000000	96.748464 
1286.000000	96.746136 
1285.000000	96.742959 
1284.000000	96.740774 
1283.000000	96.741307 
1282.000000	96.743171 
1281.000000	96.743145 
1280.000000	96.740368 
1279.000000	96.737706 
1278.000000	96.738467 
1277.000000	96.743053 
1276.000000	96.748830 
1275.000000	96.752649 
1274.000000	96.753166 
1273.000000	96.751701 
1272.000000	96.750922 
1271.000000	96.751909 
1270.000000	96.752760 
1269.000000	96.751041 
1268.000000	96.747164 
1267.000000	96.743663 
1266.000000	96.741589 
1265.000000	96.740281 
1264.000000	96.740173 
1263.000000	96.742763 
1262.000000	96.747403 
1261.000000	96.750732 
1260.000000	96.750964 
1259.000000	96.750752 
1258.000000	96.753332 
1257.000000	96.757542 
1256.000000	96.758803 
1255.000000	96.755071 
1254.000000	96.749956 
1253.000000	96.748617 
1252.000000	96.751054 
1251.000000	96.751661 
1250.000000	96.746168 
1249.000000	96.737322 
1248.000000	96.731769 
1247.000000	96.731972 
1246.000000	96.733741 
1245.000000	96.732392 
1244.000000	96.728041 
1243.000000	96.723428 
1242.000000	96.719618 
1241.000000	96.716282 
1240.000000	96.713713 
1239.000000	96.711619 
1238.000000	96.707536 
1237.000000	96.699251 
1236.000000	96.687765 
1235.000000	96.675582 
1234.000000	96.663182 
1233.000000	96.649356 
1232.000000	96.633839 
1231.000000	96.617158 
1230.000000	96.599093 
1229.000000	96.579566 
1228.000000	96.559379 
1227.000000	96.537464 
1226.000000	96.509272 
1225.000000	96.471249 
1224.000000	96.425798 
1223.000000	96.378482 
1222.000000	96.330760 
1221.000000	96.278856 
1220.000000	96.219741 
1219.000000	96.154837 
1218.000000	96.087371 
1217.000000	96.018899 
1216.000000	95.948761 
1215.000000	95.874653 
1214.000000	95.794030 
1213.000000	95.707691 
1212.000000	95.621214 
1211.000000	95.539203 
1210.000000	95.458859 
1209.000000	95.373387 
1208.000000	95.281336 
1207.000000	95.187993 
1206.000000	95.097442 
1205.000000	95.007912 
1204.000000	94.915973 
1203.000000	94.821026 
1202.000000	94.724438 
1201.000000	94.627700 
1200.000000	94.532537 
1199.000000	94.439834 
1198.000000	94.347587 
1197.000000	94.253037 
1196.000000	94.156819 
1195.000000	94.061674 
1194.000000	93.967281 
1193.000000	93.870074 
1192.000000	93.768340 
1191.000000	93.663605 
1190.000000	93.556887 
1189.000000	93.447478 
1188.000000	93.335692 
1187.000000	93.222887 
1186.000000	93.108500 
1185.000000	92.990763 
1184.000000	92.870077 
1183.000000	92.747899 
1182.000000	92.622999 
1181.000000	92.492992 
1180.000000	92.358594 
1179.000000	92.221663 
1178.000000	92.080051 
1177.000000	91.930035 
1176.000000	91.773016 
1175.000000	91.613886 
1174.000000	91.453497 
1173.000000	91.289307 
1172.000000	91.123017 
1171.000000	90.959710 
1170.000000	90.799089 
1169.000000	90.636079 
1168.000000	90.471829 
1167.000000	90.316504 
1166.000000	90.179999 
1165.000000	90.068491 
1164.000000	89.991522 
1163.000000	89.961852 
1162.000000	89.982825 
1161.000000	90.041319 
1160.000000	90.115183 
1159.000000	90.182163 
1158.000000	90.222273 
1157.000000	90.221617 
1156.000000	90.178560 
1155.000000	90.101678 
1154.000000	90.000130 
1153.000000	89.880428 
1152.000000	89.751690 
1151.000000	89.625165 
1150.000000	89.505553 
1149.000000	89.389625 
1148.000000	89.275458 
1147.000000	89.165577 
1146.000000	89.059125 
1145.000000	88.949439 
1144.000000	88.832945 
1143.000000	88.713503 
1142.000000	88.595065 
1141.000000	88.476923 
1140.000000	88.358718 
1139.000000	88.242864 
1138.000000	88.129246 
1137.000000	88.014392 
1136.000000	87.898006 
1135.000000	87.783217 
1134.000000	87.668824 
1133.000000	87.549254 
1132.000000	87.423989 
1131.000000	87.298763 
1130.000000	87.175559 
1129.000000	87.050026 
1128.000000	86.920907 
1127.000000	86.792909 
1126.000000	86.667543 
1125.000000	86.540058 
1124.000000	86.408475 
1123.000000	86.277059 
1122.000000	86.147897 
1121.000000	86.017706 
1120.000000	85.885883 
1119.000000	85.756772 
1118.000000	85.631051 
1117.000000	85.504354 
1116.000000	85.377034 
1115.000000	85.255445 
1114.000000	85.141001 
1113.000000	85.028306 
1112.000000	84.916312 
1111.000000	84.809690 
1110.000000	84.706848 
1109.000000	84.599141 
1108.000000	84.484482 
1107.000000	84.369447 
1106.000000	84.256315 
1105.000000	84.140316 
1104.000000	84.021356 
1103.000000	83.905669 
1102.000000	83.793071 
1101.000000	83.676647 
1100.000000	83.557142 
1099.000000	83.443370 
1098.000000	83.338377 
1097.000000	83.235722 
1096.000000	83.132693 
1095.000000	83.032783 
1094.000000	82.934097 
1093.000000	82.830250 
1092.000000	82.725084 
1091.000000	82.631271 
1090.000000	82.551493 
1089.000000	82.475539 
1088.000000	82.397984 
1087.000000	82.323280 
1086.000000	82.251689 
1085.000000	82.177052 
1084.000000	82.101437 
1083.000000	82.035209 
1082.000000	81.978778 
1081.000000	81.920227 
1080.000000	81.854465 
1079.000000	81.788606 
1078.000000	81.725257 
1077.000000	81.656880 
1076.000000	81.580091 
1075.000000	81.498824 
1074.000000	81.409909 
1073.000000	81.302236 
1072.000000	81.173281 
1071.000000	81.029552 
1070.000000	80.867774 
1069.000000	80.673915 
1068.000000	80.445925 
1067.000000	80.200807 
1066.000000	79.954125 
1065.000000	79.708205 
1064.000000	79.464782 
1063.000000	79.230294 
1062.000000	79.002068 
1061.000000	78.767368 
1060.000000	78.523617 
1059.000000	78.283554 
1058.000000	78.054623 
1057.000000	77.829618 
1056.000000	77.602680 
1055.000000	77.376933 
1054.000000	77.150815 
1053.000000	76.914891 
1052.000000	76.669268 
1051.000000	76.426590 
1050.000000	76.190924 
1049.000000	75.952952 
1048.000000	75.711396 
1047.000000	75.477048 
1046.000000	75.250967 
1045.000000	75.020721 
1044.000000	74.781866 
1043.000000	74.542825 
1042.000000	74.305690 
1041.000000	74.062762 
1040.000000	73.815930 
1039.000000	73.579069 
1038.000000	73.357013 
1037.000000	73.142339 
1036.000000	72.936019 
1035.000000	72.749547 
1034.000000	72.583172 
1033.000000	72.424337 
1032.000000	72.271201 
1031.000000	72.134910 
1030.000000	72.015436 
1029.000000	71.899555 
1028.000000	71.786945 
1027.000000	71.693301 
1026.000000	71.621974 
1025.000000	71.556740 
1024.000000	71.488165 
1023.000000	71.423361 
1022.000000	71.364134 
1021.000000	71.299941 
1020.000000	71.228493 
1019.000000	71.159920 
1018.000000	71.095103 
1017.000000	71.023142 
1016.000000	70.945031 
1015.000000	70.876062 
1014.000000	70.819833 
1013.000000	70.763600 
1012.000000	70.703621 
1011.000000	70.650607 
1010.000000	70.605761 
1009.000000	70.557263 
1008.000000	70.506236 
1007.000000	70.470635 
1006.000000	70.456879 
1005.000000	70.452050 
1004.000000	70.449777 
1003.000000	70.458798 
1002.000000	70.479615 
1001.000000	70.498376 
1000.000000	70.511846 
999.000000	 70.534485 
998.000000	 70.572956 
997.000000	 70.616653 
996.000000	 70.660179 
995.000000	 70.712305 
994.000000	 70.775856 
993.000000	 70.841265 
992.000000	 70.906286 
991.000000	 70.979911 
990.000000	 71.061598 
989.000000	 71.139697 
988.000000	 71.215595 
987.000000	 71.305747 
986.000000	 71.414359 
985.000000	 71.527978 
984.000000	 71.642469 
983.000000	 71.770909 
982.000000	 71.918407 
981.000000	 72.073641 
980.000000	 72.232112 
979.000000	 72.403586 
978.000000	 72.589093 
977.000000	 72.775017 
976.000000	 72.958606 
975.000000	 73.156099 
974.000000	 73.376303 
973.000000	 73.607990 
972.000000	 73.842003 
971.000000	 74.084467 
970.000000	 74.338569 
969.000000	 74.593456 
968.000000	 74.841143 
967.000000	 75.087029 
966.000000	 75.335652 
965.000000	 75.582952 
964.000000	 75.829210 
963.000000	 76.082346 
962.000000	 76.341899 
961.000000	 76.596236 
960.000000	 76.841138 
959.000000	 77.084769 
958.000000	 77.329707 
957.000000	 77.566951 
956.000000	 77.792493 
955.000000	 78.013357 
954.000000	 78.232911 
953.000000	 78.446123 
952.000000	 78.652571 
951.000000	 78.857396 
950.000000	 79.056610 
949.000000	 79.239096 
948.000000	 79.406209 
947.000000	 79.571538 
946.000000	 79.737824 
945.000000	 79.892425 
944.000000	 80.030028 
943.000000	 80.161575 
942.000000	 80.295632 
941.000000	 80.428268 
940.000000	 80.557104 
939.000000	 80.688170 
938.000000	 80.822756 
937.000000	 80.953456 
936.000000	 81.079048 
935.000000	 81.208163 
934.000000	 81.343541 
933.000000	 81.478083 
932.000000	 81.610714 
931.000000	 81.749961 
930.000000	 81.897022 
929.000000	 82.041183 
928.000000	 82.177261 
927.000000	 82.312400 
926.000000	 82.450499 
925.000000	 82.584279 
924.000000	 82.707529 
923.000000	 82.821659 
922.000000	 82.926937 
921.000000	 83.021506 
920.000000	 83.112005 
919.000000	 83.210001 
918.000000	 83.314120 
917.000000	 83.410379 
916.000000	 83.494119 
915.000000	 83.577653 
914.000000	 83.673061 
913.000000	 83.782025 
912.000000	 83.905458 
911.000000	 84.047792 
910.000000	 84.207901 
909.000000	 84.380164 
908.000000	 84.567429 
907.000000	 84.778889 
906.000000	 85.013650 
905.000000	 85.260844 
904.000000	 85.516161 
903.000000	 85.782321 
902.000000	 86.053437 
901.000000	 86.316775 
900.000000	 86.571503 
899.000000	 86.828924 
898.000000	 87.092684 
897.000000	 87.354375 
896.000000	 87.609138 
895.000000	 87.858721 
894.000000	 88.098698 
893.000000	 88.320289 
892.000000	 88.526598 
891.000000	 88.730295 
890.000000	 88.932890 
889.000000	 89.121908 
888.000000	 89.290030 
887.000000	 89.441196 
886.000000	 89.577392 
885.000000	 89.696681 
884.000000	 89.805563 
883.000000	 89.914938 
882.000000	 90.021737 
881.000000	 90.114355 
880.000000	 90.199494 
879.000000	 90.301926 
878.000000	 90.431430 
877.000000	 90.571494 
876.000000	 90.708564 
875.000000	 90.851482 
874.000000	 91.013195 
873.000000	 91.193906 
872.000000	 91.391930 
871.000000	 91.611334 
870.000000	 91.847806 
869.000000	 92.083746 
868.000000	 92.307848 
867.000000	 92.525945 
866.000000	 92.744990 
865.000000	 92.960073 
864.000000	 93.165051 
863.000000	 93.363195 
862.000000	 93.558864 
861.000000	 93.749026 
860.000000	 93.930321 
859.000000	 94.105191 
858.000000	 94.275163 
857.000000	 94.436898 
856.000000	 94.589443 
855.000000	 94.736246 
854.000000	 94.876105 
853.000000	 95.001823 
852.000000	 95.111846 
851.000000	 95.214158 
850.000000	 95.315544 
849.000000	 95.416155 
848.000000	 95.516303 
847.000000	 95.617338 
846.000000	 95.713290 
845.000000	 95.793640 
844.000000	 95.857709 
843.000000	 95.915068 
842.000000	 95.968660 
841.000000	 96.009136 
840.000000	 96.029364 
839.000000	 96.032747 
838.000000	 96.023893 
837.000000	 96.003665 
836.000000	 95.978375 
835.000000	 95.961632 
834.000000	 95.960062 
833.000000	 95.967020 
832.000000	 95.975930 
831.000000	 95.989443 
830.000000	 96.010263 
829.000000	 96.034748 
828.000000	 96.063204 
827.000000	 96.105411 
826.000000	 96.166634 
825.000000	 96.237169 
824.000000	 96.303555 
823.000000	 96.360804 
822.000000	 96.407899 
821.000000	 96.442635 
820.000000	 96.466388 
819.000000	 96.482824 
818.000000	 96.486692 
817.000000	 96.462714 
816.000000	 96.399358 
815.000000	 96.296484 
814.000000	 96.157337 
813.000000	 95.980557 
812.000000	 95.761388 
811.000000	 95.491144 
810.000000	 95.152670 
809.000000	 94.726609 
808.000000	 94.207884 
807.000000	 93.610430 
806.000000	 92.955419 
805.000000	 92.265018 
804.000000	 91.568965 
803.000000	 90.901533 
802.000000	 90.284492 
801.000000	 89.726426 
800.000000	 89.243743 
799.000000	 88.864824 
798.000000	 88.605385 
797.000000	 88.455565 
796.000000	 88.396552 
795.000000	 88.411791 
794.000000	 88.477540 
793.000000	 88.564106 
792.000000	 88.654881 
791.000000	 88.747530 
790.000000	 88.832319 
789.000000	 88.887482 
788.000000	 88.899407 
787.000000	 88.867733 
786.000000	 88.786384 
785.000000	 88.640177 
784.000000	 88.427778 
783.000000	 88.170999 
782.000000	 87.896204 
781.000000	 87.625084 
780.000000	 87.387592 
779.000000	 87.219712 
778.000000	 87.137614 
777.000000	 87.132894 
776.000000	 87.199686 
775.000000	 87.343409 
774.000000	 87.554381 
773.000000	 87.797489 
772.000000	 88.041085 
771.000000	 88.277389 
770.000000	 88.505565 
769.000000	 88.715878 
768.000000	 88.901479 
767.000000	 89.066475 
766.000000	 89.211402 
765.000000	 89.328955 
764.000000	 89.424938 
763.000000	 89.524938 
762.000000	 89.647250 
761.000000	 89.784193 
760.000000	 89.920600 
759.000000	 90.054675 
758.000000	 90.190094 
757.000000	 90.324834 
756.000000	 90.460939 
755.000000	 90.610185 
754.000000	 90.775518 
753.000000	 90.938259 
752.000000	 91.076450 
751.000000	 91.187395 
750.000000	 91.284506 
749.000000	 91.382350 
748.000000	 91.491514 
747.000000	 91.615820 
746.000000	 91.746169 
745.000000	 91.868020 
744.000000	 91.981920 
743.000000	 92.105736 
742.000000	 92.251135 
741.000000	 92.410535 
740.000000	 92.572708 
739.000000	 92.736695 
738.000000	 92.902727 
737.000000	 93.062544 
736.000000	 93.207615 
735.000000	 93.337059 
734.000000	 93.451577 
733.000000	 93.549915 
732.000000	 93.635576 
731.000000	 93.715628 
730.000000	 93.788336 
729.000000	 93.843425 
728.000000	 93.879952 
727.000000	 93.912419 
726.000000	 93.955381 
725.000000	 94.013827 
724.000000	 94.089596 
723.000000	 94.182493 
722.000000	 94.281997 
721.000000	 94.373065 
720.000000	 94.455188 
719.000000	 94.540975 
718.000000	 94.632319 
717.000000	 94.715658 
716.000000	 94.783501 
715.000000	 94.843484 
714.000000	 94.903067 
713.000000	 94.962390 
712.000000	 95.027260 
711.000000	 95.109799 
710.000000	 95.207956 
709.000000	 95.301275 
708.000000	 95.375396 
707.000000	 95.433739 
706.000000	 95.476628 
705.000000	 95.489002 
704.000000	 95.458798 
703.000000	 95.388142 
702.000000	 95.274046 
701.000000	 95.094490 
700.000000	 94.828600 
699.000000	 94.481801 
698.000000	 94.083712 
697.000000	 93.678685 
696.000000	 93.327552 
695.000000	 93.095864 
694.000000	 93.019810 
693.000000	 93.086194 
692.000000	 93.250642 
691.000000	 93.467601 
690.000000	 93.701196 
689.000000	 93.926599 
688.000000	 94.133976 
687.000000	 94.322866 
686.000000	 94.488932 
685.000000	 94.627344 
684.000000	 94.748349 
683.000000	 94.870545 
682.000000	 94.995779 
681.000000	 95.109977 
680.000000	 95.210764 
679.000000	 95.313278 
678.000000	 95.421706 
677.000000	 95.523051 
676.000000	 95.618099 
675.000000	 95.723051 
674.000000	 95.835766 
673.000000	 95.930202 
672.000000	 95.999735 
671.000000	 96.074683 
670.000000	 96.189981 
669.000000	 96.325682 
668.000000	 96.417106 
667.000000	 96.459240 
666.000000	 96.495809 
665.000000	 96.528085 
664.000000	 96.552390 
663.000000	 96.580966 
662.000000	 96.629630 
661.000000	 96.688332 
660.000000	 96.743475 
659.000000	 96.799027 
658.000000	 96.853496 
657.000000	 96.881309 
656.000000	 96.866938 
655.000000	 96.826480 
654.000000	 96.778995 
653.000000	 96.722694 
652.000000	 96.665298 
651.000000	 96.645107 
650.000000	 96.682489 

