4000.000000	96.203839 
3999.000000	96.202983 
3998.000000	96.200540 
3997.000000	96.197365 
3996.000000	96.194639 
3995.000000	96.193054 
3994.000000	96.192755 
3993.000000	96.193429 
3992.000000	96.194341 
3991.000000	96.194701 
3990.000000	96.194244 
3989.000000	96.193366 
3988.000000	96.192600 
3987.000000	96.192213 
3986.000000	96.192384 
3985.000000	96.193330 
3984.000000	96.194850 
3983.000000	96.196144 
3982.000000	96.196680 
3981.000000	96.196829 
3980.000000	96.197117 
3979.000000	96.197237 
3978.000000	96.196520 
3977.000000	96.195137 
3976.000000	96.194089 
3975.000000	96.193906 
3974.000000	96.193964 
3973.000000	96.193295 
3972.000000	96.191544 
3971.000000	96.189141 
3970.000000	96.186914 
3969.000000	96.185730 
3968.000000	96.186044 
3967.000000	96.187448 
3966.000000	96.188898 
3965.000000	96.189551 
3964.000000	96.189178 
3963.000000	96.187962 
3962.000000	96.186257 
3961.000000	96.184519 
3960.000000	96.183091 
3959.000000	96.182056 
3958.000000	96.181361 
3957.000000	96.181010 
3956.000000	96.180865 
3955.000000	96.180333 
3954.000000	96.178878 
3953.000000	96.176589 
3952.000000	96.174159 
3951.000000	96.172247 
3950.000000	96.170960 
3949.000000	96.170034 
3948.000000	96.169065 
3947.000000	96.167862 
3946.000000	96.166827 
3945.000000	96.166781 
3944.000000	96.168094 
3943.000000	96.169902 
3942.000000	96.170934 
3941.000000	96.170915 
3940.000000	96.170551 
3939.000000	96.170477 
3938.000000	96.170451 
3937.000000	96.169720 
3936.000000	96.167890 
3935.000000	96.165172 
3934.000000	96.162421 
3933.000000	96.160723 
3932.000000	96.160556 
3931.000000	96.161120 
3930.000000	96.161085 
3929.000000	96.160286 
3928.000000	96.159784 
3927.000000	96.160430 
3926.000000	96.161726 
3925.000000	96.162265 
3924.000000	96.161394 
3923.000000	96.159564 
3922.000000	96.157314 
3921.000000	96.155015 
3920.000000	96.153286 
3919.000000	96.152858 
3918.000000	96.153674 
3917.000000	96.154734 
3916.000000	96.155223 
3915.000000	96.155227 
3914.000000	96.155204 
3913.000000	96.155295 
3912.000000	96.155321 
3911.000000	96.155172 
3910.000000	96.154648 
3909.000000	96.153508 
3908.000000	96.151845 
3907.000000	96.149956 
3906.000000	96.148125 
3905.000000	96.146160 
3904.000000	96.143779 
3903.000000	96.141347 
3902.000000	96.139727 
3901.000000	96.139405 
3900.000000	96.140034 
3899.000000	96.140748 
3898.000000	96.140987 
3897.000000	96.140701 
3896.000000	96.140036 
3895.000000	96.139249 
3894.000000	96.138588 
3893.000000	96.138118 
3892.000000	96.137614 
3891.000000	96.136802 
3890.000000	96.135728 
3889.000000	96.134626 
3888.000000	96.133697 
3887.000000	96.132965 
3886.000000	96.132339 
3885.000000	96.131712 
3884.000000	96.131035 
3883.000000	96.130329 
3882.000000	96.129637 
3881.000000	96.128988 
3880.000000	96.128372 
3879.000000	96.127767 
3878.000000	96.127156 
3877.000000	96.126539 
3876.000000	96.125920 
3875.000000	96.125303 
3874.000000	96.124689 
3873.000000	96.124080 
3872.000000	96.123490 
3871.000000	96.122933 
3870.000000	96.122426 
3869.000000	96.121978 
3868.000000	96.121594 
3867.000000	96.121267 
3866.000000	96.120990 
3865.000000	96.120754 
3864.000000	96.120553 
3863.000000	96.120378 
3862.000000	96.120210 
3861.000000	96.120032 
3860.000000	96.119832 
3859.000000	96.119607 
3858.000000	96.119351 
3857.000000	96.119046 
3856.000000	96.118686 
3855.000000	96.118348 
3854.000000	96.118072 
3853.000000	96.117802 
3852.000000	96.117589 
3851.000000	96.117572 
3850.000000	96.117736 
3849.000000	96.118023 
3848.000000	96.118422 
3847.000000	96.118911 
3846.000000	96.119344 
3845.000000	96.119555 
3844.000000	96.119533 
3843.000000	96.119366 
3842.000000	96.119113 
3841.000000	96.118889 
3840.000000	96.118839 
3839.000000	96.119071 
3838.000000	96.119562 
3837.000000	96.120075 
3836.000000	96.120433 
3835.000000	96.120671 
3834.000000	96.120949 
3833.000000	96.121421 
3832.000000	96.122089 
3831.000000	96.122820 
3830.000000	96.123478 
3829.000000	96.124037 
3828.000000	96.124632 
3827.000000	96.125364 
3826.000000	96.126039 
3825.000000	96.126378 
3824.000000	96.126349 
3823.000000	96.126324 
3822.000000	96.126764 
3821.000000	96.127603 
3820.000000	96.128310 
3819.000000	96.128525 
3818.000000	96.128442 
3817.000000	96.128731 
3816.000000	96.129973 
3815.000000	96.132108 
3814.000000	96.134367 
3813.000000	96.135948 
3812.000000	96.136654 
3811.000000	96.137049 
3810.000000	96.137804 
3809.000000	96.138987 
3808.000000	96.140071 
3807.000000	96.140401 
3806.000000	96.139589 
3805.000000	96.137602 
3804.000000	96.134896 
3803.000000	96.133270 
3802.000000	96.134475 
3801.000000	96.137737 
3800.000000	96.140445 
3799.000000	96.140920 
3798.000000	96.140062 
3797.000000	96.140670 
3796.000000	96.144474 
3795.000000	96.150108 
3794.000000	96.154490 
3793.000000	96.156202 
3792.000000	96.156614 
3791.000000	96.158037 
3790.000000	96.160512 
3789.000000	96.161760 
3788.000000	96.160592 
3787.000000	96.158587 
3786.000000	96.157928 
3785.000000	96.158562 
3784.000000	96.158523 
3783.000000	96.156744 
3782.000000	96.154074 
3781.000000	96.152358 
3780.000000	96.152951 
3779.000000	96.155655 
3778.000000	96.158652 
3777.000000	96.160093 
3776.000000	96.159363 
3775.000000	96.156982 
3774.000000	96.153899 
3773.000000	96.150986 
3772.000000	96.148983 
3771.000000	96.147744 
3770.000000	96.146050 
3769.000000	96.143138 
3768.000000	96.139566 
3767.000000	96.136585 
3766.000000	96.135399 
3765.000000	96.135693 
3764.000000	96.135994 
3763.000000	96.134869 
3762.000000	96.131877 
3761.000000	96.128556 
3760.000000	96.127375 
3759.000000	96.129225 
3758.000000	96.129809 
3757.000000	96.123241 
3756.000000	96.109129 
3755.000000	96.091360 
3754.000000	96.073752 
3753.000000	96.058628 
3752.000000	96.049074 
3751.000000	96.046887 
3750.000000	96.046317 
3749.000000	96.039828 
3748.000000	96.028266 
3747.000000	96.019840 
3746.000000	96.023600 
3745.000000	96.038827 
3744.000000	96.057001 
3743.000000	96.070005 
3742.000000	96.071113 
3741.000000	96.057902 
3740.000000	96.037735 
3739.000000	96.025101 
3738.000000	96.027881 
3737.000000	96.038122 
3736.000000	96.045388 
3735.000000	96.050022 
3734.000000	96.057251 
3733.000000	96.065043 
3732.000000	96.068323 
3731.000000	96.067562 
3730.000000	96.064447 
3729.000000	96.058239 
3728.000000	96.050122 
3727.000000	96.044427 
3726.000000	96.043957 
3725.000000	96.045720 
3724.000000	96.044846 
3723.000000	96.040911 
3722.000000	96.037244 
3721.000000	96.035565 
3720.000000	96.032382 
3719.000000	96.025587 
3718.000000	96.016757 
3717.000000	96.006411 
3716.000000	95.993474 
3715.000000	95.975344 
3714.000000	95.951085 
3713.000000	95.924456 
3712.000000	95.900324 
3711.000000	95.879893 
3710.000000	95.860094 
3709.000000	95.838456 
3708.000000	95.814801 
3707.000000	95.788005 
3706.000000	95.757010 
3705.000000	95.722809 
3704.000000	95.687933 
3703.000000	95.653809 
3702.000000	95.617835 
3701.000000	95.576765 
3700.000000	95.532366 
3699.000000	95.491875 
3698.000000	95.462848 
3697.000000	95.446668 
3696.000000	95.438993 
3695.000000	95.433996 
3694.000000	95.427129 
3693.000000	95.417938 
3692.000000	95.410031 
3691.000000	95.406651 
3690.000000	95.404308 
3689.000000	95.397001 
3688.000000	95.386063 
3687.000000	95.376678 
3686.000000	95.369222 
3685.000000	95.359572 
3684.000000	95.345095 
3683.000000	95.327875 
3682.000000	95.310450 
3681.000000	95.289066 
3680.000000	95.256526 
3679.000000	95.209515 
3678.000000	95.152752 
3677.000000	95.093170 
3676.000000	95.031973 
3675.000000	94.971103 
3674.000000	94.914523 
3673.000000	94.861270 
3672.000000	94.807962 
3671.000000	94.757428 
3670.000000	94.712706 
3669.000000	94.670537 
3668.000000	94.625943 
3667.000000	94.578347 
3666.000000	94.532643 
3665.000000	94.492230 
3664.000000	94.453243 
3663.000000	94.409290 
3662.000000	94.357259 
3661.000000	94.297979 
3660.000000	94.234587 
3659.000000	94.168748 
3658.000000	94.100319 
3657.000000	94.027868 
3656.000000	93.952835 
3655.000000	93.882162 
3654.000000	93.820069 
3653.000000	93.762825 
3652.000000	93.701198 
3651.000000	93.625772 
3650.000000	93.532831 
3649.000000	93.430737 
3648.000000	93.338464 
3647.000000	93.271592 
3646.000000	93.232593 
3645.000000	93.213100 
3644.000000	93.200813 
3643.000000	93.185597 
3642.000000	93.161500 
3641.000000	93.126595 
3640.000000	93.082803 
3639.000000	93.033526 
3638.000000	92.982005 
3637.000000	92.929386 
3636.000000	92.874758 
3635.000000	92.817581 
3634.000000	92.760769 
3633.000000	92.709799 
3632.000000	92.664684 
3631.000000	92.614588 
3630.000000	92.543676 
3629.000000	92.451242 
3628.000000	92.363649 
3627.000000	92.308594 
3626.000000	92.288071 
3625.000000	92.289279 
3624.000000	92.301189 
3623.000000	92.316709 
3622.000000	92.329729 
3621.000000	92.334913 
3620.000000	92.331099 
3619.000000	92.324830 
3618.000000	92.327500 
3617.000000	92.347784 
3616.000000	92.388264 
3615.000000	92.444900 
3614.000000	92.507213 
3613.000000	92.563668 
3612.000000	92.608650 
3611.000000	92.642891 
3610.000000	92.670073 
3609.000000	92.694827 
3608.000000	92.721423 
3607.000000	92.752908 
3606.000000	92.790055 
3605.000000	92.832242 
3604.000000	92.878470 
3603.000000	92.925824 
3602.000000	92.969033 
3601.000000	93.002953 
3600.000000	93.026566 
3599.000000	93.044097 
3598.000000	93.061470 
3597.000000	93.081659 
3596.000000	93.104597 
3595.000000	93.127290 
3594.000000	93.146104 
3593.000000	93.161171 
3592.000000	93.175163 
3591.000000	93.189392 
3590.000000	93.202498 
3589.000000	93.211553 
3588.000000	93.214740 
3587.000000	93.214349 
3586.000000	93.216659 
3585.000000	93.227114 
3584.000000	93.247142 
3583.000000	93.273925 
3582.000000	93.302274 
3581.000000	93.326157 
3580.000000	93.341421 
3579.000000	93.347883 
3578.000000	93.348838 
3577.000000	93.348520 
3576.000000	93.349059 
3575.000000	93.350188 
3574.000000	93.350321 
3573.000000	93.348717 
3572.000000	93.345377 
3571.000000	93.339506 
3570.000000	93.329362 
3569.000000	93.314199 
3568.000000	93.296436 
3567.000000	93.281312 
3566.000000	93.273311 
3565.000000	93.273244 
3564.000000	93.279098 
3563.000000	93.288655 
3562.000000	93.300024 
3561.000000	93.311086 
3560.000000	93.319369 
3559.000000	93.323186 
3558.000000	93.322901 
3557.000000	93.320800 
3556.000000	93.319173 
3555.000000	93.318545 
3554.000000	93.317708 
3553.000000	93.315174 
3552.000000	93.311025 
3551.000000	93.306660 
3550.000000	93.303326 
3549.000000	93.301436 
3548.000000	93.300746 
3547.000000	93.299971 
3546.000000	93.297304 
3545.000000	93.292659 
3544.000000	93.289231 
3543.000000	93.290918 
3542.000000	93.298206 
3541.000000	93.307821 
3540.000000	93.315992 
3539.000000	93.320978 
3538.000000	93.322966 
3537.000000	93.322844 
3536.000000	93.321872 
3535.000000	93.321026 
3534.000000	93.320541 
3533.000000	93.320343 
3532.000000	93.320721 
3531.000000	93.322117 
3530.000000	93.324016 
3529.000000	93.324843 
3528.000000	93.323282 
3527.000000	93.319641 
3526.000000	93.315764 
3525.000000	93.313670 
3524.000000	93.314313 
3523.000000	93.317280 
3522.000000	93.321264 
3521.000000	93.325056 
3520.000000	93.328406 
3519.000000	93.331594 
3518.000000	93.334503 
3517.000000	93.336259 
3516.000000	93.336178 
3515.000000	93.334758 
3514.000000	93.333503 
3513.000000	93.333649 
3512.000000	93.334927 
3511.000000	93.335694 
3510.000000	93.334531 
3509.000000	93.331859 
3508.000000	93.329721 
3507.000000	93.329757 
3506.000000	93.331487 
3505.000000	93.332627 
3504.000000	93.331157 
3503.000000	93.327015 
3502.000000	93.322084 
3501.000000	93.318723 
3500.000000	93.318289 
3499.000000	93.320595 
3498.000000	93.324065 
3497.000000	93.326527 
3496.000000	93.326411 
3495.000000	93.323689 
3494.000000	93.319826 
3493.000000	93.316596 
3492.000000	93.314536 
3491.000000	93.312516 
3490.000000	93.309226 
3489.000000	93.304876 
3488.000000	93.300832 
3487.000000	93.297783 
3486.000000	93.295168 
3485.000000	93.292499 
3484.000000	93.290161 
3483.000000	93.288337 
3482.000000	93.286193 
3481.000000	93.283139 
3480.000000	93.280066 
3479.000000	93.278112 
3478.000000	93.276612 
3477.000000	93.273510 
3476.000000	93.267676 
3475.000000	93.260101 
3474.000000	93.252750 
3473.000000	93.246759 
3472.000000	93.241901 
3471.000000	93.237190 
3470.000000	93.231749 
3469.000000	93.225535 
3468.000000	93.219453 
3467.000000	93.214694 
3466.000000	93.211791 
3465.000000	93.210027 
3464.000000	93.207663 
3463.000000	93.202890 
3462.000000	93.195063 
3461.000000	93.185344 
3460.000000	93.175914 
3459.000000	93.168111 
3458.000000	93.161433 
3457.000000	93.154414 
3456.000000	93.146458 
3455.000000	93.138492 
3454.000000	93.132086 
3453.000000	93.127989 
3452.000000	93.125520 
3451.000000	93.123226 
3450.000000	93.119764 
3449.000000	93.114353 
3448.000000	93.106702 
3447.000000	93.097088 
3446.000000	93.086561 
3445.000000	93.076872 
3444.000000	93.069661 
3443.000000	93.065314 
3442.000000	93.062433 
3441.000000	93.058652 
3440.000000	93.052382 
3439.000000	93.043682 
3438.000000	93.033674 
3437.000000	93.023551 
3436.000000	93.014485 
3435.000000	93.007775 
3434.000000	93.004278 
3433.000000	93.003319 
3432.000000	93.002756 
3431.000000	93.000724 
3430.000000	92.996847 
3429.000000	92.991792 
3428.000000	92.986087 
3427.000000	92.979955 
3426.000000	92.974108 
3425.000000	92.969831 
3424.000000	92.967663 
3423.000000	92.966062 
3422.000000	92.962336 
3421.000000	92.955517 
3420.000000	92.947812 
3419.000000	92.942393 
3418.000000	92.940236 
3417.000000	92.940045 
3416.000000	92.940553 
3415.000000	92.941449 
3414.000000	92.942013 
3413.000000	92.940491 
3412.000000	92.935956 
3411.000000	92.930045 
3410.000000	92.925805 
3409.000000	92.925076 
3408.000000	92.927387 
3407.000000	92.930787 
3406.000000	92.933306 
3405.000000	92.934050 
3404.000000	92.933617 
3403.000000	92.933233 
3402.000000	92.933409 
3401.000000	92.933673 
3400.000000	92.933587 
3399.000000	92.933324 
3398.000000	92.933076 
3397.000000	92.932736 
3396.000000	92.932597 
3395.000000	92.933685 
3394.000000	92.936675 
3393.000000	92.940779 
3392.000000	92.944313 
3391.000000	92.946374 
3390.000000	92.947654 
3389.000000	92.949684 
3388.000000	92.953706 
3387.000000	92.959990 
3386.000000	92.967515 
3385.000000	92.974065 
3384.000000	92.977463 
3383.000000	92.977519 
3382.000000	92.976776 
3381.000000	92.978468 
3380.000000	92.983314 
3379.000000	92.988964 
3378.000000	92.993124 
3377.000000	92.996689 
3376.000000	93.002389 
3375.000000	93.010669 
3374.000000	93.018587 
3373.000000	93.023352 
3372.000000	93.025750 
3371.000000	93.029029 
3370.000000	93.035206 
3369.000000	93.043535 
3368.000000	93.052010 
3367.000000	93.059140 
3366.000000	93.064297 
3365.000000	93.067509 
3364.000000	93.069565 
3363.000000	93.071884 
3362.000000	93.075765 
3361.000000	93.081789 
3360.000000	93.089871 
3359.000000	93.099430 
3358.000000	93.109396 
3357.000000	93.118542 
3356.000000	93.126205 
3355.000000	93.132669 
3354.000000	93.138751 
3353.000000	93.145155 
3352.000000	93.152196 
3351.000000	93.159857 
3350.000000	93.167891 
3349.000000	93.175952 
3348.000000	93.183852 
3347.000000	93.191675 
3346.000000	93.199558 
3345.000000	93.207282 
3344.000000	93.214235 
3343.000000	93.219903 
3342.000000	93.224473 
3341.000000	93.228963 
3340.000000	93.234404 
3339.000000	93.240874 
3338.000000	93.247651 
3337.000000	93.254157 
3336.000000	93.260512 
3335.000000	93.267148 
3334.000000	93.274201 
3333.000000	93.281457 
3332.000000	93.288710 
3331.000000	93.295955 
3330.000000	93.303247 
3329.000000	93.310538 
3328.000000	93.317747 
3327.000000	93.324879 
3326.000000	93.332011 
3325.000000	93.339178 
3324.000000	93.346334 
3323.000000	93.353433 
3322.000000	93.360503 
3321.000000	93.367606 
3320.000000	93.374751 
3319.000000	93.381900 
3318.000000	93.389032 
3317.000000	93.396147 
3316.000000	93.403250 
3315.000000	93.410348 
3314.000000	93.417445 
3313.000000	93.424548 
3312.000000	93.431663 
3311.000000	93.438798 
3310.000000	93.445956 
3309.000000	93.453133 
3308.000000	93.460321 
3307.000000	93.467513 
3306.000000	93.474704 
3305.000000	93.481901 
3304.000000	93.489116 
3303.000000	93.496360 
3302.000000	93.503639 
3301.000000	93.510948 
3300.000000	93.518278 
3299.000000	93.525617 
3298.000000	93.532954 
3297.000000	93.540280 
3296.000000	93.547609 
3295.000000	93.554975 
3294.000000	93.562406 
3293.000000	93.569898 
3292.000000	93.577421 
3291.000000	93.584959 
3290.000000	93.592511 
3289.000000	93.600070 
3288.000000	93.607609 
3287.000000	93.615103 
3286.000000	93.622539 
3285.000000	93.629911 
3284.000000	93.637223 
3283.000000	93.644529 
3282.000000	93.651933 
3281.000000	93.659521 
3280.000000	93.667258 
3279.000000	93.674993 
3278.000000	93.682621 
3277.000000	93.690194 
3276.000000	93.697843 
3275.000000	93.705601 
3274.000000	93.713382 
3273.000000	93.721151 
3272.000000	93.729007 
3271.000000	93.737055 
3270.000000	93.745248 
3269.000000	93.753392 
3268.000000	93.761312 
3267.000000	93.768995 
3266.000000	93.776613 
3265.000000	93.784410 
3264.000000	93.792504 
3263.000000	93.800796 
3262.000000	93.809060 
3261.000000	93.817160 
3260.000000	93.825122 
3259.000000	93.833017 
3258.000000	93.840872 
3257.000000	93.848741 
3256.000000	93.856757 
3255.000000	93.864957 
3254.000000	93.873152 
3253.000000	93.881147 
3252.000000	93.889040 
3251.000000	93.897131 
3250.000000	93.905545 
3249.000000	93.914071 
3248.000000	93.922396 
3247.000000	93.930479 
3246.000000	93.938591 
3245.000000	93.947002 
3244.000000	93.955717 
3243.000000	93.964500 
3242.000000	93.973124 
3241.000000	93.981558 
3240.000000	93.989909 
3239.000000	93.998283 
3238.000000	94.006750 
3237.000000	94.015399 
3236.000000	94.024297 
3235.000000	94.033350 
3234.000000	94.042288 
3233.000000	94.050890 
3232.000000	94.059158 
3231.000000	94.067294 
3230.000000	94.075498 
3229.000000	94.083853 
3228.000000	94.092396 
3227.000000	94.101205 
3226.000000	94.110343 
3225.000000	94.119717 
3224.000000	94.129063 
3223.000000	94.138152 
3222.000000	94.146959 
3221.000000	94.155647 
3220.000000	94.164393 
3219.000000	94.173204 
3218.000000	94.181974 
3217.000000	94.190647 
3216.000000	94.199283 
3215.000000	94.207992 
3214.000000	94.216847 
3213.000000	94.225849 
3212.000000	94.234922 
3211.000000	94.243940 
3210.000000	94.252814 
3209.000000	94.261569 
3208.000000	94.270320 
3207.000000	94.279138 
3206.000000	94.287981 
3205.000000	94.296771 
3204.000000	94.305520 
3203.000000	94.314337 
3202.000000	94.323279 
3201.000000	94.332241 
3200.000000	94.341067 
3199.000000	94.349768 
3198.000000	94.358561 
3197.000000	94.367608 
3196.000000	94.376770 
3195.000000	94.385709 
3194.000000	94.394286 
3193.000000	94.402770 
3192.000000	94.411553 
3191.000000	94.420641 
3190.000000	94.429570 
3189.000000	94.437921 
3188.000000	94.445821 
3187.000000	94.453871 
3186.000000	94.462558 
3185.000000	94.471840 
3184.000000	94.481229 
3183.000000	94.490286 
3182.000000	94.499062 
3181.000000	94.507870 
3180.000000	94.516714 
3179.000000	94.525211 
3178.000000	94.533226 
3177.000000	94.541264 
3176.000000	94.549968 
3175.000000	94.559403 
3174.000000	94.569126 
3173.000000	94.578745 
3172.000000	94.588051 
3171.000000	94.596745 
3170.000000	94.604563 
3169.000000	94.611761 
3168.000000	94.619037 
3167.000000	94.626899 
3166.000000	94.635300 
3165.000000	94.643898 
3164.000000	94.652309 
3163.000000	94.660176 
3162.000000	94.667342 
3161.000000	94.674059 
3160.000000	94.680812 
3159.000000	94.687878 
3158.000000	94.695276 
3157.000000	94.703070 
3156.000000	94.711364 
3155.000000	94.719947 
3154.000000	94.728308 
3153.000000	94.736202 
3152.000000	94.743916 
3151.000000	94.751778 
3150.000000	94.759565 
3149.000000	94.766686 
3148.000000	94.772904 
3147.000000	94.778725 
3146.000000	94.785111 
3145.000000	94.792728 
3144.000000	94.801411 
3143.000000	94.810181 
3142.000000	94.817986 
3141.000000	94.824570 
3140.000000	94.830590 
3139.000000	94.836978 
3138.000000	94.844155 
3137.000000	94.851829 
3136.000000	94.859291 
3135.000000	94.865901 
3134.000000	94.871549 
3133.000000	94.876815 
3132.000000	94.882506 
3131.000000	94.888944 
3130.000000	94.895895 
3129.000000	94.903146 
3128.000000	94.910782 
3127.000000	94.918860 
3126.000000	94.927097 
3125.000000	94.935042 
3124.000000	94.942355 
3123.000000	94.948826 
3122.000000	94.954414 
3121.000000	94.959426 
3120.000000	94.964407 
3119.000000	94.969626 
3118.000000	94.974925 
3117.000000	94.980268 
3116.000000	94.986102 
3115.000000	94.992844 
3114.000000	95.000251 
3113.000000	95.007654 
3112.000000	95.014767 
3111.000000	95.021929 
3110.000000	95.029495 
3109.000000	95.037194 
3108.000000	95.044287 
3107.000000	95.050292 
3106.000000	95.055247 
3105.000000	95.059310 
3104.000000	95.062420 
3103.000000	95.064672 
3102.000000	95.066780 
3101.000000	95.069661 
3100.000000	95.073586 
3099.000000	95.078232 
3098.000000	95.083651 
3097.000000	95.090591 
3096.000000	95.099388 
3095.000000	95.108935 
3094.000000	95.117473 
3093.000000	95.124204 
3092.000000	95.129489 
3091.000000	95.133694 
3090.000000	95.136673 
3089.000000	95.138503 
3088.000000	95.140027 
3087.000000	95.142455 
3086.000000	95.146662 
3085.000000	95.152786 
3084.000000	95.159946 
3083.000000	95.166520 
3082.000000	95.171456 
3081.000000	95.175318 
3080.000000	95.179448 
3079.000000	95.184071 
3078.000000	95.188219 
3077.000000	95.191582 
3076.000000	95.195242 
3075.000000	95.199994 
3074.000000	95.204983 
3073.000000	95.208916 
3072.000000	95.211886 
3071.000000	95.215028 
3070.000000	95.218808 
3069.000000	95.222719 
3068.000000	95.226415 
3067.000000	95.230100 
3066.000000	95.233782 
3065.000000	95.237042 
3064.000000	95.239692 
3063.000000	95.241962 
3062.000000	95.243974 
3061.000000	95.245655 
3060.000000	95.247263 
3059.000000	95.249445 
3058.000000	95.252649 
3057.000000	95.256822 
3056.000000	95.261554 
3055.000000	95.266029 
3054.000000	95.269124 
3053.000000	95.270424 
3052.000000	95.271232 
3051.000000	95.273723 
3050.000000	95.278583 
3049.000000	95.284090 
3048.000000	95.287920 
3047.000000	95.289444 
3046.000000	95.289793 
3045.000000	95.290328 
3044.000000	95.291737 
3043.000000	95.294381 
3042.000000	95.298512 
3041.000000	95.303602 
3040.000000	95.308026 
3039.000000	95.310209 
3038.000000	95.310162 
3037.000000	95.309472 
3036.000000	95.309595 
3035.000000	95.310427 
3034.000000	95.310966 
3033.000000	95.310927 
3032.000000	95.311049 
3031.000000	95.311963 
3030.000000	95.313533 
3029.000000	95.315374 
3028.000000	95.317135 
3027.000000	95.318015 
3026.000000	95.316940 
3025.000000	95.313982 
3024.000000	95.311049 
3023.000000	95.310219 
3022.000000	95.311668 
3021.000000	95.314114 
3020.000000	95.316815 
3019.000000	95.319971 
3018.000000	95.323122 
3017.000000	95.324526 
3016.000000	95.322882 
3015.000000	95.318995 
3014.000000	95.315337 
3013.000000	95.314085 
3012.000000	95.315534 
3011.000000	95.317827 
3010.000000	95.318217 
3009.000000	95.315302 
3008.000000	95.310241 
3007.000000	95.305566 
3006.000000	95.302764 
3005.000000	95.301564 
3004.000000	95.301243 
3003.000000	95.301583 
3002.000000	95.302439 
3001.000000	95.303337 
3000.000000	95.303916 
2999.000000	95.304020 
2998.000000	95.303102 
2997.000000	95.300455 
2996.000000	95.296469 
2995.000000	95.292839 
2994.000000	95.290869 
2993.000000	95.290053 
2992.000000	95.288791 
2991.000000	95.286125 
2990.000000	95.282410 
2989.000000	95.278824 
2988.000000	95.276759 
2987.000000	95.277333 
2986.000000	95.280891 
2985.000000	95.286922 
2984.000000	95.294473 
2983.000000	95.302439 
2982.000000	95.309579 
2981.000000	95.314787 
2980.000000	95.317558 
2979.000000	95.317929 
2978.000000	95.316102 
2977.000000	95.312746 
2976.000000	95.309644 
2975.000000	95.309161 
2974.000000	95.312567 
2973.000000	95.319213 
2972.000000	95.327386 
2971.000000	95.335478 
2970.000000	95.342221 
2969.000000	95.346794 
2968.000000	95.349455 
2967.000000	95.351606 
2966.000000	95.354560 
2965.000000	95.358478 
2964.000000	95.362855 
2963.000000	95.367557 
2962.000000	95.372802 
2961.000000	95.378453 
2960.000000	95.384036 
2959.000000	95.389451 
2958.000000	95.395211 
2957.000000	95.401786 
2956.000000	95.408820 
2955.000000	95.415020 
2954.000000	95.418978 
2953.000000	95.420586 
2952.000000	95.421676 
2951.000000	95.424727 
2950.000000	95.430422 
2949.000000	95.436846 
2948.000000	95.441490 
2947.000000	95.443682 
2946.000000	95.444750 
2945.000000	95.446314 
2944.000000	95.448980 
2943.000000	95.452369 
2942.000000	95.455531 
2941.000000	95.457327 
2940.000000	95.457273 
2939.000000	95.456426 
2938.000000	95.456854 
2937.000000	95.459662 
2936.000000	95.463784 
2935.000000	95.467015 
2934.000000	95.468010 
2933.000000	95.467016 
2932.000000	95.465202 
2931.000000	95.463856 
2930.000000	95.464066 
2929.000000	95.466434 
2928.000000	95.470583 
2927.000000	95.475116 
2926.000000	95.478593 
2925.000000	95.480816 
2924.000000	95.482954 
2923.000000	95.486273 
2922.000000	95.490771 
2921.000000	95.495197 
2920.000000	95.498513 
2919.000000	95.501158 
2918.000000	95.504537 
2917.000000	95.509213 
2916.000000	95.513978 
2915.000000	95.517103 
2914.000000	95.518316 
2913.000000	95.519020 
2912.000000	95.520593 
2911.000000	95.522939 
2910.000000	95.525096 
2909.000000	95.526811 
2908.000000	95.528888 
2907.000000	95.531975 
2906.000000	95.535590 
2905.000000	95.538513 
2904.000000	95.540004 
2903.000000	95.540426 
2902.000000	95.541311 
2901.000000	95.544108 
2900.000000	95.549111 
2899.000000	95.555388 
2898.000000	95.561645 
2897.000000	95.567381 
2896.000000	95.572699 
2895.000000	95.577342 
2894.000000	95.580728 
2893.000000	95.583107 
2892.000000	95.585863 
2891.000000	95.590068 
2890.000000	95.595273 
2889.000000	95.600315 
2888.000000	95.604845 
2887.000000	95.609262 
2886.000000	95.613430 
2885.000000	95.616606 
2884.000000	95.618831 
2883.000000	95.621449 
2882.000000	95.625615 
2881.000000	95.630892 
2880.000000	95.635948 
2879.000000	95.640387 
2878.000000	95.645042 
2877.000000	95.650529 
2876.000000	95.656293 
2875.000000	95.661376 
2874.000000	95.665491 
2873.000000	95.668912 
2872.000000	95.671830 
2871.000000	95.674353 
2870.000000	95.676876 
2869.000000	95.679939 
2868.000000	95.683718 
2867.000000	95.687936 
2866.000000	95.692270 
2865.000000	95.696583 
2864.000000	95.700779 
2863.000000	95.704824 
2862.000000	95.708998 
2861.000000	95.713705 
2860.000000	95.718835 
2859.000000	95.723664 
2858.000000	95.727670 
2857.000000	95.731243 
2856.000000	95.735296 
2855.000000	95.740213 
2854.000000	95.745423 
2853.000000	95.750090 
2852.000000	95.753980 
2851.000000	95.757489 
2850.000000	95.761100 
2849.000000	95.765030 
2848.000000	95.769293 
2847.000000	95.773779 
2846.000000	95.778230 
2845.000000	95.782360 
2844.000000	95.786111 
2843.000000	95.789744 
2842.000000	95.793587 
2841.000000	95.797666 
2840.000000	95.801581 
2839.000000	95.804828 
2838.000000	95.807319 
2837.000000	95.809545 
2836.000000	95.812220 
2835.000000	95.815712 
2834.000000	95.819924 
2833.000000	95.824625 
2832.000000	95.829663 
2831.000000	95.834763 
2830.000000	95.839320 
2829.000000	95.842712 
2828.000000	95.844863 
2827.000000	95.846436 
2826.000000	95.848412 
2825.000000	95.851367 
2824.000000	95.855144 
2823.000000	95.859029 
2822.000000	95.862283 
2821.000000	95.864660 
2820.000000	95.866458 
2819.000000	95.868184 
2818.000000	95.870192 
2817.000000	95.872620 
2816.000000	95.875498 
2815.000000	95.878720 
2814.000000	95.881966 
2813.000000	95.884806 
2812.000000	95.887008 
2811.000000	95.888714 
2810.000000	95.890356 
2809.000000	95.892358 
2808.000000	95.894882 
2807.000000	95.897814 
2806.000000	95.900906 
2805.000000	95.903932 
2804.000000	95.906734 
2803.000000	95.909210 
2802.000000	95.911379 
2801.000000	95.913464 
2800.000000	95.915763 
2799.000000	95.918350 
2798.000000	95.920946 
2797.000000	95.923204 
2796.000000	95.925065 
2795.000000	95.926789 
2794.000000	95.928678 
2793.000000	95.930802 
2792.000000	95.933043 
2791.000000	95.935261 
2790.000000	95.937390 
2789.000000	95.939430 
2788.000000	95.941420 
2787.000000	95.943419 
2786.000000	95.945491 
2785.000000	95.947663 
2784.000000	95.949895 
2783.000000	95.952105 
2782.000000	95.954234 
2781.000000	95.956299 
2780.000000	95.958372 
2779.000000	95.960510 
2778.000000	95.962705 
2777.000000	95.964886 
2776.000000	95.966967 
2775.000000	95.968918 
2774.000000	95.970794 
2773.000000	95.972679 
2772.000000	95.974599 
2771.000000	95.976514 
2770.000000	95.978410 
2769.000000	95.980351 
2768.000000	95.982398 
2767.000000	95.984503 
2766.000000	95.986533 
2765.000000	95.988424 
2764.000000	95.990242 
2763.000000	95.992065 
2762.000000	95.993854 
2761.000000	95.995510 
2760.000000	95.997042 
2759.000000	95.998620 
2758.000000	96.000397 
2757.000000	96.002314 
2756.000000	96.004124 
2755.000000	96.005666 
2754.000000	96.007070 
2753.000000	96.008628 
2752.000000	96.010442 
2751.000000	96.012330 
2750.000000	96.014110 
2749.000000	96.015856 
2748.000000	96.017664 
2747.000000	96.019301 
2746.000000	96.020433 
2745.000000	96.021098 
2744.000000	96.021738 
2743.000000	96.022759 
2742.000000	96.024170 
2741.000000	96.025738 
2740.000000	96.027248 
2739.000000	96.028641 
2738.000000	96.029925 
2737.000000	96.031114 
2736.000000	96.032261 
2735.000000	96.033465 
2734.000000	96.034783 
2733.000000	96.036184 
2732.000000	96.037599 
2731.000000	96.038975 
2730.000000	96.040301 
2729.000000	96.041608 
2728.000000	96.042944 
2727.000000	96.044296 
2726.000000	96.045580 
2725.000000	96.046736 
2724.000000	96.047803 
2723.000000	96.048873 
2722.000000	96.049967 
2721.000000	96.051045 
2720.000000	96.052105 
2719.000000	96.053198 
2718.000000	96.054356 
2717.000000	96.055546 
2716.000000	96.056689 
2715.000000	96.057756 
2714.000000	96.058825 
2713.000000	96.060010 
2712.000000	96.061303 
2711.000000	96.062557 
2710.000000	96.063640 
2709.000000	96.064574 
2708.000000	96.065515 
2707.000000	96.066603 
2706.000000	96.067890 
2705.000000	96.069336 
2704.000000	96.070813 
2703.000000	96.072084 
2702.000000	96.072939 
2701.000000	96.073499 
2700.000000	96.074323 
2699.000000	96.075971 
2698.000000	96.078373 
2697.000000	96.080700 
2696.000000	96.082040 
2695.000000	96.082202 
2694.000000	96.081834 
2693.000000	96.081790 
2692.000000	96.082365 
2691.000000	96.083224 
2690.000000	96.083897 
2689.000000	96.084210 
2688.000000	96.084275 
2687.000000	96.084289 
2686.000000	96.084512 
2685.000000	96.085272 
2684.000000	96.086683 
2683.000000	96.088318 
2682.000000	96.089485 
2681.000000	96.089987 
2680.000000	96.090381 
2679.000000	96.091353 
2678.000000	96.093006 
2677.000000	96.094924 
2676.000000	96.096584 
2675.000000	96.097461 
2674.000000	96.097076 
2673.000000	96.095495 
2672.000000	96.093666 
2671.000000	96.092668 
2670.000000	96.092634 
2669.000000	96.092867 
2668.000000	96.092887 
2667.000000	96.092818 
2666.000000	96.092701 
2665.000000	96.092089 
2664.000000	96.090731 
2663.000000	96.089194 
2662.000000	96.088332 
2661.000000	96.088230 
2660.000000	96.088115 
2659.000000	96.087298 
2658.000000	96.085906 
2657.000000	96.084676 
2656.000000	96.084202 
2655.000000	96.084435 
2654.000000	96.084770 
2653.000000	96.084560 
2652.000000	96.083692 
2651.000000	96.082683 
2650.000000	96.082187 
2649.000000	96.082399 
2648.000000	96.082941 
2647.000000	96.083233 
2646.000000	96.082884 
2645.000000	96.081825 
2644.000000	96.080296 
2643.000000	96.078818 
2642.000000	96.077930 
2641.000000	96.077802 
2640.000000	96.078151 
2639.000000	96.078535 
2638.000000	96.078711 
2637.000000	96.078661 
2636.000000	96.078443 
2635.000000	96.078184 
2634.000000	96.078072 
2633.000000	96.078197 
2632.000000	96.078397 
2631.000000	96.078397 
2630.000000	96.078105 
2629.000000	96.077710 
2628.000000	96.077462 
2627.000000	96.077422 
2626.000000	96.077512 
2625.000000	96.077709 
2624.000000	96.078080 
2623.000000	96.078636 
2622.000000	96.079229 
2621.000000	96.079626 
2620.000000	96.079634 
2619.000000	96.079187 
2618.000000	96.078434 
2617.000000	96.077762 
2616.000000	96.077564 
2615.000000	96.077946 
2614.000000	96.078661 
2613.000000	96.079337 
2612.000000	96.079798 
2611.000000	96.080141 
2610.000000	96.080580 
2609.000000	96.081232 
2608.000000	96.081956 
2607.000000	96.082409 
2606.000000	96.082437 
2605.000000	96.082318 
2604.000000	96.082451 
2603.000000	96.082836 
2602.000000	96.083122 
2601.000000	96.083133 
2600.000000	96.083010 
2599.000000	96.082797 
2598.000000	96.082346 
2597.000000	96.081809 
2596.000000	96.081732 
2595.000000	96.082279 
2594.000000	96.082793 
2593.000000	96.082689 
2592.000000	96.082528 
2591.000000	96.083381 
2590.000000	96.085339 
2589.000000	96.087271 
2588.000000	96.088252 
2587.000000	96.088602 
2586.000000	96.089207 
2585.000000	96.090344 
2584.000000	96.091600 
2583.000000	96.092528 
2582.000000	96.092940 
2581.000000	96.092868 
2580.000000	96.092587 
2579.000000	96.092536 
2578.000000	96.092966 
2577.000000	96.093690 
2576.000000	96.094310 
2575.000000	96.094569 
2574.000000	96.094456 
2573.000000	96.094090 
2572.000000	96.093503 
2571.000000	96.092483 
2570.000000	96.090888 
2569.000000	96.089303 
2568.000000	96.088959 
2567.000000	96.090463 
2566.000000	96.092818 
2565.000000	96.094272 
2564.000000	96.094276 
2563.000000	96.093862 
2562.000000	96.094087 
2561.000000	96.094979 
2560.000000	96.096306 
2559.000000	96.098399 
2558.000000	96.101371 
2557.000000	96.104181 
2556.000000	96.105608 
2555.000000	96.105849 
2554.000000	96.106188 
2553.000000	96.107057 
2552.000000	96.107565 
2551.000000	96.107338 
2550.000000	96.107584 
2549.000000	96.109287 
2548.000000	96.111144 
2547.000000	96.110921 
2546.000000	96.108523 
2545.000000	96.106305 
2544.000000	96.105922 
2543.000000	96.106122 
2542.000000	96.104777 
2541.000000	96.101963 
2540.000000	96.099869 
2539.000000	96.099911 
2538.000000	96.101279 
2537.000000	96.102481 
2536.000000	96.103297 
2535.000000	96.104457 
2534.000000	96.105973 
2533.000000	96.106828 
2532.000000	96.106298 
2531.000000	96.104833 
2530.000000	96.103410 
2529.000000	96.102439 
2528.000000	96.101653 
2527.000000	96.100834 
2526.000000	96.100240 
2525.000000	96.100251 
2524.000000	96.100868 
2523.000000	96.101724 
2522.000000	96.102509 
2521.000000	96.103209 
2520.000000	96.103958 
2519.000000	96.104809 
2518.000000	96.105632 
2517.000000	96.106060 
2516.000000	96.105560 
2515.000000	96.103882 
2514.000000	96.101633 
2513.000000	96.100133 
2512.000000	96.100320 
2511.000000	96.102068 
2510.000000	96.104623 
2509.000000	96.107348 
2508.000000	96.109746 
2507.000000	96.111233 
2506.000000	96.111655 
2505.000000	96.111892 
2504.000000	96.113176 
2503.000000	96.115602 
2502.000000	96.117854 
2501.000000	96.118732 
2500.000000	96.118443 
2499.000000	96.118137 
2498.000000	96.118539 
2497.000000	96.119471 
2496.000000	96.120542 
2495.000000	96.121625 
2494.000000	96.122625 
2493.000000	96.123291 
2492.000000	96.123549 
2491.000000	96.123789 
2490.000000	96.124553 
2489.000000	96.125942 
2488.000000	96.127451 
2487.000000	96.128469 
2486.000000	96.128925 
2485.000000	96.129381 
2484.000000	96.130427 
2483.000000	96.132034 
2482.000000	96.133621 
2481.000000	96.134730 
2480.000000	96.135489 
2479.000000	96.136344 
2478.000000	96.137527 
2477.000000	96.138885 
2476.000000	96.140053 
2475.000000	96.140651 
2474.000000	96.140461 
2473.000000	96.139697 
2472.000000	96.138945 
2471.000000	96.138643 
2470.000000	96.138767 
2469.000000	96.139141 
2468.000000	96.139793 
2467.000000	96.140780 
2466.000000	96.141776 
2465.000000	96.142158 
2464.000000	96.141666 
2463.000000	96.140885 
2462.000000	96.140945 
2461.000000	96.142666 
2460.000000	96.145896 
2459.000000	96.149475 
2458.000000	96.151952 
2457.000000	96.152499 
2456.000000	96.151188 
2455.000000	96.148800 
2454.000000	96.146476 
2453.000000	96.145113 
2452.000000	96.144786 
2451.000000	96.144817 
2450.000000	96.144648 
2449.000000	96.144535 
2448.000000	96.145005 
2447.000000	96.145929 
2446.000000	96.146694 
2445.000000	96.147144 
2444.000000	96.147714 
2443.000000	96.148653 
2442.000000	96.149773 
2441.000000	96.150938 
2440.000000	96.152234 
2439.000000	96.153725 
2438.000000	96.155583 
2437.000000	96.158269 
2436.000000	96.161816 
2435.000000	96.165095 
2434.000000	96.166687 
2433.000000	96.166537 
2432.000000	96.166091 
2431.000000	96.166660 
2430.000000	96.168324 
2429.000000	96.170477 
2428.000000	96.172537 
2427.000000	96.173897 
2426.000000	96.174029 
2425.000000	96.173083 
2424.000000	96.171968 
2423.000000	96.171513 
2422.000000	96.171939 
2421.000000	96.173221 
2420.000000	96.175352 
2419.000000	96.178033 
2418.000000	96.180553 
2417.000000	96.182512 
2416.000000	96.184229 
2415.000000	96.186085 
2414.000000	96.187906 
2413.000000	96.189521 
2412.000000	96.191345 
2411.000000	96.193611 
2410.000000	96.195566 
2409.000000	96.196434 
2408.000000	96.196684 
2407.000000	96.197437 
2406.000000	96.198941 
2405.000000	96.200336 
2404.000000	96.200836 
2403.000000	96.200489 
2402.000000	96.199940 
2401.000000	96.199949 
2400.000000	96.201044 
2399.000000	96.203221 
2398.000000	96.206004 
2397.000000	96.208979 
2396.000000	96.211986 
2395.000000	96.214561 
2394.000000	96.215785 
2393.000000	96.215359 
2392.000000	96.214537 
2391.000000	96.215162 
2390.000000	96.217662 
2389.000000	96.220711 
2388.000000	96.222852 
2387.000000	96.223802 
2386.000000	96.224049 
2385.000000	96.224060 
2384.000000	96.224252 
2383.000000	96.225087 
2382.000000	96.226754 
2381.000000	96.229205 
2380.000000	96.232694 
2379.000000	96.237559 
2378.000000	96.242909 
2377.000000	96.246325 
2376.000000	96.245920 
2375.000000	96.242230 
2374.000000	96.237431 
2373.000000	96.232923 
2372.000000	96.228985 
2371.000000	96.226549 
2370.000000	96.227183 
2369.000000	96.230478 
2368.000000	96.232810 
2367.000000	96.230630 
2366.000000	96.224664 
2365.000000	96.219683 
2364.000000	96.219213 
2363.000000	96.221946 
2362.000000	96.224194 
2361.000000	96.224240 
2360.000000	96.223188 
2359.000000	96.222176 
2358.000000	96.221052 
2357.000000	96.220353 
2356.000000	96.221326 
2355.000000	96.224110 
2354.000000	96.226164 
2353.000000	96.225517 
2352.000000	96.223438 
2351.000000	96.220068 
2350.000000	96.213828 
2349.000000	96.205444 
2348.000000	96.199029 
2347.000000	96.195522 
2346.000000	96.190697 
2345.000000	96.183887 
2344.000000	96.177649 
2343.000000	96.173369 
2342.000000	96.172144 
2341.000000	96.176100 
2340.000000	96.184855 
2339.000000	96.193263 
2338.000000	96.196335 
2337.000000	96.194322 
2336.000000	96.191791 
2335.000000	96.191369 
2334.000000	96.189828 
2333.000000	96.181928 
2332.000000	96.168043 
2331.000000	96.153097 
2330.000000	96.140757 
2329.000000	96.128372 
2328.000000	96.112463 
2327.000000	96.093526 
2326.000000	96.074237 
2325.000000	96.058331 
2324.000000	96.048925 
2323.000000	96.047681 
2322.000000	96.050865 
2321.000000	96.052104 
2320.000000	96.050570 
2319.000000	96.052208 
2318.000000	96.061588 
2317.000000	96.075028 
2316.000000	96.085249 
2315.000000	96.088176 
2314.000000	96.084888 
2313.000000	96.078335 
2312.000000	96.071654 
2311.000000	96.067195 
2310.000000	96.064941 
2309.000000	96.062720 
2308.000000	96.059454 
2307.000000	96.057451 
2306.000000	96.059147 
2305.000000	96.063562 
2304.000000	96.067427 
2303.000000	96.069391 
2302.000000	96.070959 
2301.000000	96.073668 
2300.000000	96.077176 
2299.000000	96.079639 
2298.000000	96.079248 
2297.000000	96.075238 
2296.000000	96.068935 
2295.000000	96.063564 
2294.000000	96.061824 
2293.000000	96.063492 
2292.000000	96.065924 
2291.000000	96.067271 
2290.000000	96.068192 
2289.000000	96.070616 
2288.000000	96.074942 
2287.000000	96.079397 
2286.000000	96.081905 
2285.000000	96.082479 
2284.000000	96.083058 
2283.000000	96.085042 
2282.000000	96.087781 
2281.000000	96.089886 
2280.000000	96.091031 
2279.000000	96.091622 
2278.000000	96.091632 
2277.000000	96.090879 
2276.000000	96.090166 
2275.000000	96.090814 
2274.000000	96.093106 
2273.000000	96.096205 
2272.000000	96.099613 
2271.000000	96.103524 
2270.000000	96.107507 
2269.000000	96.110245 
2268.000000	96.111214 
2267.000000	96.111497 
2266.000000	96.112248 
2265.000000	96.113256 
2264.000000	96.113507 
2263.000000	96.112360 
2262.000000	96.109830 
2261.000000	96.106532 
2260.000000	96.103661 
2259.000000	96.102241 
2258.000000	96.102156 
2257.000000	96.102689 
2256.000000	96.104005 
2255.000000	96.107008 
2254.000000	96.111445 
2253.000000	96.115166 
2252.000000	96.116178 
2251.000000	96.114328 
2250.000000	96.110563 
2249.000000	96.105796 
2248.000000	96.101177 
2247.000000	96.098307 
2246.000000	96.097936 
2245.000000	96.099033 
2244.000000	96.099609 
2243.000000	96.098666 
2242.000000	96.096773 
2241.000000	96.095077 
2240.000000	96.094324 
2239.000000	96.094609 
2238.000000	96.095438 
2237.000000	96.095987 
2236.000000	96.095743 
2235.000000	96.094885 
2234.000000	96.093933 
2233.000000	96.093181 
2232.000000	96.092589 
2231.000000	96.092008 
2230.000000	96.091309 
2229.000000	96.090406 
2228.000000	96.089355 
2227.000000	96.088333 
2226.000000	96.087445 
2225.000000	96.086633 
2224.000000	96.085766 
2223.000000	96.084785 
2222.000000	96.083758 
2221.000000	96.082797 
2220.000000	96.081908 
2219.000000	96.081023 
2218.000000	96.080093 
2217.000000	96.079124 
2216.000000	96.078140 
2215.000000	96.077149 
2214.000000	96.076144 
2213.000000	96.075132 
2212.000000	96.074131 
2211.000000	96.073163 
2210.000000	96.072249 
2209.000000	96.071388 
2208.000000	96.070559 
2207.000000	96.069741 
2206.000000	96.068902 
2205.000000	96.067994 
2204.000000	96.067049 
2203.000000	96.066278 
2202.000000	96.065941 
2201.000000	96.066028 
2200.000000	96.065962 
2199.000000	96.064893 
2198.000000	96.062522 
2197.000000	96.059696 
2196.000000	96.057799 
2195.000000	96.057222 
2194.000000	96.056959 
2193.000000	96.056130 
2192.000000	96.055269 
2191.000000	96.055166 
2190.000000	96.055083 
2189.000000	96.053575 
2188.000000	96.050800 
2187.000000	96.048217 
2186.000000	96.045960 
2185.000000	96.042712 
2184.000000	96.039152 
2183.000000	96.039186 
2182.000000	96.045621 
2181.000000	96.055719 
2180.000000	96.062724 
2179.000000	96.062599 
2178.000000	96.057422 
2177.000000	96.052934 
2176.000000	96.053227 
2175.000000	96.057844 
2174.000000	96.063205 
2173.000000	96.066269 
2172.000000	96.066933 
2171.000000	96.066954 
2170.000000	96.067069 
2169.000000	96.066140 
2168.000000	96.063289 
2167.000000	96.059636 
2166.000000	96.056671 
2165.000000	96.053595 
2164.000000	96.048081 
2163.000000	96.040489 
2162.000000	96.036383 
2161.000000	96.043076 
2160.000000	96.062993 
2159.000000	96.090173 
2158.000000	96.114135 
2157.000000	96.129044 
2156.000000	96.136822 
2155.000000	96.141862 
2154.000000	96.146058 
2153.000000	96.149522 
2152.000000	96.152505 
2151.000000	96.153903 
2150.000000	96.150559 
2149.000000	96.141951 
2148.000000	96.134163 
2147.000000	96.134649 
2146.000000	96.143046 
2145.000000	96.151313 
2144.000000	96.154078 
2143.000000	96.154821 
2142.000000	96.159674 
2141.000000	96.168956 
2140.000000	96.178096 
2139.000000	96.184715 
2138.000000	96.191047 
2137.000000	96.199599 
2136.000000	96.209053 
2135.000000	96.214910 
2134.000000	96.213375 
2133.000000	96.205247 
2132.000000	96.196417 
2131.000000	96.192878 
2130.000000	96.194905 
2129.000000	96.197350 
2128.000000	96.195723 
2127.000000	96.190663 
2126.000000	96.186225 
2125.000000	96.185454 
2124.000000	96.188323 
2123.000000	96.192473 
2122.000000	96.194711 
2121.000000	96.192747 
2120.000000	96.186687 
2119.000000	96.178669 
2118.000000	96.171005 
2117.000000	96.165028 
2116.000000	96.161066 
2115.000000	96.158233 
2114.000000	96.154417 
2113.000000	96.148452 
2112.000000	96.142674 
2111.000000	96.141098 
2110.000000	96.144612 
2109.000000	96.149925 
2108.000000	96.153676 
2107.000000	96.155510 
2106.000000	96.156426 
2105.000000	96.156891 
2104.000000	96.157747 
2103.000000	96.160185 
2102.000000	96.163070 
2101.000000	96.162686 
2100.000000	96.157409 
2099.000000	96.150999 
2098.000000	96.149059 
2097.000000	96.153069 
2096.000000	96.159952 
2095.000000	96.165880 
2094.000000	96.169061 
2093.000000	96.169331 
2092.000000	96.167246 
2091.000000	96.164201 
2090.000000	96.162124 
2089.000000	96.162001 
2088.000000	96.162982 
2087.000000	96.163282 
2086.000000	96.161838 
2085.000000	96.159015 
2084.000000	96.156080 
2083.000000	96.154057 
2082.000000	96.153011 
2081.000000	96.152433 
2080.000000	96.152133 
2079.000000	96.152392 
2078.000000	96.153144 
2077.000000	96.153560 
2076.000000	96.152966 
2075.000000	96.151780 
2074.000000	96.150899 
2073.000000	96.150353 
2072.000000	96.149290 
2071.000000	96.147268 
2070.000000	96.144923 
2069.000000	96.143287 
2068.000000	96.142841 
2067.000000	96.143312 
2066.000000	96.143978 
2065.000000	96.143999 
2064.000000	96.142877 
2063.000000	96.140857 
2062.000000	96.138900 
2061.000000	96.138082 
2060.000000	96.138864 
2059.000000	96.140890 
2058.000000	96.143137 
2057.000000	96.144401 
2056.000000	96.143900 
2055.000000	96.141443 
2054.000000	96.137579 
2053.000000	96.133606 
2052.000000	96.131007 
2051.000000	96.130375 
2050.000000	96.131025 
2049.000000	96.131733 
2048.000000	96.132048 
2047.000000	96.132505 
2046.000000	96.133591 
2045.000000	96.135132 
2044.000000	96.136727 
2043.000000	96.138152 
2042.000000	96.139166 
2041.000000	96.139475 
2040.000000	96.139292 
2039.000000	96.139548 
2038.000000	96.141017 
2037.000000	96.143359 
2036.000000	96.145470 
2035.000000	96.146713 
2034.000000	96.147559 
2033.000000	96.149096 
2032.000000	96.151935 
2031.000000	96.155318 
2030.000000	96.157285 
2029.000000	96.156342 
2028.000000	96.153054 
2027.000000	96.149698 
2026.000000	96.148009 
2025.000000	96.148052 
2024.000000	96.149357 
2023.000000	96.152170 
2022.000000	96.156962 
2021.000000	96.162965 
2020.000000	96.167917 
2019.000000	96.169522 
2018.000000	96.166892 
2017.000000	96.161266 
2016.000000	96.155705 
2015.000000	96.152851 
2014.000000	96.152467 
2013.000000	96.151721 
2012.000000	96.148822 
2011.000000	96.145969 
2010.000000	96.146971 
2009.000000	96.152406 
2008.000000	96.158574 
2007.000000	96.161727 
2006.000000	96.161784 
2005.000000	96.160912 
2004.000000	96.160498 
2003.000000	96.160706 
2002.000000	96.161758 
2001.000000	96.163483 
2000.000000	96.164093 
1999.000000	96.161001 
1998.000000	96.153163 
1997.000000	96.142708 
1996.000000	96.134014 
1995.000000	96.130428 
1994.000000	96.131726 
1993.000000	96.134336 
1992.000000	96.134482 
1991.000000	96.131874 
1990.000000	96.129663 
1989.000000	96.130650 
1988.000000	96.134049 
1987.000000	96.135839 
1986.000000	96.132434 
1985.000000	96.124196 
1984.000000	96.115221 
1983.000000	96.109248 
1982.000000	96.106409 
1981.000000	96.104771 
1980.000000	96.104488 
1979.000000	96.108018 
1978.000000	96.115521 
1977.000000	96.122966 
1976.000000	96.126565 
1975.000000	96.127222 
1974.000000	96.128654 
1973.000000	96.132975 
1972.000000	96.139366 
1971.000000	96.145503 
1970.000000	96.148886 
1969.000000	96.147679 
1968.000000	96.141924 
1967.000000	96.134333 
1966.000000	96.129005 
1965.000000	96.128421 
1964.000000	96.132304 
1963.000000	96.138759 
1962.000000	96.145798 
1961.000000	96.151895 
1960.000000	96.155741 
1959.000000	96.156352 
1958.000000	96.154117 
1957.000000	96.151344 
1956.000000	96.150556 
1955.000000	96.151992 
1954.000000	96.153640 
1953.000000	96.153845 
1952.000000	96.152743 
1951.000000	96.151152 
1950.000000	96.149720 
1949.000000	96.149437 
1948.000000	96.151542 
1947.000000	96.155911 
1946.000000	96.160174 
1945.000000	96.161673 
1944.000000	96.159871 
1943.000000	96.156253 
1942.000000	96.152755 
1941.000000	96.150389 
1940.000000	96.149264 
1939.000000	96.149012 
1938.000000	96.149031 
1937.000000	96.149057 
1936.000000	96.149406 
1935.000000	96.150147 
1934.000000	96.150484 
1933.000000	96.149851 
1932.000000	96.149043 
1931.000000	96.149278 
1930.000000	96.150455 
1929.000000	96.151056 
1928.000000	96.150317 
1927.000000	96.149163 
1926.000000	96.148680 
1925.000000	96.148576 
1924.000000	96.147636 
1923.000000	96.145427 
1922.000000	96.142629 
1921.000000	96.139990 
1920.000000	96.137914 
1919.000000	96.136538 
1918.000000	96.135372 
1917.000000	96.133405 
1916.000000	96.130330 
1915.000000	96.127335 
1914.000000	96.125809 
1913.000000	96.125709 
1912.000000	96.125631 
1911.000000	96.124503 
1910.000000	96.122549 
1909.000000	96.120427 
1908.000000	96.118538 
1907.000000	96.116961 
1906.000000	96.115409 
1905.000000	96.113115 
1904.000000	96.109405 
1903.000000	96.105031 
1902.000000	96.101695 
1901.000000	96.099943 
1900.000000	96.098923 
1899.000000	96.097988 
1898.000000	96.097332 
1897.000000	96.096963 
1896.000000	96.095892 
1895.000000	96.093303 
1894.000000	96.089637 
1893.000000	96.085870 
1892.000000	96.082596 
1891.000000	96.080081 
1890.000000	96.078351 
1889.000000	96.077137 
1888.000000	96.076256 
1887.000000	96.076086 
1886.000000	96.076820 
1885.000000	96.077159 
1884.000000	96.075186 
1883.000000	96.070963 
1882.000000	96.067021 
1881.000000	96.065491 
1880.000000	96.066136 
1879.000000	96.066915 
1878.000000	96.065898 
1877.000000	96.063203 
1876.000000	96.060961 
1875.000000	96.061271 
1874.000000	96.064403 
1873.000000	96.068612 
1872.000000	96.072023 
1871.000000	96.074211 
1870.000000	96.075119 
1869.000000	96.074063 
1868.000000	96.071281 
1867.000000	96.069090 
1866.000000	96.069089 
1865.000000	96.069782 
1864.000000	96.069060 
1863.000000	96.067865 
1862.000000	96.069085 
1861.000000	96.073285 
1860.000000	96.077941 
1859.000000	96.081152 
1858.000000	96.083596 
1857.000000	96.086063 
1856.000000	96.088089 
1855.000000	96.089433 
1854.000000	96.090564 
1853.000000	96.091252 
1852.000000	96.091579 
1851.000000	96.093212 
1850.000000	96.097142 
1849.000000	96.101840 
1848.000000	96.104802 
1847.000000	96.105907 
1846.000000	96.107025 
1845.000000	96.108922 
1844.000000	96.110554 
1843.000000	96.111530 
1842.000000	96.112578 
1841.000000	96.114081 
1840.000000	96.116271 
1839.000000	96.119071 
1838.000000	96.121589 
1837.000000	96.122328 
1836.000000	96.120699 
1835.000000	96.118409 
1834.000000	96.117720 
1833.000000	96.119007 
1832.000000	96.121286 
1831.000000	96.122868 
1830.000000	96.122071 
1829.000000	96.119465 
1828.000000	96.117481 
1827.000000	96.117611 
1826.000000	96.119332 
1825.000000	96.120883 
1824.000000	96.121158 
1823.000000	96.120545 
1822.000000	96.120178 
1821.000000	96.120501 
1820.000000	96.120913 
1819.000000	96.120816 
1818.000000	96.120995 
1817.000000	96.122339 
1816.000000	96.123444 
1815.000000	96.122999 
1814.000000	96.122218 
1813.000000	96.123293 
1812.000000	96.125575 
1811.000000	96.125311 
1810.000000	96.121858 
1809.000000	96.118579 
1808.000000	96.117104 
1807.000000	96.116602 
1806.000000	96.117201 
1805.000000	96.119469 
1804.000000	96.121237 
1803.000000	96.119138 
1802.000000	96.112382 
1801.000000	96.104542 
1800.000000	96.099682 
1799.000000	96.098471 
1798.000000	96.100725 
1797.000000	96.104840 
1796.000000	96.107205 
1795.000000	96.106805 
1794.000000	96.106639 
1793.000000	96.109321 
1792.000000	96.112350 
1791.000000	96.112110 
1790.000000	96.111153 
1789.000000	96.113781 
1788.000000	96.120211 
1787.000000	96.127378 
1786.000000	96.133151 
1785.000000	96.137453 
1784.000000	96.140294 
1783.000000	96.142819 
1782.000000	96.145737 
1781.000000	96.148382 
1780.000000	96.150802 
1779.000000	96.153936 
1778.000000	96.159333 
1777.000000	96.165652 
1776.000000	96.169952 
1775.000000	96.171820 
1774.000000	96.172611 
1773.000000	96.173695 
1772.000000	96.175782 
1771.000000	96.177544 
1770.000000	96.177635 
1769.000000	96.177708 
1768.000000	96.179661 
1767.000000	96.182758 
1766.000000	96.185112 
1765.000000	96.187379 
1764.000000	96.191887 
1763.000000	96.197292 
1762.000000	96.199169 
1761.000000	96.197959 
1760.000000	96.197979 
1759.000000	96.200030 
1758.000000	96.201353 
1757.000000	96.198995 
1756.000000	96.196297 
1755.000000	96.196547 
1754.000000	96.196945 
1753.000000	96.194362 
1752.000000	96.191121 
1751.000000	96.192846 
1750.000000	96.199609 
1749.000000	96.204909 
1748.000000	96.205480 
1747.000000	96.204955 
1746.000000	96.205065 
1745.000000	96.205138 
1744.000000	96.205359 
1743.000000	96.204718 
1742.000000	96.201923 
1741.000000	96.199299 
1740.000000	96.200437 
1739.000000	96.204460 
1738.000000	96.205991 
1737.000000	96.203724 
1736.000000	96.201413 
1735.000000	96.200476 
1734.000000	96.198563 
1733.000000	96.195752 
1732.000000	96.194418 
1731.000000	96.196767 
1730.000000	96.202809 
1729.000000	96.206395 
1728.000000	96.205622 
1727.000000	96.203451 
1726.000000	96.201799 
1725.000000	96.199640 
1724.000000	96.196119 
1723.000000	96.191651 
1722.000000	96.188343 
1721.000000	96.187464 
1720.000000	96.190142 
1719.000000	96.194231 
1718.000000	96.193593 
1717.000000	96.186582 
1716.000000	96.173469 
1715.000000	96.156294 
1714.000000	96.143496 
1713.000000	96.137936 
1712.000000	96.133723 
1711.000000	96.127811 
1710.000000	96.122395 
1709.000000	96.118059 
1708.000000	96.113526 
1707.000000	96.109014 
1706.000000	96.105121 
1705.000000	96.099548 
1704.000000	96.085967 
1703.000000	96.064206 
1702.000000	96.040817 
1701.000000	96.025262 
1700.000000	96.018980 
1699.000000	96.011894 
1698.000000	96.003242 
1697.000000	95.997273 
1696.000000	95.989712 
1695.000000	95.977433 
1694.000000	95.963905 
1693.000000	95.952040 
1692.000000	95.942649 
1691.000000	95.933027 
1690.000000	95.920450 
1689.000000	95.904628 
1688.000000	95.889023 
1687.000000	95.877491 
1686.000000	95.871367 
1685.000000	95.866650 
1684.000000	95.852949 
1683.000000	95.833682 
1682.000000	95.817649 
1681.000000	95.802169 
1680.000000	95.787362 
1679.000000	95.773341 
1678.000000	95.760019 
1677.000000	95.744912 
1676.000000	95.728001 
1675.000000	95.711619 
1674.000000	95.695485 
1673.000000	95.678496 
1672.000000	95.664106 
1671.000000	95.654527 
1670.000000	95.644025 
1669.000000	95.625508 
1668.000000	95.605217 
1667.000000	95.591742 
1666.000000	95.582621 
1665.000000	95.573008 
1664.000000	95.561046 
1663.000000	95.546920 
1662.000000	95.529807 
1661.000000	95.507313 
1660.000000	95.484164 
1659.000000	95.467271 
1658.000000	95.457627 
1657.000000	95.448943 
1656.000000	95.441057 
1655.000000	95.435414 
1654.000000	95.416281 
1653.000000	95.371607 
1652.000000	95.332851 
1651.000000	95.314626 
1650.000000	95.303076 
1649.000000	95.300961 
1648.000000	95.295879 
1647.000000	95.278013 
1646.000000	95.253744 
1645.000000	95.239949 
1644.000000	95.232127 
1643.000000	95.226761 
1642.000000	95.224359 
1641.000000	95.223800 
1640.000000	95.223218 
1639.000000	95.221876 
1638.000000	95.220967 
1637.000000	95.217113 
1636.000000	95.204264 
1635.000000	95.193768 
1634.000000	95.198019 
1633.000000	95.209839 
1632.000000	95.221387 
1631.000000	95.233597 
1630.000000	95.249601 
1629.000000	95.267228 
1628.000000	95.282134 
1627.000000	95.296684 
1626.000000	95.315223 
1625.000000	95.337548 
1624.000000	95.361169 
1623.000000	95.385109 
1622.000000	95.409055 
1621.000000	95.429287 
1620.000000	95.447480 
1619.000000	95.471236 
1618.000000	95.502278 
1617.000000	95.528563 
1616.000000	95.541512 
1615.000000	95.551981 
1614.000000	95.568803 
1613.000000	95.589640 
1612.000000	95.609794 
1611.000000	95.629602 
1610.000000	95.650606 
1609.000000	95.670906 
1608.000000	95.690720 
1607.000000	95.714024 
1606.000000	95.739269 
1605.000000	95.759991 
1604.000000	95.776866 
1603.000000	95.794878 
1602.000000	95.814124 
1601.000000	95.830840 
1600.000000	95.845514 
1599.000000	95.862293 
1598.000000	95.880830 
1597.000000	95.897246 
1596.000000	95.910618 
1595.000000	95.923787 
1594.000000	95.938004 
1593.000000	95.950806 
1592.000000	95.961312 
1591.000000	95.972277 
1590.000000	95.984931 
1589.000000	95.996716 
1588.000000	96.007206 
1587.000000	96.019806 
1586.000000	96.035063 
1585.000000	96.047370 
1584.000000	96.055241 
1583.000000	96.064584 
1582.000000	96.076944 
1581.000000	96.087763 
1580.000000	96.096591 
1579.000000	96.109998 
1578.000000	96.130684 
1577.000000	96.150460 
1576.000000	96.159222 
1575.000000	96.160349 
1574.000000	96.158675 
1573.000000	96.155696 
1572.000000	96.158290 
1571.000000	96.169400 
1570.000000	96.179619 
1569.000000	96.175310 
1568.000000	96.164638 
1567.000000	96.161230 
1566.000000	96.164545 
1565.000000	96.165834 
1564.000000	96.164622 
1563.000000	96.163717 
1562.000000	96.163443 
1561.000000	96.159935 
1560.000000	96.159154 
1559.000000	96.149493 
1558.000000	96.133273 
1557.000000	96.129242 
1556.000000	96.123628 
1555.000000	96.121809 
1554.000000	96.115087 
1553.000000	96.106051 
1552.000000	96.096427 
1551.000000	96.085596 
1550.000000	96.067090 
1549.000000	96.044224 
1548.000000	96.026990 
1547.000000	96.019499 
1546.000000	96.014053 
1545.000000	96.000460 
1544.000000	95.979235 
1543.000000	95.959644 
1542.000000	95.948223 
1541.000000	95.937801 
1540.000000	95.908306 
1539.000000	95.869051 
1538.000000	95.838616 
1537.000000	95.811502 
1536.000000	95.786813 
1535.000000	95.766055 
1534.000000	95.745276 
1533.000000	95.719873 
1532.000000	95.694261 
1531.000000	95.670053 
1530.000000	95.646744 
1529.000000	95.623738 
1528.000000	95.597796 
1527.000000	95.566663 
1526.000000	95.532490 
1525.000000	95.501783 
1524.000000	95.479331 
1523.000000	95.461909 
1522.000000	95.437304 
1521.000000	95.399251 
1520.000000	95.357994 
1519.000000	95.321948 
1518.000000	95.287815 
1517.000000	95.249656 
1516.000000	95.209065 
1515.000000	95.174607 
1514.000000	95.148085 
1513.000000	95.125984 
1512.000000	95.103842 
1511.000000	95.077883 
1510.000000	95.048232 
1509.000000	95.016995 
1508.000000	94.981302 
1507.000000	94.931362 
1506.000000	94.879062 
1505.000000	94.841212 
1504.000000	94.810253 
1503.000000	94.780019 
1502.000000	94.748362 
1501.000000	94.715863 
1500.000000	94.683902 
1499.000000	94.652066 
1498.000000	94.616937 
1497.000000	94.578266 
1496.000000	94.540470 
1495.000000	94.506666 
1494.000000	94.476366 
1493.000000	94.448305 
1492.000000	94.421470 
1491.000000	94.393333 
1490.000000	94.360691 
1489.000000	94.324405 
1488.000000	94.287505 
1487.000000	94.250679 
1486.000000	94.214899 
1485.000000	94.180209 
1484.000000	94.146414 
1483.000000	94.113649 
1482.000000	94.080757 
1481.000000	94.047700 
1480.000000	94.016036 
1479.000000	93.986814 
1478.000000	93.958517 
1477.000000	93.929332 
1476.000000	93.898538 
1475.000000	93.866089 
1474.000000	93.829742 
1473.000000	93.786671 
1472.000000	93.743194 
1471.000000	93.708624 
1470.000000	93.682904 
1469.000000	93.661118 
1468.000000	93.639489 
1467.000000	93.614254 
1466.000000	93.582130 
1465.000000	93.543479 
1464.000000	93.507368 
1463.000000	93.480021 
1462.000000	93.458719 
1461.000000	93.441743 
1460.000000	93.430511 
1459.000000	93.420500 
1458.000000	93.387273 
1457.000000	93.318755 
1456.000000	93.253936 
1455.000000	93.219700 
1454.000000	93.199048 
1453.000000	93.180164 
1452.000000	93.162367 
1451.000000	93.148652 
1450.000000	93.136871 
1449.000000	93.123314 
1448.000000	93.105178 
1447.000000	93.083477 
1446.000000	93.061427 
1445.000000	93.042323 
1444.000000	93.029402 
1443.000000	93.018698 
1442.000000	93.004288 
1441.000000	92.987507 
1440.000000	92.975824 
1439.000000	92.968820 
1438.000000	92.952336 
1437.000000	92.916653 
1436.000000	92.879661 
1435.000000	92.863242 
1434.000000	92.862740 
1433.000000	92.867297 
1432.000000	92.872687 
1431.000000	92.876908 
1430.000000	92.876323 
1429.000000	92.873005 
1428.000000	92.875475 
1427.000000	92.888751 
1426.000000	92.907957 
1425.000000	92.923992 
1424.000000	92.938145 
1423.000000	92.956809 
1422.000000	92.980400 
1421.000000	93.005120 
1420.000000	93.027045 
1419.000000	93.037445 
1418.000000	93.034062 
1417.000000	93.034129 
1416.000000	93.053128 
1415.000000	93.089559 
1414.000000	93.128856 
1413.000000	93.160743 
1412.000000	93.188245 
1411.000000	93.217029 
1410.000000	93.246441 
1409.000000	93.277574 
1408.000000	93.314875 
1407.000000	93.358308 
1406.000000	93.400642 
1405.000000	93.437003 
1404.000000	93.474989 
1403.000000	93.519944 
1402.000000	93.567001 
1401.000000	93.613350 
1400.000000	93.662600 
1399.000000	93.716573 
1398.000000	93.770290 
1397.000000	93.819446 
1396.000000	93.864547 
1395.000000	93.908076 
1394.000000	93.950823 
1393.000000	93.995839 
1392.000000	94.049546 
1391.000000	94.112130 
1390.000000	94.176214 
1389.000000	94.233264 
1388.000000	94.278500 
1387.000000	94.313377 
1386.000000	94.345720 
1385.000000	94.383963 
1384.000000	94.431425 
1383.000000	94.483666 
1382.000000	94.533161 
1381.000000	94.577526 
1380.000000	94.618726 
1379.000000	94.659372 
1378.000000	94.701428 
1377.000000	94.746332 
1376.000000	94.792778 
1375.000000	94.835583 
1374.000000	94.870657 
1373.000000	94.902580 
1372.000000	94.939247 
1371.000000	94.982474 
1370.000000	95.027881 
1369.000000	95.068752 
1368.000000	95.104301 
1367.000000	95.138770 
1366.000000	95.176176 
1365.000000	95.217757 
1364.000000	95.259273 
1363.000000	95.292081 
1362.000000	95.313878 
1361.000000	95.333237 
1360.000000	95.358880 
1359.000000	95.391871 
1358.000000	95.427920 
1357.000000	95.462352 
1356.000000	95.492889 
1355.000000	95.519154 
1354.000000	95.542816 
1353.000000	95.568066 
1352.000000	95.596490 
1351.000000	95.625998 
1350.000000	95.654448 
1349.000000	95.679794 
1348.000000	95.702288 
1347.000000	95.723183 
1346.000000	95.744087 
1345.000000	95.766150 
1344.000000	95.790317 
1343.000000	95.817040 
1342.000000	95.845671 
1341.000000	95.872621 
1340.000000	95.892292 
1339.000000	95.902707 
1338.000000	95.908188 
1337.000000	95.914734 
1336.000000	95.924814 
1335.000000	95.937157 
1334.000000	95.950250 
1333.000000	95.964209 
1332.000000	95.978989 
1331.000000	95.993481 
1330.000000	96.006688 
1329.000000	96.018462 
1328.000000	96.028949 
1327.000000	96.038876 
1326.000000	96.049224 
1325.000000	96.059215 
1324.000000	96.067632 
1323.000000	96.073908 
1322.000000	96.078932 
1321.000000	96.084678 
1320.000000	96.092844 
1319.000000	96.103155 
1318.000000	96.113879 
1317.000000	96.123954 
1316.000000	96.133134 
1315.000000	96.140394 
1314.000000	96.144316 
1313.000000	96.146159 
1312.000000	96.149886 
1311.000000	96.157689 
1310.000000	96.167124 
1309.000000	96.174522 
1308.000000	96.179263 
1307.000000	96.183785 
1306.000000	96.190080 
1305.000000	96.197105 
1304.000000	96.202974 
1303.000000	96.206338 
1302.000000	96.206691 
1301.000000	96.204554 
1300.000000	96.202047 
1299.000000	96.201531 
1298.000000	96.203384 
1297.000000	96.205531 
1296.000000	96.205492 
1295.000000	96.203076 
1294.000000	96.200493 
1293.000000	96.200396 
1292.000000	96.203503 
1291.000000	96.207867 
1290.000000	96.210811 
1289.000000	96.211363 
1288.000000	96.210143 
1287.000000	96.207376 
1286.000000	96.202436 
1285.000000	96.196058 
1284.000000	96.191473 
1283.000000	96.191373 
1282.000000	96.194413 
1281.000000	96.196155 
1280.000000	96.193849 
1279.000000	96.189515 
1278.000000	96.187677 
1277.000000	96.190816 
1276.000000	96.197213 
1275.000000	96.203250 
1274.000000	96.206735 
1273.000000	96.208034 
1272.000000	96.208507 
1271.000000	96.208612 
1270.000000	96.207758 
1269.000000	96.205565 
1268.000000	96.202780 
1267.000000	96.200455 
1266.000000	96.198665 
1265.000000	96.197317 
1264.000000	96.197314 
1263.000000	96.199480 
1262.000000	96.202772 
1261.000000	96.204958 
1260.000000	96.205671 
1259.000000	96.207386 
1258.000000	96.211674 
1257.000000	96.215969 
1256.000000	96.215652 
1255.000000	96.209860 
1254.000000	96.203819 
1253.000000	96.203712 
1252.000000	96.209272 
1251.000000	96.213657 
1250.000000	96.211371 
1249.000000	96.204621 
1248.000000	96.200329 
1247.000000	96.201780 
1246.000000	96.205421 
1245.000000	96.206368 
1244.000000	96.204219 
1243.000000	96.202273 
1242.000000	96.203192 
1241.000000	96.207101 
1240.000000	96.212370 
1239.000000	96.216428 
1238.000000	96.216944 
1237.000000	96.213921 
1236.000000	96.209935 
1235.000000	96.207187 
1234.000000	96.205232 
1233.000000	96.202695 
1232.000000	96.199771 
1231.000000	96.197135 
1230.000000	96.193665 
1229.000000	96.187358 
1228.000000	96.177392 
1227.000000	96.163198 
1226.000000	96.142679 
1225.000000	96.113995 
1224.000000	96.078782 
1223.000000	96.040937 
1222.000000	96.001744 
1221.000000	95.958348 
1220.000000	95.907726 
1219.000000	95.850209 
1218.000000	95.788243 
1217.000000	95.723426 
1216.000000	95.655449 
1215.000000	95.582709 
1214.000000	95.503710 
1213.000000	95.419525 
1212.000000	95.334488 
1211.000000	95.251706 
1210.000000	95.168079 
1209.000000	95.077064 
1208.000000	94.977011 
1207.000000	94.873432 
1206.000000	94.771975 
1205.000000	94.672306 
1204.000000	94.570653 
1203.000000	94.465425 
1202.000000	94.358083 
1201.000000	94.250403 
1200.000000	94.142875 
1199.000000	94.034675 
1198.000000	93.923985 
1197.000000	93.809935 
1196.000000	93.694517 
1195.000000	93.580631 
1194.000000	93.468134 
1193.000000	93.354089 
1192.000000	93.237124 
1191.000000	93.118687 
1190.000000	92.999726 
1189.000000	92.879218 
1188.000000	92.756551 
1187.000000	92.632354 
1186.000000	92.506573 
1185.000000	92.378644 
1184.000000	92.249556 
1183.000000	92.120619 
1182.000000	91.990478 
1181.000000	91.856703 
1180.000000	91.719784 
1179.000000	91.581533 
1178.000000	91.440021 
1177.000000	91.290878 
1176.000000	91.133375 
1175.000000	90.970485 
1174.000000	90.803421 
1173.000000	90.631555 
1172.000000	90.457372 
1171.000000	90.284693 
1170.000000	90.111623 
1169.000000	89.932821 
1168.000000	89.750600 
1167.000000	89.577175 
1166.000000	89.424935 
1165.000000	89.302264 
1164.000000	89.219906 
1163.000000	89.190868 
1162.000000	89.218175 
1161.000000	89.287610 
1160.000000	89.374731 
1159.000000	89.454048 
1158.000000	89.502260 
1157.000000	89.502754 
1156.000000	89.452356 
1155.000000	89.360278 
1154.000000	89.238925 
1153.000000	89.098856 
1152.000000	88.951056 
1151.000000	88.805456 
1150.000000	88.664288 
1149.000000	88.523260 
1148.000000	88.381082 
1147.000000	88.241082 
1146.000000	88.102554 
1145.000000	87.959070 
1144.000000	87.807922 
1143.000000	87.653468 
1142.000000	87.498653 
1141.000000	87.341088 
1140.000000	87.180081 
1139.000000	87.019329 
1138.000000	86.859768 
1137.000000	86.697502 
1136.000000	86.531225 
1135.000000	86.363752 
1134.000000	86.194292 
1133.000000	86.017874 
1132.000000	85.834467 
1131.000000	85.649637 
1130.000000	85.464233 
1129.000000	85.272930 
1128.000000	85.075049 
1127.000000	84.876510 
1126.000000	84.678512 
1125.000000	84.474777 
1124.000000	84.263088 
1123.000000	84.049254 
1122.000000	83.836884 
1121.000000	83.624050 
1120.000000	83.412694 
1119.000000	83.209387 
1118.000000	83.013865 
1117.000000	82.819558 
1116.000000	82.628373 
1115.000000	82.451488 
1114.000000	82.291926 
1113.000000	82.139907 
1112.000000	81.988843 
1111.000000	81.841628 
1110.000000	81.697564 
1109.000000	81.548579 
1108.000000	81.392680 
1107.000000	81.236170 
1106.000000	81.079490 
1105.000000	80.915673 
1104.000000	80.745664 
1103.000000	80.579509 
1102.000000	80.418345 
1101.000000	80.252347 
1100.000000	80.079887 
1099.000000	79.911100 
1098.000000	79.751056 
1097.000000	79.593150 
1096.000000	79.434209 
1095.000000	79.278342 
1094.000000	79.122953 
1093.000000	78.959234 
1092.000000	78.790962 
1091.000000	78.634447 
1090.000000	78.494833 
1089.000000	78.359926 
1088.000000	78.221188 
1087.000000	78.082172 
1086.000000	77.942865 
1085.000000	77.795970 
1084.000000	77.643612 
1083.000000	77.497918 
1082.000000	77.359686 
1081.000000	77.215688 
1080.000000	77.061570 
1079.000000	76.907157 
1078.000000	76.754305 
1077.000000	76.590203 
1076.000000	76.408084 
1075.000000	76.213797 
1074.000000	76.006910 
1073.000000	75.776430 
1072.000000	75.520255 
1071.000000	75.247108 
1070.000000	74.954125 
1069.000000	74.625370 
1068.000000	74.259470 
1067.000000	73.877059 
1066.000000	73.494127 
1065.000000	73.109594 
1064.000000	72.725489 
1063.000000	72.354052 
1062.000000	71.995149 
1061.000000	71.630560 
1060.000000	71.251136 
1059.000000	70.867943 
1058.000000	70.488337 
1057.000000	70.103443 
1056.000000	69.707316 
1055.000000	69.304886 
1054.000000	68.892220 
1053.000000	68.452911 
1052.000000	67.984753 
1051.000000	67.506532 
1050.000000	67.027901 
1049.000000	66.538801 
1048.000000	66.037844 
1047.000000	65.540231 
1046.000000	65.048828 
1045.000000	64.548063 
1044.000000	64.033855 
1043.000000	63.520850 
1042.000000	63.013526 
1041.000000	62.498762 
1040.000000	61.974817 
1039.000000	61.459071 
1038.000000	60.959029 
1037.000000	60.464790 
1036.000000	59.977708 
1035.000000	59.515693 
1034.000000	59.082022 
1033.000000	58.660295 
1032.000000	58.248148 
1031.000000	57.863831 
1030.000000	57.511742 
1029.000000	57.175184 
1028.000000	56.851255 
1027.000000	56.557960 
1026.000000	56.297435 
1025.000000	56.047037 
1024.000000	55.796359 
1023.000000	55.558321 
1022.000000	55.334529 
1021.000000	55.106067 
1020.000000	54.868712 
1019.000000	54.641258 
1018.000000	54.428401 
1017.000000	54.210965 
1016.000000	53.982891 
1015.000000	53.762073 
1014.000000	53.554239 
1013.000000	53.342269 
1012.000000	53.121755 
1011.000000	52.911175 
1010.000000	52.716213 
1009.000000	52.520128 
1008.000000	52.320073 
1007.000000	52.137045 
1006.000000	51.979356 
1005.000000	51.832074 
1004.000000	51.691899 
1003.000000	51.575488 
1002.000000	51.483198 
1001.000000	51.392340 
1000.000000	51.297563 
999.000000	 51.221026 
998.000000	 51.171573 
997.000000	 51.130812 
996.000000	 51.090179 
995.000000	 51.064607 
994.000000	 51.057944 
993.000000	 51.051775 
992.000000	 51.040401 
991.000000	 51.041253 
990.000000	 51.059679 
989.000000	 51.079349 
988.000000	 51.097918 
987.000000	 51.135955 
986.000000	 51.199912 
985.000000	 51.272507 
984.000000	 51.349717 
983.000000	 51.450745 
982.000000	 51.580940 
981.000000	 51.721604 
980.000000	 51.866999 
979.000000	 52.035119 
978.000000	 52.231273 
977.000000	 52.437796 
976.000000	 52.650460 
975.000000	 52.888704 
974.000000	 53.158457 
973.000000	 53.440488 
972.000000	 53.726573 
971.000000	 54.032372 
970.000000	 54.363199 
969.000000	 54.701277 
968.000000	 55.037730 
967.000000	 55.384370 
966.000000	 55.744098 
965.000000	 56.102483 
964.000000	 56.457568 
963.000000	 56.825145 
962.000000	 57.206017 
961.000000	 57.580673 
960.000000	 57.944135 
959.000000	 58.312858 
958.000000	 58.689343 
957.000000	 59.053769 
956.000000	 59.399465 
955.000000	 59.743420 
954.000000	 60.092355 
953.000000	 60.430468 
952.000000	 60.749832 
951.000000	 61.061119 
950.000000	 61.365704 
949.000000	 61.648668 
948.000000	 61.907916 
947.000000	 62.159167 
946.000000	 62.404020 
945.000000	 62.623982 
944.000000	 62.814294 
943.000000	 62.992797 
942.000000	 63.167409 
941.000000	 63.326003 
940.000000	 63.467325 
939.000000	 63.610089 
938.000000	 63.761262 
937.000000	 63.906105 
936.000000	 64.040206 
935.000000	 64.180963 
934.000000	 64.336669 
933.000000	 64.494142 
932.000000	 64.647806 
931.000000	 64.811295 
930.000000	 64.989111 
929.000000	 65.165533 
928.000000	 65.332653 
927.000000	 65.501573 
926.000000	 65.675447 
925.000000	 65.838560 
924.000000	 65.981959 
923.000000	 66.113773 
922.000000	 66.236239 
921.000000	 66.339776 
920.000000	 66.427405 
919.000000	 66.516793 
918.000000	 66.609741 
917.000000	 66.687732 
916.000000	 66.746484 
915.000000	 66.807811 
914.000000	 66.889746 
913.000000	 66.993132 
912.000000	 67.124803 
911.000000	 67.303759 
910.000000	 67.535148 
909.000000	 67.806735 
908.000000	 68.118468 
907.000000	 68.485907 
906.000000	 68.907832 
905.000000	 69.361145 
904.000000	 69.834598 
903.000000	 70.337328 
902.000000	 70.868502 
901.000000	 71.410115 
900.000000	 71.956066 
899.000000	 72.517409 
898.000000	 73.092326 
897.000000	 73.659987 
896.000000	 74.209534 
895.000000	 74.746789 
894.000000	 75.269183 
893.000000	 75.763916 
892.000000	 76.234828 
891.000000	 76.701096 
890.000000	 77.163681 
889.000000	 77.600897 
888.000000	 78.001652 
887.000000	 78.375110 
886.000000	 78.723977 
885.000000	 79.037542 
884.000000	 79.316091 
883.000000	 79.572343 
882.000000	 79.802593 
881.000000	 79.987189 
880.000000	 80.127900 
879.000000	 80.254685 
878.000000	 80.386641 
877.000000	 80.517701 
876.000000	 80.651504 
875.000000	 80.817540 
874.000000	 81.039496 
873.000000	 81.317475 
872.000000	 81.651370 
871.000000	 82.049273 
870.000000	 82.500623 
869.000000	 82.971179 
868.000000	 83.437495 
867.000000	 83.902359 
866.000000	 84.369920 
865.000000	 84.832998 
864.000000	 85.293134 
863.000000	 85.766060 
862.000000	 86.255334 
861.000000	 86.742070 
860.000000	 87.210069 
859.000000	 87.660766 
858.000000	 88.096188 
857.000000	 88.507891 
856.000000	 88.890672 
855.000000	 89.248097 
854.000000	 89.577407 
853.000000	 89.867304 
852.000000	 90.117451 
851.000000	 90.343061 
850.000000	 90.554717 
849.000000	 90.750148 
848.000000	 90.928973 
847.000000	 91.095736 
846.000000	 91.243885 
845.000000	 91.357305 
844.000000	 91.433391 
843.000000	 91.485080 
842.000000	 91.515138 
841.000000	 91.509100 
840.000000	 91.459709 
839.000000	 91.377521 
838.000000	 91.271051 
837.000000	 91.138163 
836.000000	 90.986052 
835.000000	 90.838652 
834.000000	 90.712497 
833.000000	 90.603181 
832.000000	 90.506006 
831.000000	 90.431548 
830.000000	 90.390332 
829.000000	 90.381022 
828.000000	 90.404965 
827.000000	 90.472630 
826.000000	 90.583052 
825.000000	 90.716615 
824.000000	 90.859746 
823.000000	 91.015716 
822.000000	 91.182532 
821.000000	 91.345130 
820.000000	 91.497365 
819.000000	 91.646795 
818.000000	 91.790322 
817.000000	 91.906444 
816.000000	 91.978353 
815.000000	 92.006426 
814.000000	 91.991379 
813.000000	 91.921544 
812.000000	 91.782919 
811.000000	 91.565587 
810.000000	 91.254174 
809.000000	 90.828928 
808.000000	 90.285026 
807.000000	 89.638374 
806.000000	 88.908574 
805.000000	 88.112992 
804.000000	 87.283279 
803.000000	 86.467030 
802.000000	 85.703019 
801.000000	 85.014240 
800.000000	 84.432067 
799.000000	 84.000368 
798.000000	 83.742099 
797.000000	 83.643401 
796.000000	 83.678267 
795.000000	 83.823698 
794.000000	 84.045171 
793.000000	 84.298475 
792.000000	 84.557672 
791.000000	 84.817112 
790.000000	 85.060203 
789.000000	 85.253086 
788.000000	 85.375305 
787.000000	 85.429494 
786.000000	 85.413782 
785.000000	 85.311351 
784.000000	 85.116938 
783.000000	 84.850819 
782.000000	 84.540552 
781.000000	 84.215124 
780.000000	 83.923172 
779.000000	 83.724637 
778.000000	 83.648951 
777.000000	 83.684932 
776.000000	 83.818534 
775.000000	 84.049233 
774.000000	 84.358973 
773.000000	 84.699528 
772.000000	 85.029423 
771.000000	 85.338745 
770.000000	 85.625218 
769.000000	 85.873073 
768.000000	 86.070245 
767.000000	 86.222038 
766.000000	 86.333563 
765.000000	 86.401354 
764.000000	 86.435774 
763.000000	 86.468000 
762.000000	 86.518319 
761.000000	 86.576853 
760.000000	 86.629140 
759.000000	 86.680469 
758.000000	 86.741896 
757.000000	 86.813638 
756.000000	 86.896944 
755.000000	 87.002327 
754.000000	 87.130521 
753.000000	 87.262283 
752.000000	 87.380598 
751.000000	 87.488600 
750.000000	 87.597330 
749.000000	 87.712791 
748.000000	 87.842427 
747.000000	 87.994758 
746.000000	 88.163695 
745.000000	 88.332106 
744.000000	 88.498929 
743.000000	 88.682819 
742.000000	 88.892095 
741.000000	 89.114123 
740.000000	 89.342764 
739.000000	 89.591947 
738.000000	 89.870325 
737.000000	 90.163305 
736.000000	 90.451327 
735.000000	 90.726878 
734.000000	 90.983990 
733.000000	 91.211028 
732.000000	 91.404496 
731.000000	 91.572970 
730.000000	 91.719593 
729.000000	 91.837630 
728.000000	 91.930300 
727.000000	 92.016403 
726.000000	 92.110694 
725.000000	 92.217520 
724.000000	 92.344719 
723.000000	 92.500353 
722.000000	 92.672311 
721.000000	 92.835472 
720.000000	 92.984615 
719.000000	 93.134906 
718.000000	 93.284664 
717.000000	 93.408449 
716.000000	 93.493670 
715.000000	 93.556632 
714.000000	 93.616117 
713.000000	 93.677128 
712.000000	 93.748733 
711.000000	 93.846935 
710.000000	 93.965543 
709.000000	 94.070095 
708.000000	 94.135672 
707.000000	 94.167557 
706.000000	 94.173396 
705.000000	 94.143710 
704.000000	 94.072803 
703.000000	 93.969093 
702.000000	 93.827603 
701.000000	 93.616911 
700.000000	 93.311365 
699.000000	 92.920458 
698.000000	 92.478893 
697.000000	 92.035786 
696.000000	 91.663053 
695.000000	 91.437352 
694.000000	 91.390350 
693.000000	 91.491451 
692.000000	 91.686879 
691.000000	 91.935343 
690.000000	 92.199655 
689.000000	 92.440245 
688.000000	 92.640282 
687.000000	 92.813763 
686.000000	 92.973098 
685.000000	 93.112385 
684.000000	 93.231623 
683.000000	 93.346613 
682.000000	 93.463556 
681.000000	 93.573324 
680.000000	 93.678277 
679.000000	 93.794751 
678.000000	 93.918364 
677.000000	 94.025232 
676.000000	 94.120112 
675.000000	 94.233667 
674.000000	 94.371848 
673.000000	 94.506610 
672.000000	 94.628018 
671.000000	 94.761475 
670.000000	 94.931494 
669.000000	 95.102336 
668.000000	 95.199533 
667.000000	 95.260554 
666.000000	 95.368877 
665.000000	 95.490745 
664.000000	 95.592091 
663.000000	 95.687756 
662.000000	 95.802231 
661.000000	 95.920511 
660.000000	 96.021718 
659.000000	 96.114099 
658.000000	 96.203284 
657.000000	 96.263388 
656.000000	 96.280696 
655.000000	 96.277869 
654.000000	 96.270368 
653.000000	 96.237820 
652.000000	 96.174811 
651.000000	 96.127754 
650.000000	 96.135610 

