4000.000000	98.084076 
3999.000000	98.083405 
3998.000000	98.081402 
3997.000000	98.078580 
3996.000000	98.075708 
3995.000000	98.073478 
3994.000000	98.072438 
3993.000000	98.072673 
3992.000000	98.073487 
3991.000000	98.073767 
3990.000000	98.073102 
3989.000000	98.072235 
3988.000000	98.072152 
3987.000000	98.073112 
3986.000000	98.074704 
3985.000000	98.076364 
3984.000000	98.077613 
3983.000000	98.078125 
3982.000000	98.078056 
3981.000000	98.078046 
3980.000000	98.078402 
3979.000000	98.078572 
3978.000000	98.077907 
3977.000000	98.076736 
3976.000000	98.076130 
3975.000000	98.076534 
3974.000000	98.077188 
3973.000000	98.077029 
3972.000000	98.075684 
3971.000000	98.073540 
3970.000000	98.071340 
3969.000000	98.069952 
3968.000000	98.070048 
3967.000000	98.071573 
3966.000000	98.073671 
3965.000000	98.075211 
3964.000000	98.075356 
3963.000000	98.073860 
3962.000000	98.071227 
3961.000000	98.068570 
3960.000000	98.066814 
3959.000000	98.066076 
3958.000000	98.065906 
3957.000000	98.065978 
3956.000000	98.066125 
3955.000000	98.065856 
3954.000000	98.064695 
3953.000000	98.062712 
3952.000000	98.060517 
3951.000000	98.058588 
3950.000000	98.056859 
3949.000000	98.055140 
3948.000000	98.053473 
3947.000000	98.052227 
3946.000000	98.051862 
3945.000000	98.052503 
3944.000000	98.053552 
3943.000000	98.053999 
3942.000000	98.053716 
3941.000000	98.053624 
3940.000000	98.054363 
3939.000000	98.055482 
3938.000000	98.055981 
3937.000000	98.055507 
3936.000000	98.054440 
3935.000000	98.052868 
3934.000000	98.050620 
3933.000000	98.048056 
3932.000000	98.046213 
3931.000000	98.045407 
3930.000000	98.044836 
3929.000000	98.044183 
3928.000000	98.044215 
3927.000000	98.045470 
3926.000000	98.046818 
3925.000000	98.046425 
3924.000000	98.044216 
3923.000000	98.041651 
3922.000000	98.039455 
3921.000000	98.037460 
3920.000000	98.036008 
3919.000000	98.036117 
3918.000000	98.037744 
3917.000000	98.039450 
3916.000000	98.040326 
3915.000000	98.040979 
3914.000000	98.042062 
3913.000000	98.043203 
3912.000000	98.043657 
3911.000000	98.043421 
3910.000000	98.042731 
3909.000000	98.041641 
3908.000000	98.040351 
3907.000000	98.039086 
3906.000000	98.037703 
3905.000000	98.035225 
3904.000000	98.031085 
3903.000000	98.026430 
3902.000000	98.023254 
3901.000000	98.022533 
3900.000000	98.023717 
3899.000000	98.025607 
3898.000000	98.027437 
3897.000000	98.028709 
3896.000000	98.028953 
3895.000000	98.028392 
3894.000000	98.027879 
3893.000000	98.028074 
3892.000000	98.028382 
3891.000000	98.027646 
3890.000000	98.025812 
3889.000000	98.023858 
3888.000000	98.022638 
3887.000000	98.022129 
3886.000000	98.021947 
3885.000000	98.021956 
3884.000000	98.022046 
3883.000000	98.021818 
3882.000000	98.021070 
3881.000000	98.020171 
3880.000000	98.019678 
3879.000000	98.019616 
3878.000000	98.019635 
3877.000000	98.019560 
3876.000000	98.019460 
3875.000000	98.019311 
3874.000000	98.019026 
3873.000000	98.018654 
3872.000000	98.018302 
3871.000000	98.017966 
3870.000000	98.017659 
3869.000000	98.017505 
3868.000000	98.017516 
3867.000000	98.017590 
3866.000000	98.017634 
3865.000000	98.017662 
3864.000000	98.017744 
3863.000000	98.017903 
3862.000000	98.018086 
3861.000000	98.018244 
3860.000000	98.018389 
3859.000000	98.018539 
3858.000000	98.018658 
3857.000000	98.018703 
3856.000000	98.018681 
3855.000000	98.018621 
3854.000000	98.018508 
3853.000000	98.018373 
3852.000000	98.018318 
3851.000000	98.018360 
3850.000000	98.018451 
3849.000000	98.018577 
3848.000000	98.018764 
3847.000000	98.019011 
3846.000000	98.019257 
3845.000000	98.019448 
3844.000000	98.019577 
3843.000000	98.019662 
3842.000000	98.019735 
3841.000000	98.019845 
3840.000000	98.020017 
3839.000000	98.020243 
3838.000000	98.020494 
3837.000000	98.020729 
3836.000000	98.020930 
3835.000000	98.021111 
3834.000000	98.021297 
3833.000000	98.021511 
3832.000000	98.021755 
3831.000000	98.022025 
3830.000000	98.022315 
3829.000000	98.022622 
3828.000000	98.022944 
3827.000000	98.023267 
3826.000000	98.023554 
3825.000000	98.023786 
3824.000000	98.023978 
3823.000000	98.024158 
3822.000000	98.024344 
3821.000000	98.024539 
3820.000000	98.024759 
3819.000000	98.025016 
3818.000000	98.025305 
3817.000000	98.025617 
3816.000000	98.025962 
3815.000000	98.026365 
3814.000000	98.026824 
3813.000000	98.027276 
3812.000000	98.027657 
3811.000000	98.027990 
3810.000000	98.028409 
3809.000000	98.028989 
3808.000000	98.029559 
3807.000000	98.029837 
3806.000000	98.029737 
3805.000000	98.029490 
3804.000000	98.029323 
3803.000000	98.029327 
3802.000000	98.029486 
3801.000000	98.029827 
3800.000000	98.030379 
3799.000000	98.030768 
3798.000000	98.030633 
3797.000000	98.030304 
3796.000000	98.030586 
3795.000000	98.031763 
3794.000000	98.033119 
3793.000000	98.033785 
3792.000000	98.033879 
3791.000000	98.034302 
3790.000000	98.035326 
3789.000000	98.036127 
3788.000000	98.036070 
3787.000000	98.035654 
3786.000000	98.035757 
3785.000000	98.036313 
3784.000000	98.036426 
3783.000000	98.035724 
3782.000000	98.034485 
3781.000000	98.033104 
3780.000000	98.032144 
3779.000000	98.032451 
3778.000000	98.034179 
3777.000000	98.036155 
3776.000000	98.036655 
3775.000000	98.034983 
3774.000000	98.032122 
3773.000000	98.029690 
3772.000000	98.028142 
3771.000000	98.026392 
3770.000000	98.023763 
3769.000000	98.021344 
3768.000000	98.020169 
3767.000000	98.019590 
3766.000000	98.018399 
3765.000000	98.016528 
3764.000000	98.015369 
3763.000000	98.015788 
3762.000000	98.016548 
3761.000000	98.015944 
3760.000000	98.014229 
3759.000000	98.013493 
3758.000000	98.013679 
3757.000000	98.012748 
3756.000000	98.010530 
3755.000000	98.008107 
3754.000000	98.005052 
3753.000000	97.999760 
3752.000000	97.993661 
3751.000000	97.990426 
3750.000000	97.988404 
3749.000000	97.982487 
3748.000000	97.973816 
3747.000000	97.968715 
3746.000000	97.970095 
3745.000000	97.973595 
3744.000000	97.977736 
3743.000000	97.984271 
3742.000000	97.988359 
3741.000000	97.983437 
3740.000000	97.971021 
3739.000000	97.961528 
3738.000000	97.962505 
3737.000000	97.968607 
3736.000000	97.970701 
3735.000000	97.969382 
3734.000000	97.971195 
3733.000000	97.975757 
3732.000000	97.978612 
3731.000000	97.980233 
3730.000000	97.983358 
3729.000000	97.987475 
3728.000000	97.989776 
3727.000000	97.988857 
3726.000000	97.986686 
3725.000000	97.984944 
3724.000000	97.982657 
3723.000000	97.979646 
3722.000000	97.978475 
3721.000000	97.980772 
3720.000000	97.983322 
3719.000000	97.983388 
3718.000000	97.981311 
3717.000000	97.978326 
3716.000000	97.975331 
3715.000000	97.970677 
3714.000000	97.962603 
3713.000000	97.953333 
3712.000000	97.947362 
3711.000000	97.945731 
3710.000000	97.943927 
3709.000000	97.938089 
3708.000000	97.928215 
3707.000000	97.915573 
3706.000000	97.901976 
3705.000000	97.889418 
3704.000000	97.878777 
3703.000000	97.869054 
3702.000000	97.857525 
3701.000000	97.842505 
3700.000000	97.825340 
3699.000000	97.809410 
3698.000000	97.797181 
3697.000000	97.788284 
3696.000000	97.782061 
3695.000000	97.777834 
3694.000000	97.772805 
3693.000000	97.764518 
3692.000000	97.754273 
3691.000000	97.745453 
3690.000000	97.738002 
3689.000000	97.730100 
3688.000000	97.722931 
3687.000000	97.718472 
3686.000000	97.715938 
3685.000000	97.712294 
3684.000000	97.706131 
3683.000000	97.700218 
3682.000000	97.697442 
3681.000000	97.694187 
3680.000000	97.683699 
3679.000000	97.664443 
3678.000000	97.642239 
3677.000000	97.622324 
3676.000000	97.604282 
3675.000000	97.589411 
3674.000000	97.579642 
3673.000000	97.572509 
3672.000000	97.563756 
3671.000000	97.553349 
3670.000000	97.545295 
3669.000000	97.541843 
3668.000000	97.538976 
3667.000000	97.531901 
3666.000000	97.522005 
3665.000000	97.513673 
3664.000000	97.508426 
3663.000000	97.504545 
3662.000000	97.499026 
3661.000000	97.489600 
3660.000000	97.477007 
3659.000000	97.463829 
3658.000000	97.452705 
3657.000000	97.442887 
3656.000000	97.431698 
3655.000000	97.418705 
3654.000000	97.404472 
3653.000000	97.389112 
3652.000000	97.372488 
3651.000000	97.356051 
3650.000000	97.342708 
3649.000000	97.333216 
3648.000000	97.325793 
3647.000000	97.320668 
3646.000000	97.320682 
3645.000000	97.326559 
3644.000000	97.335203 
3643.000000	97.342992 
3642.000000	97.348105 
3641.000000	97.350419 
3640.000000	97.350094 
3639.000000	97.346200 
3638.000000	97.338989 
3637.000000	97.330567 
3636.000000	97.322264 
3635.000000	97.311874 
3634.000000	97.296821 
3633.000000	97.279510 
3632.000000	97.264957 
3631.000000	97.254023 
3630.000000	97.241507 
3629.000000	97.224940 
3628.000000	97.210804 
3627.000000	97.204139 
3626.000000	97.201670 
3625.000000	97.200230 
3624.000000	97.201010 
3623.000000	97.205873 
3622.000000	97.213124 
3621.000000	97.217488 
3620.000000	97.215043 
3619.000000	97.207968 
3618.000000	97.201958 
3617.000000	97.201327 
3616.000000	97.208650 
3615.000000	97.223685 
3614.000000	97.242239 
3613.000000	97.259262 
3612.000000	97.272451 
3611.000000	97.281821 
3610.000000	97.288685 
3609.000000	97.295095 
3608.000000	97.302390 
3607.000000	97.310696 
3606.000000	97.319394 
3605.000000	97.329491 
3604.000000	97.343640 
3603.000000	97.362374 
3602.000000	97.381837 
3601.000000	97.395619 
3600.000000	97.400516 
3599.000000	97.398663 
3598.000000	97.394756 
3597.000000	97.392399 
3596.000000	97.393889 
3595.000000	97.398247 
3594.000000	97.402025 
3593.000000	97.402804 
3592.000000	97.400542 
3591.000000	97.396888 
3590.000000	97.394121 
3589.000000	97.393551 
3588.000000	97.394828 
3587.000000	97.397079 
3586.000000	97.400197 
3585.000000	97.405040 
3584.000000	97.413221 
3583.000000	97.425218 
3582.000000	97.439236 
3581.000000	97.451209 
3580.000000	97.457613 
3579.000000	97.457886 
3578.000000	97.454390 
3577.000000	97.450371 
3576.000000	97.447672 
3575.000000	97.446319 
3574.000000	97.445047 
3573.000000	97.442758 
3572.000000	97.438693 
3571.000000	97.432354 
3570.000000	97.423813 
3569.000000	97.414284 
3568.000000	97.406481 
3567.000000	97.403648 
3566.000000	97.406533 
3565.000000	97.412390 
3564.000000	97.417951 
3563.000000	97.422348 
3562.000000	97.426501 
3561.000000	97.431265 
3560.000000	97.436237 
3559.000000	97.440259 
3558.000000	97.442536 
3557.000000	97.443256 
3556.000000	97.443091 
3555.000000	97.442430 
3554.000000	97.441053 
3553.000000	97.438519 
3552.000000	97.435026 
3551.000000	97.431241 
3550.000000	97.427795 
3549.000000	97.425371 
3548.000000	97.424803 
3547.000000	97.426085 
3546.000000	97.427695 
3545.000000	97.427982 
3544.000000	97.427397 
3543.000000	97.427999 
3542.000000	97.430790 
3541.000000	97.434752 
3540.000000	97.438295 
3539.000000	97.440664 
3538.000000	97.441957 
3537.000000	97.442465 
3536.000000	97.442549 
3535.000000	97.442331 
3534.000000	97.441704 
3533.000000	97.440760 
3532.000000	97.440149 
3531.000000	97.440547 
3530.000000	97.441641 
3529.000000	97.442185 
3528.000000	97.441296 
3527.000000	97.439447 
3526.000000	97.437999 
3525.000000	97.437948 
3524.000000	97.439353 
3523.000000	97.441579 
3522.000000	97.443785 
3521.000000	97.445432 
3520.000000	97.446501 
3519.000000	97.447181 
3518.000000	97.447485 
3517.000000	97.447221 
3516.000000	97.446425 
3515.000000	97.445559 
3514.000000	97.445210 
3513.000000	97.445572 
3512.000000	97.446296 
3511.000000	97.446785 
3510.000000	97.446711 
3509.000000	97.446251 
3508.000000	97.445846 
3507.000000	97.445743 
3506.000000	97.445830 
3505.000000	97.445851 
3504.000000	97.445711 
3503.000000	97.445530 
3502.000000	97.445456 
3501.000000	97.445504 
3500.000000	97.445609 
3499.000000	97.445740 
3498.000000	97.445868 
3497.000000	97.445883 
3496.000000	97.445633 
3495.000000	97.445083 
3494.000000	97.444417 
3493.000000	97.443920 
3492.000000	97.443735 
3491.000000	97.443722 
3490.000000	97.443558 
3489.000000	97.443027 
3488.000000	97.442168 
3487.000000	97.441189 
3486.000000	97.440300 
3485.000000	97.439638 
3484.000000	97.439253 
3483.000000	97.439035 
3482.000000	97.438730 
3481.000000	97.438154 
3480.000000	97.437379 
3479.000000	97.436631 
3478.000000	97.436002 
3477.000000	97.435312 
3476.000000	97.434276 
3475.000000	97.432803 
3474.000000	97.431132 
3473.000000	97.429696 
3472.000000	97.428770 
3471.000000	97.428246 
3470.000000	97.427711 
3469.000000	97.426867 
3468.000000	97.425801 
3467.000000	97.424861 
3466.000000	97.424327 
3465.000000	97.424155 
3464.000000	97.423940 
3463.000000	97.423124 
3462.000000	97.421374 
3461.000000	97.418893 
3460.000000	97.416363 
3459.000000	97.414409 
3458.000000	97.413079 
3457.000000	97.411880 
3456.000000	97.410346 
3455.000000	97.408471 
3454.000000	97.406641 
3453.000000	97.405175 
3452.000000	97.404116 
3451.000000	97.403375 
3450.000000	97.402774 
3449.000000	97.401901 
3448.000000	97.400232 
3447.000000	97.397667 
3446.000000	97.394833 
3445.000000	97.392622 
3444.000000	97.391377 
3443.000000	97.390680 
3442.000000	97.389773 
3441.000000	97.388177 
3440.000000	97.385960 
3439.000000	97.383528 
3438.000000	97.381284 
3437.000000	97.379410 
3436.000000	97.378020 
3435.000000	97.377320 
3434.000000	97.377461 
3433.000000	97.378140 
3432.000000	97.378607 
3431.000000	97.378308 
3430.000000	97.377298 
3429.000000	97.376002 
3428.000000	97.374654 
3427.000000	97.373154 
3426.000000	97.371516 
3425.000000	97.370127 
3424.000000	97.369367 
3423.000000	97.369062 
3422.000000	97.368541 
3421.000000	97.367334 
3420.000000	97.365643 
3419.000000	97.364072 
3418.000000	97.363003 
3417.000000	97.362399 
3416.000000	97.362069 
3415.000000	97.361858 
3414.000000	97.361546 
3413.000000	97.360809 
3412.000000	97.359503 
3411.000000	97.357930 
3410.000000	97.356700 
3409.000000	97.356262 
3408.000000	97.356569 
3407.000000	97.357098 
3406.000000	97.357230 
3405.000000	97.356732 
3404.000000	97.355889 
3403.000000	97.355114 
3402.000000	97.354528 
3401.000000	97.354017 
3400.000000	97.353586 
3399.000000	97.353373 
3398.000000	97.353302 
3397.000000	97.353062 
3396.000000	97.352532 
3395.000000	97.352043 
3394.000000	97.352011 
3393.000000	97.352459 
3392.000000	97.352974 
3391.000000	97.353124 
3390.000000	97.352902 
3389.000000	97.352776 
3388.000000	97.353290 
3387.000000	97.354567 
3386.000000	97.356180 
3385.000000	97.357426 
3384.000000	97.357873 
3383.000000	97.357662 
3382.000000	97.357441 
3381.000000	97.357857 
3380.000000	97.358990 
3379.000000	97.360313 
3378.000000	97.361281 
3377.000000	97.361975 
3376.000000	97.362891 
3375.000000	97.364180 
3374.000000	97.365384 
3373.000000	97.366073 
3372.000000	97.366462 
3371.000000	97.367194 
3370.000000	97.368601 
3369.000000	97.370418 
3368.000000	97.372115 
3367.000000	97.373378 
3366.000000	97.374215 
3365.000000	97.374830 
3364.000000	97.375453 
3363.000000	97.376193 
3362.000000	97.376991 
3361.000000	97.377740 
3360.000000	97.378475 
3359.000000	97.379378 
3358.000000	97.380561 
3357.000000	97.381910 
3356.000000	97.383208 
3355.000000	97.384374 
3354.000000	97.385540 
3353.000000	97.386876 
3352.000000	97.388390 
3351.000000	97.389903 
3350.000000	97.391213 
3349.000000	97.392261 
3348.000000	97.393177 
3347.000000	97.394191 
3346.000000	97.395438 
3345.000000	97.396858 
3344.000000	97.398223 
3343.000000	97.399323 
3342.000000	97.400128 
3341.000000	97.400836 
3340.000000	97.401672 
3339.000000	97.402641 
3338.000000	97.403579 
3337.000000	97.404390 
3336.000000	97.405166 
3335.000000	97.406090 
3334.000000	97.407214 
3333.000000	97.408423 
3332.000000	97.409574 
3331.000000	97.410624 
3330.000000	97.411602 
3329.000000	97.412546 
3328.000000	97.413514 
3327.000000	97.414585 
3326.000000	97.415798 
3325.000000	97.417073 
3324.000000	97.418234 
3323.000000	97.419139 
3322.000000	97.419805 
3321.000000	97.420428 
3320.000000	97.421254 
3319.000000	97.422387 
3318.000000	97.423745 
3317.000000	97.425167 
3316.000000	97.426529 
3315.000000	97.427755 
3314.000000	97.428774 
3313.000000	97.429566 
3312.000000	97.430246 
3311.000000	97.431027 
3310.000000	97.432084 
3309.000000	97.433414 
3308.000000	97.434800 
3307.000000	97.435901 
3306.000000	97.436515 
3305.000000	97.436738 
3304.000000	97.436920 
3303.000000	97.437432 
3302.000000	97.438392 
3301.000000	97.439629 
3300.000000	97.440795 
3299.000000	97.441597 
3298.000000	97.441985 
3297.000000	97.442204 
3296.000000	97.442664 
3295.000000	97.443613 
3294.000000	97.444986 
3293.000000	97.446511 
3292.000000	97.447968 
3291.000000	97.449302 
3290.000000	97.450541 
3289.000000	97.451714 
3288.000000	97.452847 
3287.000000	97.453976 
3286.000000	97.455100 
3285.000000	97.456165 
3284.000000	97.457126 
3283.000000	97.458036 
3282.000000	97.459023 
3281.000000	97.460161 
3280.000000	97.461372 
3279.000000	97.462499 
3278.000000	97.463498 
3277.000000	97.464494 
3276.000000	97.465615 
3275.000000	97.466809 
3274.000000	97.467932 
3273.000000	97.468990 
3272.000000	97.470166 
3271.000000	97.471588 
3270.000000	97.473178 
3269.000000	97.474696 
3268.000000	97.475963 
3267.000000	97.476990 
3266.000000	97.477976 
3265.000000	97.479159 
3264.000000	97.480637 
3263.000000	97.482292 
3262.000000	97.483857 
3261.000000	97.485162 
3260.000000	97.486257 
3259.000000	97.487293 
3258.000000	97.488313 
3257.000000	97.489297 
3256.000000	97.490342 
3255.000000	97.491603 
3254.000000	97.493088 
3253.000000	97.494657 
3252.000000	97.496210 
3251.000000	97.497779 
3250.000000	97.499374 
3249.000000	97.500855 
3248.000000	97.502048 
3247.000000	97.502945 
3246.000000	97.503725 
3245.000000	97.504579 
3244.000000	97.505528 
3243.000000	97.506426 
3242.000000	97.507172 
3241.000000	97.507888 
3240.000000	97.508819 
3239.000000	97.510095 
3238.000000	97.511683 
3237.000000	97.513531 
3236.000000	97.515617 
3235.000000	97.517759 
3234.000000	97.519563 
3233.000000	97.520720 
3232.000000	97.521355 
3231.000000	97.521987 
3230.000000	97.523079 
3229.000000	97.524667 
3228.000000	97.526398 
3227.000000	97.527955 
3226.000000	97.529451 
3225.000000	97.531297 
3224.000000	97.533661 
3223.000000	97.536187 
3222.000000	97.538329 
3221.000000	97.539939 
3220.000000	97.541323 
3219.000000	97.542733 
3218.000000	97.544070 
3217.000000	97.545109 
3216.000000	97.545855 
3215.000000	97.546606 
3214.000000	97.547747 
3213.000000	97.549457 
3212.000000	97.551566 
3211.000000	97.553641 
3210.000000	97.555311 
3209.000000	97.556556 
3208.000000	97.557643 
3207.000000	97.558829 
3206.000000	97.560140 
3205.000000	97.561497 
3204.000000	97.562956 
3203.000000	97.564765 
3202.000000	97.567103 
3201.000000	97.569804 
3200.000000	97.572379 
3199.000000	97.574432 
3198.000000	97.576003 
3197.000000	97.577473 
3196.000000	97.579161 
3195.000000	97.581070 
3194.000000	97.583041 
3193.000000	97.585012 
3192.000000	97.586999 
3191.000000	97.588925 
3190.000000	97.590640 
3189.000000	97.592117 
3188.000000	97.593516 
3187.000000	97.595059 
3186.000000	97.596892 
3185.000000	97.599043 
3184.000000	97.601370 
3183.000000	97.603611 
3182.000000	97.605565 
3181.000000	97.607221 
3180.000000	97.608690 
3179.000000	97.610078 
3178.000000	97.611502 
3177.000000	97.613138 
3176.000000	97.615106 
3175.000000	97.617342 
3174.000000	97.619633 
3173.000000	97.621794 
3172.000000	97.623740 
3171.000000	97.625426 
3170.000000	97.626871 
3169.000000	97.628242 
3168.000000	97.629739 
3167.000000	97.631376 
3166.000000	97.633001 
3165.000000	97.634521 
3164.000000	97.635983 
3163.000000	97.637427 
3162.000000	97.638807 
3161.000000	97.640106 
3160.000000	97.641419 
3159.000000	97.642880 
3158.000000	97.644534 
3157.000000	97.646315 
3156.000000	97.648098 
3155.000000	97.649767 
3154.000000	97.651268 
3153.000000	97.652646 
3152.000000	97.654012 
3151.000000	97.655425 
3150.000000	97.656840 
3149.000000	97.658187 
3148.000000	97.659471 
3147.000000	97.660799 
3146.000000	97.662288 
3145.000000	97.663972 
3144.000000	97.665757 
3143.000000	97.667455 
3142.000000	97.668936 
3141.000000	97.670217 
3140.000000	97.671448 
3139.000000	97.672782 
3138.000000	97.674244 
3137.000000	97.675752 
3136.000000	97.677199 
3135.000000	97.678497 
3134.000000	97.679614 
3133.000000	97.680662 
3132.000000	97.681869 
3131.000000	97.683392 
3130.000000	97.685165 
3129.000000	97.686973 
3128.000000	97.688657 
3127.000000	97.690209 
3126.000000	97.691734 
3125.000000	97.693350 
3124.000000	97.695100 
3123.000000	97.696896 
3122.000000	97.698581 
3121.000000	97.700080 
3120.000000	97.701459 
3119.000000	97.702819 
3118.000000	97.704196 
3117.000000	97.705609 
3116.000000	97.707085 
3115.000000	97.708554 
3114.000000	97.709848 
3113.000000	97.710926 
3112.000000	97.712097 
3111.000000	97.713838 
3110.000000	97.716300 
3109.000000	97.719036 
3108.000000	97.721336 
3107.000000	97.722920 
3106.000000	97.724129 
3105.000000	97.725363 
3104.000000	97.726403 
3103.000000	97.726648 
3102.000000	97.726021 
3101.000000	97.725301 
3100.000000	97.725359 
3099.000000	97.726339 
3098.000000	97.727872 
3097.000000	97.729845 
3096.000000	97.732377 
3095.000000	97.735155 
3094.000000	97.737444 
3093.000000	97.738896 
3092.000000	97.739897 
3091.000000	97.740844 
3090.000000	97.741559 
3089.000000	97.741645 
3088.000000	97.741141 
3087.000000	97.740676 
3086.000000	97.741104 
3085.000000	97.742907 
3084.000000	97.745543 
3083.000000	97.747535 
3082.000000	97.747817 
3081.000000	97.747073 
3080.000000	97.746979 
3079.000000	97.747980 
3078.000000	97.749026 
3077.000000	97.749819 
3076.000000	97.751702 
3075.000000	97.755273 
3074.000000	97.758702 
3073.000000	97.759945 
3072.000000	97.759485 
3071.000000	97.759174 
3070.000000	97.759293 
3069.000000	97.758884 
3068.000000	97.758401 
3067.000000	97.759594 
3066.000000	97.762536 
3065.000000	97.764887 
3064.000000	97.764704 
3063.000000	97.762348 
3062.000000	97.759132 
3061.000000	97.755651 
3060.000000	97.752172 
3059.000000	97.749531 
3058.000000	97.748866 
3057.000000	97.750758 
3056.000000	97.754476 
3055.000000	97.757464 
3054.000000	97.756430 
3053.000000	97.750615 
3052.000000	97.743909 
3051.000000	97.741795 
3050.000000	97.745474 
3049.000000	97.750479 
3048.000000	97.751670 
3047.000000	97.748066 
3046.000000	97.742084 
3045.000000	97.736039 
3044.000000	97.731072 
3043.000000	97.728421 
3042.000000	97.729281 
3041.000000	97.732737 
3040.000000	97.735203 
3039.000000	97.733169 
3038.000000	97.726417 
3037.000000	97.717918 
3036.000000	97.710493 
3035.000000	97.704030 
3034.000000	97.696539 
3033.000000	97.687277 
3032.000000	97.677682 
3031.000000	97.669380 
3030.000000	97.662456 
3029.000000	97.655955 
3028.000000	97.648774 
3027.000000	97.639437 
3026.000000	97.626474 
3025.000000	97.610312 
3024.000000	97.593888 
3023.000000	97.579949 
3022.000000	97.568322 
3021.000000	97.557288 
3020.000000	97.546694 
3019.000000	97.537516 
3018.000000	97.528525 
3017.000000	97.516013 
3016.000000	97.498013 
3015.000000	97.477184 
3014.000000	97.458308 
3013.000000	97.443616 
3012.000000	97.431283 
3011.000000	97.417722 
3010.000000	97.400678 
3009.000000	97.380752 
3008.000000	97.360616 
3007.000000	97.342557 
3006.000000	97.326469 
3005.000000	97.310502 
3004.000000	97.293434 
3003.000000	97.275762 
3002.000000	97.258640 
3001.000000	97.242741 
3000.000000	97.228128 
2999.000000	97.214162 
2998.000000	97.199493 
2997.000000	97.183450 
2996.000000	97.167481 
2995.000000	97.153536 
2994.000000	97.140290 
2993.000000	97.122665 
2992.000000	97.096882 
2991.000000	97.065660 
2990.000000	97.037145 
2989.000000	97.018707 
2988.000000	97.012387 
2987.000000	97.015352 
2986.000000	97.023047 
2985.000000	97.031830 
2984.000000	97.039756 
2983.000000	97.046164 
2982.000000	97.050963 
2981.000000	97.054077 
2980.000000	97.055113 
2979.000000	97.053432 
2978.000000	97.048851 
2977.000000	97.042569 
2976.000000	97.036974 
2975.000000	97.033897 
2974.000000	97.033227 
2973.000000	97.033874 
2972.000000	97.035834 
2971.000000	97.040300 
2970.000000	97.047770 
2969.000000	97.057323 
2968.000000	97.068118 
2967.000000	97.080363 
2966.000000	97.094032 
2965.000000	97.107705 
2964.000000	97.119821 
2963.000000	97.130478 
2962.000000	97.140914 
2961.000000	97.151575 
2960.000000	97.161883 
2959.000000	97.171906 
2958.000000	97.183032 
2957.000000	97.196353 
2956.000000	97.210778 
2955.000000	97.223387 
2954.000000	97.231940 
2953.000000	97.237207 
2952.000000	97.242715 
2951.000000	97.251722 
2950.000000	97.264064 
2949.000000	97.276232 
2948.000000	97.284728 
2947.000000	97.288807 
2946.000000	97.290053 
2945.000000	97.290375 
2944.000000	97.291075 
2943.000000	97.293007 
2942.000000	97.296070 
2941.000000	97.298569 
2940.000000	97.298583 
2939.000000	97.296451 
2938.000000	97.294818 
2937.000000	97.295709 
2936.000000	97.298389 
2935.000000	97.300477 
2934.000000	97.300247 
2933.000000	97.297233 
2932.000000	97.291776 
2931.000000	97.285214 
2930.000000	97.279991 
2929.000000	97.278080 
2928.000000	97.278999 
2927.000000	97.280222 
2926.000000	97.279895 
2925.000000	97.278687 
2924.000000	97.278738 
2923.000000	97.281213 
2922.000000	97.285034 
2921.000000	97.287698 
2920.000000	97.287406 
2919.000000	97.284762 
2918.000000	97.282217 
2917.000000	97.281121 
2916.000000	97.279559 
2915.000000	97.274278 
2914.000000	97.265090 
2913.000000	97.256121 
2912.000000	97.251768 
2911.000000	97.252120 
2910.000000	97.253455 
2909.000000	97.252752 
2908.000000	97.250460 
2907.000000	97.248527 
2906.000000	97.246895 
2905.000000	97.242761 
2904.000000	97.233591 
2903.000000	97.220745 
2902.000000	97.210760 
2901.000000	97.210792 
2900.000000	97.222982 
2899.000000	97.242744 
2898.000000	97.262425 
2897.000000	97.277350 
2896.000000	97.287293 
2895.000000	97.293419 
2894.000000	97.296486 
2893.000000	97.298269 
2892.000000	97.301971 
2891.000000	97.309195 
2890.000000	97.317776 
2889.000000	97.324386 
2888.000000	97.328459 
2887.000000	97.331762 
2886.000000	97.334955 
2885.000000	97.337159 
2884.000000	97.339150 
2883.000000	97.344324 
2882.000000	97.355047 
2881.000000	97.369617 
2880.000000	97.384318 
2879.000000	97.397612 
2878.000000	97.410581 
2877.000000	97.423816 
2876.000000	97.435848 
2875.000000	97.445067 
2874.000000	97.451787 
2873.000000	97.457647 
2872.000000	97.463781 
2871.000000	97.470317 
2870.000000	97.477182 
2869.000000	97.484576 
2868.000000	97.492698 
2867.000000	97.501548 
2866.000000	97.510996 
2865.000000	97.520743 
2864.000000	97.530416 
2863.000000	97.540191 
2862.000000	97.551173 
2861.000000	97.564391 
2860.000000	97.579200 
2859.000000	97.593433 
2858.000000	97.605686 
2857.000000	97.617052 
2856.000000	97.629830 
2855.000000	97.644535 
2854.000000	97.658976 
2853.000000	97.670425 
2852.000000	97.678117 
2851.000000	97.683654 
2850.000000	97.689472 
2849.000000	97.697013 
2848.000000	97.705932 
2847.000000	97.714650 
2846.000000	97.721735 
2845.000000	97.727062 
2844.000000	97.731765 
2843.000000	97.737185 
2842.000000	97.743898 
2841.000000	97.751396 
2840.000000	97.758305 
2839.000000	97.763230 
2838.000000	97.766037 
2837.000000	97.768302 
2836.000000	97.771954 
2835.000000	97.777350 
2834.000000	97.783351 
2833.000000	97.789345 
2832.000000	97.796138 
2831.000000	97.804178 
2830.000000	97.811722 
2829.000000	97.816034 
2828.000000	97.816368 
2827.000000	97.815017 
2826.000000	97.815272 
2825.000000	97.818617 
2824.000000	97.823964 
2823.000000	97.829023 
2822.000000	97.832207 
2821.000000	97.833571 
2820.000000	97.834249 
2819.000000	97.835082 
2818.000000	97.835963 
2817.000000	97.836670 
2816.000000	97.837884 
2815.000000	97.840613 
2814.000000	97.844548 
2813.000000	97.847680 
2812.000000	97.848118 
2811.000000	97.846100 
2810.000000	97.843921 
2809.000000	97.843948 
2808.000000	97.846860 
2807.000000	97.851692 
2806.000000	97.856959 
2805.000000	97.861487 
2804.000000	97.864477 
2803.000000	97.865493 
2802.000000	97.864875 
2801.000000	97.864001 
2800.000000	97.864486 
2799.000000	97.866771 
2798.000000	97.869719 
2797.000000	97.871794 
2796.000000	97.872553 
2795.000000	97.872797 
2794.000000	97.873521 
2793.000000	97.875037 
2792.000000	97.877056 
2791.000000	97.879152 
2790.000000	97.880961 
2789.000000	97.882229 
2788.000000	97.882986 
2787.000000	97.883613 
2786.000000	97.884554 
2785.000000	97.885953 
2784.000000	97.887623 
2783.000000	97.889292 
2782.000000	97.890798 
2781.000000	97.892120 
2780.000000	97.893317 
2779.000000	97.894470 
2778.000000	97.895660 
2777.000000	97.896923 
2776.000000	97.898221 
2775.000000	97.899491 
2774.000000	97.900740 
2773.000000	97.902040 
2772.000000	97.903418 
2771.000000	97.904803 
2770.000000	97.906135 
2769.000000	97.907456 
2768.000000	97.908825 
2767.000000	97.910177 
2766.000000	97.911380 
2765.000000	97.912432 
2764.000000	97.913469 
2763.000000	97.914557 
2762.000000	97.915622 
2761.000000	97.916578 
2760.000000	97.917446 
2759.000000	97.918315 
2758.000000	97.919219 
2757.000000	97.920061 
2756.000000	97.920692 
2755.000000	97.921097 
2754.000000	97.921508 
2753.000000	97.922233 
2752.000000	97.923333 
2751.000000	97.924579 
2750.000000	97.925721 
2749.000000	97.926755 
2748.000000	97.927772 
2747.000000	97.928659 
2746.000000	97.929215 
2745.000000	97.929481 
2744.000000	97.929778 
2743.000000	97.930373 
2742.000000	97.931228 
2741.000000	97.932116 
2740.000000	97.932875 
2739.000000	97.933514 
2738.000000	97.934109 
2737.000000	97.934705 
2736.000000	97.935321 
2735.000000	97.935976 
2734.000000	97.936672 
2733.000000	97.937385 
2732.000000	97.938091 
2731.000000	97.938778 
2730.000000	97.939457 
2729.000000	97.940143 
2728.000000	97.940836 
2727.000000	97.941519 
2726.000000	97.942173 
2725.000000	97.942803 
2724.000000	97.943434 
2723.000000	97.944084 
2722.000000	97.944748 
2721.000000	97.945410 
2720.000000	97.946064 
2719.000000	97.946718 
2718.000000	97.947377 
2717.000000	97.948036 
2716.000000	97.948686 
2715.000000	97.949320 
2714.000000	97.949945 
2713.000000	97.950578 
2712.000000	97.951225 
2711.000000	97.951878 
2710.000000	97.952524 
2709.000000	97.953157 
2708.000000	97.953780 
2707.000000	97.954397 
2706.000000	97.955009 
2705.000000	97.955618 
2704.000000	97.956213 
2703.000000	97.956772 
2702.000000	97.957292 
2701.000000	97.957829 
2700.000000	97.958469 
2699.000000	97.959248 
2698.000000	97.960084 
2697.000000	97.960795 
2696.000000	97.961262 
2695.000000	97.961518 
2694.000000	97.961728 
2693.000000	97.962006 
2692.000000	97.962345 
2691.000000	97.962675 
2690.000000	97.962964 
2689.000000	97.963233 
2688.000000	97.963508 
2687.000000	97.963778 
2686.000000	97.964019 
2685.000000	97.964239 
2684.000000	97.964464 
2683.000000	97.964695 
2682.000000	97.964897 
2681.000000	97.965031 
2680.000000	97.965101 
2679.000000	97.965155 
2678.000000	97.965267 
2677.000000	97.965481 
2676.000000	97.965747 
2675.000000	97.965916 
2674.000000	97.965873 
2673.000000	97.965674 
2672.000000	97.965534 
2671.000000	97.965557 
2670.000000	97.965591 
2669.000000	97.965430 
2668.000000	97.965090 
2667.000000	97.964776 
2666.000000	97.964594 
2665.000000	97.964413 
2664.000000	97.964072 
2663.000000	97.963603 
2662.000000	97.963191 
2661.000000	97.962942 
2660.000000	97.962768 
2659.000000	97.962501 
2658.000000	97.962087 
2657.000000	97.961637 
2656.000000	97.961305 
2655.000000	97.961120 
2654.000000	97.960945 
2653.000000	97.960603 
2652.000000	97.960075 
2651.000000	97.959574 
2650.000000	97.959363 
2649.000000	97.959502 
2648.000000	97.959764 
2647.000000	97.959825 
2646.000000	97.959527 
2645.000000	97.958922 
2644.000000	97.958174 
2643.000000	97.957436 
2642.000000	97.956791 
2641.000000	97.956237 
2640.000000	97.955741 
2639.000000	97.955347 
2638.000000	97.955188 
2637.000000	97.955299 
2636.000000	97.955531 
2635.000000	97.955773 
2634.000000	97.956127 
2633.000000	97.956689 
2632.000000	97.957216 
2631.000000	97.957281 
2630.000000	97.956784 
2629.000000	97.956095 
2628.000000	97.955651 
2627.000000	97.955485 
2626.000000	97.955364 
2625.000000	97.955204 
2624.000000	97.955163 
2623.000000	97.955384 
2622.000000	97.955794 
2621.000000	97.956164 
2620.000000	97.956252 
2619.000000	97.955923 
2618.000000	97.955266 
2617.000000	97.954626 
2616.000000	97.954348 
2615.000000	97.954478 
2614.000000	97.954778 
2613.000000	97.955013 
2612.000000	97.955149 
2611.000000	97.955297 
2610.000000	97.955582 
2609.000000	97.956040 
2608.000000	97.956564 
2607.000000	97.956933 
2606.000000	97.957041 
2605.000000	97.957015 
2604.000000	97.957033 
2603.000000	97.957112 
2602.000000	97.957182 
2601.000000	97.957254 
2600.000000	97.957386 
2599.000000	97.957559 
2598.000000	97.957721 
2597.000000	97.957862 
2596.000000	97.958002 
2595.000000	97.958154 
2594.000000	97.958316 
2593.000000	97.958476 
2592.000000	97.958650 
2591.000000	97.958865 
2590.000000	97.959109 
2589.000000	97.959326 
2588.000000	97.959483 
2587.000000	97.959623 
2586.000000	97.959819 
2585.000000	97.960108 
2584.000000	97.960484 
2583.000000	97.960907 
2582.000000	97.961276 
2581.000000	97.961476 
2580.000000	97.961504 
2579.000000	97.961533 
2578.000000	97.961747 
2577.000000	97.962172 
2576.000000	97.962665 
2575.000000	97.963035 
2574.000000	97.963170 
2573.000000	97.963091 
2572.000000	97.962981 
2571.000000	97.963038 
2570.000000	97.963245 
2569.000000	97.963383 
2568.000000	97.963341 
2567.000000	97.963306 
2566.000000	97.963490 
2565.000000	97.963811 
2564.000000	97.964011 
2563.000000	97.964007 
2562.000000	97.963971 
2561.000000	97.964132 
2560.000000	97.964690 
2559.000000	97.965790 
2558.000000	97.967345 
2557.000000	97.968831 
2556.000000	97.969601 
2555.000000	97.969476 
2554.000000	97.968876 
2553.000000	97.968327 
2552.000000	97.967933 
2551.000000	97.967630 
2550.000000	97.967622 
2549.000000	97.968126 
2548.000000	97.968770 
2547.000000	97.968791 
2546.000000	97.968011 
2545.000000	97.967160 
2544.000000	97.966865 
2543.000000	97.966784 
2542.000000	97.966198 
2541.000000	97.965203 
2540.000000	97.964701 
2539.000000	97.965179 
2538.000000	97.966120 
2537.000000	97.966752 
2536.000000	97.967024 
2535.000000	97.967390 
2534.000000	97.967961 
2533.000000	97.968341 
2532.000000	97.968251 
2531.000000	97.967902 
2530.000000	97.967630 
2529.000000	97.967402 
2528.000000	97.966928 
2527.000000	97.966170 
2526.000000	97.965564 
2525.000000	97.965624 
2524.000000	97.966437 
2523.000000	97.967591 
2522.000000	97.968518 
2521.000000	97.968914 
2520.000000	97.968814 
2519.000000	97.968451 
2518.000000	97.968099 
2517.000000	97.967915 
2516.000000	97.967831 
2515.000000	97.967670 
2514.000000	97.967467 
2513.000000	97.967540 
2512.000000	97.968109 
2511.000000	97.969050 
2510.000000	97.970119 
2509.000000	97.971219 
2508.000000	97.972265 
2507.000000	97.973008 
2506.000000	97.973300 
2505.000000	97.973438 
2504.000000	97.973947 
2503.000000	97.974949 
2502.000000	97.975974 
2501.000000	97.976495 
2500.000000	97.976475 
2499.000000	97.976263 
2498.000000	97.976228 
2497.000000	97.976489 
2496.000000	97.977022 
2495.000000	97.977751 
2494.000000	97.978495 
2493.000000	97.979028 
2492.000000	97.979289 
2491.000000	97.979491 
2490.000000	97.979913 
2489.000000	97.980548 
2488.000000	97.981069 
2487.000000	97.981201 
2486.000000	97.981041 
2485.000000	97.980965 
2484.000000	97.981206 
2483.000000	97.981624 
2482.000000	97.981956 
2481.000000	97.982228 
2480.000000	97.982725 
2479.000000	97.983549 
2478.000000	97.984459 
2477.000000	97.985221 
2476.000000	97.985812 
2475.000000	97.986115 
2474.000000	97.985840 
2473.000000	97.985012 
2472.000000	97.984216 
2471.000000	97.983951 
2470.000000	97.984018 
2469.000000	97.983900 
2468.000000	97.983499 
2467.000000	97.983077 
2466.000000	97.982678 
2465.000000	97.982191 
2464.000000	97.981947 
2463.000000	97.982653 
2462.000000	97.984622 
2461.000000	97.987396 
2460.000000	97.990167 
2459.000000	97.992336 
2458.000000	97.993481 
2457.000000	97.993239 
2456.000000	97.991435 
2455.000000	97.988317 
2454.000000	97.984712 
2453.000000	97.981696 
2452.000000	97.979951 
2451.000000	97.979523 
2450.000000	97.980224 
2449.000000	97.981994 
2448.000000	97.984485 
2447.000000	97.986573 
2446.000000	97.987025 
2445.000000	97.985804 
2444.000000	97.984194 
2443.000000	97.983387 
2442.000000	97.983388 
2441.000000	97.983571 
2440.000000	97.983806 
2439.000000	97.984575 
2438.000000	97.986243 
2437.000000	97.988654 
2436.000000	97.991249 
2435.000000	97.993340 
2434.000000	97.994445 
2433.000000	97.994575 
2432.000000	97.994235 
2431.000000	97.994068 
2430.000000	97.994592 
2429.000000	97.996057 
2428.000000	97.998183 
2427.000000	98.000059 
2426.000000	98.000815 
2425.000000	98.000394 
2424.000000	97.999465 
2423.000000	97.998672 
2422.000000	97.998266 
2421.000000	97.998524 
2420.000000	97.999811 
2419.000000	98.001920 
2418.000000	98.003918 
2417.000000	98.005200 
2416.000000	98.006140 
2415.000000	98.007311 
2414.000000	98.008677 
2413.000000	98.010041 
2412.000000	98.011605 
2411.000000	98.013417 
2410.000000	98.014804 
2409.000000	98.015176 
2408.000000	98.015069 
2407.000000	98.015581 
2406.000000	98.016949 
2405.000000	98.018411 
2404.000000	98.019247 
2403.000000	98.019328 
2402.000000	98.018917 
2401.000000	98.018649 
2400.000000	98.019451 
2399.000000	98.021691 
2398.000000	98.024742 
2397.000000	98.027757 
2396.000000	98.030491 
2395.000000	98.032805 
2394.000000	98.033993 
2393.000000	98.033694 
2392.000000	98.033009 
2391.000000	98.033634 
2390.000000	98.035867 
2389.000000	98.038567 
2388.000000	98.040821 
2387.000000	98.042782 
2386.000000	98.044895 
2385.000000	98.047131 
2384.000000	98.049182 
2383.000000	98.050710 
2382.000000	98.051275 
2381.000000	98.050684 
2380.000000	98.049530 
2379.000000	98.048819 
2378.000000	98.048774 
2377.000000	98.048646 
2376.000000	98.047987 
2375.000000	98.047511 
2374.000000	98.048171 
2373.000000	98.049834 
2372.000000	98.051474 
2371.000000	98.052478 
2370.000000	98.053099 
2369.000000	98.053562 
2368.000000	98.053523 
2367.000000	98.052726 
2366.000000	98.051494 
2365.000000	98.050370 
2364.000000	98.049622 
2363.000000	98.049275 
2362.000000	98.049347 
2361.000000	98.049810 
2360.000000	98.050431 
2359.000000	98.050887 
2358.000000	98.050961 
2357.000000	98.050659 
2356.000000	98.050147 
2355.000000	98.049577 
2354.000000	98.048996 
2353.000000	98.048464 
2352.000000	98.048059 
2351.000000	98.047748 
2350.000000	98.047448 
2349.000000	98.047108 
2348.000000	98.046739 
2347.000000	98.046371 
2346.000000	98.046041 
2345.000000	98.045761 
2344.000000	98.045519 
2343.000000	98.045292 
2342.000000	98.045069 
2341.000000	98.044849 
2340.000000	98.044642 
2339.000000	98.044458 
2338.000000	98.044268 
2337.000000	98.044008 
2336.000000	98.043664 
2335.000000	98.043315 
2334.000000	98.042986 
2333.000000	98.042609 
2332.000000	98.042270 
2331.000000	98.042220 
2330.000000	98.042414 
2329.000000	98.042417 
2328.000000	98.041985 
2327.000000	98.041321 
2326.000000	98.040611 
2325.000000	98.039792 
2324.000000	98.039131 
2323.000000	98.039251 
2322.000000	98.040082 
2321.000000	98.040464 
2320.000000	98.039791 
2319.000000	98.039148 
2318.000000	98.039732 
2317.000000	98.040858 
2316.000000	98.040779 
2315.000000	98.039081 
2314.000000	98.037053 
2313.000000	98.036107 
2312.000000	98.036820 
2311.000000	98.039136 
2310.000000	98.041955 
2309.000000	98.043240 
2308.000000	98.041915 
2307.000000	98.039315 
2306.000000	98.037325 
2305.000000	98.036058 
2304.000000	98.034517 
2303.000000	98.032903 
2302.000000	98.032797 
2301.000000	98.034717 
2300.000000	98.036736 
2299.000000	98.035914 
2298.000000	98.030500 
2297.000000	98.020806 
2296.000000	98.009316 
2295.000000	97.999616 
2294.000000	97.994005 
2293.000000	97.991677 
2292.000000	97.989969 
2291.000000	97.987371 
2290.000000	97.984824 
2289.000000	97.984041 
2288.000000	97.985059 
2287.000000	97.986006 
2286.000000	97.985157 
2285.000000	97.982907 
2284.000000	97.981286 
2283.000000	97.981432 
2282.000000	97.982047 
2281.000000	97.980909 
2280.000000	97.977367 
2279.000000	97.972497 
2278.000000	97.967305 
2277.000000	97.962115 
2276.000000	97.957710 
2275.000000	97.955526 
2274.000000	97.956120 
2273.000000	97.958453 
2272.000000	97.960998 
2271.000000	97.962798 
2270.000000	97.963355 
2269.000000	97.962640 
2268.000000	97.961513 
2267.000000	97.961109 
2266.000000	97.961545 
2265.000000	97.962037 
2264.000000	97.962127 
2263.000000	97.961741 
2262.000000	97.960266 
2261.000000	97.957069 
2260.000000	97.953014 
2259.000000	97.950013 
2258.000000	97.948756 
2257.000000	97.948348 
2256.000000	97.948460 
2255.000000	97.950095 
2254.000000	97.953319 
2253.000000	97.955649 
2252.000000	97.954542 
2251.000000	97.950130 
2250.000000	97.944417 
2249.000000	97.938943 
2248.000000	97.934312 
2247.000000	97.931306 
2246.000000	97.930513 
2245.000000	97.931087 
2244.000000	97.931087 
2243.000000	97.929525 
2242.000000	97.927217 
2241.000000	97.925556 
2240.000000	97.925090 
2239.000000	97.925402 
2238.000000	97.925706 
2237.000000	97.925419 
2236.000000	97.924493 
2235.000000	97.923272 
2234.000000	97.921997 
2233.000000	97.920598 
2232.000000	97.919029 
2231.000000	97.917467 
2230.000000	97.915975 
2229.000000	97.914294 
2228.000000	97.912275 
2227.000000	97.910226 
2226.000000	97.908525 
2225.000000	97.907108 
2224.000000	97.905622 
2223.000000	97.903934 
2222.000000	97.902253 
2221.000000	97.900770 
2220.000000	97.899422 
2219.000000	97.898074 
2218.000000	97.896693 
2217.000000	97.895319 
2216.000000	97.893972 
2215.000000	97.892636 
2214.000000	97.891306 
2213.000000	97.889981 
2212.000000	97.888668 
2211.000000	97.887392 
2210.000000	97.886172 
2209.000000	97.885002 
2208.000000	97.883851 
2207.000000	97.882691 
2206.000000	97.881505 
2205.000000	97.880286 
2204.000000	97.879015 
2203.000000	97.877729 
2202.000000	97.876623 
2201.000000	97.875791 
2200.000000	97.874899 
2199.000000	97.873314 
2198.000000	97.870752 
2197.000000	97.867784 
2196.000000	97.865400 
2195.000000	97.864023 
2194.000000	97.863293 
2193.000000	97.862924 
2192.000000	97.863279 
2191.000000	97.864558 
2190.000000	97.865850 
2189.000000	97.865897 
2188.000000	97.864634 
2187.000000	97.862778 
2186.000000	97.859920 
2185.000000	97.854750 
2184.000000	97.848151 
2183.000000	97.844308 
2182.000000	97.846641 
2181.000000	97.853600 
2180.000000	97.859659 
2179.000000	97.861166 
2178.000000	97.859297 
2177.000000	97.857430 
2176.000000	97.857514 
2175.000000	97.859232 
2174.000000	97.861229 
2173.000000	97.862316 
2172.000000	97.862375 
2171.000000	97.862373 
2170.000000	97.862676 
2169.000000	97.861616 
2168.000000	97.857356 
2167.000000	97.851261 
2166.000000	97.847239 
2165.000000	97.846676 
2164.000000	97.845947 
2163.000000	97.841061 
2162.000000	97.834239 
2161.000000	97.833295 
2160.000000	97.843831 
2159.000000	97.863633 
2158.000000	97.884379 
2157.000000	97.899111 
2156.000000	97.906981 
2155.000000	97.910952 
2154.000000	97.914015 
2153.000000	97.918044 
2152.000000	97.923603 
2151.000000	97.928917 
2150.000000	97.930457 
2149.000000	97.927097 
2148.000000	97.923103 
2147.000000	97.924158 
2146.000000	97.930407 
2145.000000	97.936655 
2144.000000	97.940148 
2143.000000	97.944368 
2142.000000	97.952803 
2141.000000	97.962467 
2140.000000	97.967619 
2139.000000	97.968340 
2138.000000	97.970992 
2137.000000	97.979695 
2136.000000	97.990582 
2135.000000	97.996039 
2134.000000	97.992687 
2133.000000	97.983944 
2132.000000	97.976459 
2131.000000	97.974321 
2130.000000	97.976568 
2129.000000	97.979522 
2128.000000	97.980976 
2127.000000	97.981980 
2126.000000	97.984701 
2125.000000	97.989398 
2124.000000	97.994036 
2123.000000	97.996280 
2122.000000	97.995228 
2121.000000	97.991652 
2120.000000	97.987272 
2119.000000	97.983548 
2118.000000	97.980853 
2117.000000	97.978937 
2116.000000	97.977715 
2115.000000	97.976882 
2114.000000	97.975132 
2113.000000	97.971294 
2112.000000	97.966640 
2111.000000	97.964386 
2110.000000	97.966070 
2109.000000	97.969791 
2108.000000	97.972782 
2107.000000	97.974441 
2106.000000	97.975663 
2105.000000	97.976782 
2104.000000	97.977718 
2103.000000	97.978769 
2102.000000	97.979543 
2101.000000	97.978188 
2100.000000	97.973657 
2099.000000	97.968183 
2098.000000	97.965710 
2097.000000	97.967859 
2096.000000	97.972913 
2095.000000	97.978084 
2094.000000	97.981577 
2093.000000	97.982684 
2092.000000	97.981446 
2091.000000	97.979003 
2090.000000	97.977356 
2089.000000	97.977851 
2088.000000	97.980061 
2087.000000	97.982168 
2086.000000	97.982281 
2085.000000	97.979640 
2084.000000	97.975286 
2083.000000	97.971539 
2082.000000	97.970157 
2081.000000	97.971073 
2080.000000	97.973190 
2079.000000	97.975717 
2078.000000	97.977789 
2077.000000	97.977658 
2076.000000	97.974018 
2075.000000	97.968039 
2074.000000	97.962700 
2073.000000	97.959424 
2072.000000	97.957038 
2071.000000	97.954129 
2070.000000	97.950877 
2069.000000	97.948219 
2068.000000	97.946585 
2067.000000	97.946024 
2066.000000	97.946389 
2065.000000	97.946695 
2064.000000	97.945374 
2063.000000	97.942081 
2062.000000	97.938477 
2061.000000	97.936637 
2060.000000	97.937127 
2059.000000	97.939195 
2058.000000	97.941682 
2057.000000	97.943240 
2056.000000	97.942653 
2055.000000	97.939641 
2054.000000	97.935299 
2053.000000	97.931206 
2052.000000	97.928120 
2051.000000	97.925769 
2050.000000	97.923683 
2049.000000	97.921783 
2048.000000	97.920320 
2047.000000	97.919598 
2046.000000	97.919709 
2045.000000	97.920337 
2044.000000	97.920903 
2043.000000	97.920992 
2042.000000	97.920608 
2041.000000	97.920071 
2040.000000	97.919833 
2039.000000	97.920281 
2038.000000	97.921440 
2037.000000	97.922699 
2036.000000	97.923169 
2035.000000	97.922507 
2034.000000	97.921225 
2033.000000	97.920301 
2032.000000	97.920252 
2031.000000	97.920758 
2030.000000	97.921054 
2029.000000	97.920633 
2028.000000	97.919602 
2027.000000	97.918454 
2026.000000	97.917541 
2025.000000	97.916919 
2024.000000	97.916599 
2023.000000	97.916775 
2022.000000	97.917655 
2021.000000	97.919058 
2020.000000	97.920203 
2019.000000	97.920225 
2018.000000	97.918828 
2017.000000	97.916537 
2016.000000	97.914424 
2015.000000	97.913199 
2014.000000	97.912653 
2013.000000	97.911887 
2012.000000	97.910382 
2011.000000	97.908870 
2010.000000	97.908620 
2009.000000	97.909866 
2008.000000	97.911381 
2007.000000	97.911872 
2006.000000	97.911380 
2005.000000	97.910791 
2004.000000	97.910522 
2003.000000	97.910396 
2002.000000	97.910486 
2001.000000	97.910965 
2000.000000	97.911153 
1999.000000	97.909691 
1998.000000	97.905929 
1997.000000	97.900743 
1996.000000	97.896079 
1995.000000	97.893552 
1994.000000	97.893502 
1993.000000	97.894872 
1992.000000	97.895806 
1991.000000	97.895346 
1990.000000	97.894411 
1989.000000	97.894632 
1988.000000	97.896237 
1987.000000	97.897453 
1986.000000	97.896318 
1985.000000	97.892747 
1984.000000	97.888642 
1983.000000	97.886017 
1982.000000	97.885365 
1981.000000	97.885961 
1980.000000	97.887139 
1979.000000	97.888764 
1978.000000	97.890544 
1977.000000	97.891814 
1976.000000	97.892304 
1975.000000	97.892635 
1974.000000	97.893789 
1973.000000	97.896233 
1972.000000	97.899550 
1971.000000	97.902763 
1970.000000	97.904988 
1969.000000	97.905825 
1968.000000	97.905308 
1967.000000	97.903790 
1966.000000	97.902158 
1965.000000	97.901785 
1964.000000	97.903690 
1963.000000	97.907777 
1962.000000	97.912894 
1961.000000	97.917480 
1960.000000	97.920450 
1959.000000	97.921564 
1958.000000	97.921513 
1957.000000	97.921737 
1956.000000	97.923297 
1955.000000	97.925843 
1954.000000	97.927981 
1953.000000	97.928904 
1952.000000	97.929139 
1951.000000	97.929625 
1950.000000	97.930703 
1949.000000	97.932384 
1948.000000	97.934839 
1947.000000	97.938000 
1946.000000	97.941029 
1945.000000	97.942928 
1944.000000	97.943540 
1943.000000	97.943514 
1942.000000	97.943516 
1941.000000	97.943740 
1940.000000	97.944194 
1939.000000	97.944864 
1938.000000	97.945663 
1937.000000	97.946707 
1936.000000	97.948389 
1935.000000	97.950736 
1934.000000	97.952954 
1933.000000	97.954297 
1932.000000	97.955112 
1931.000000	97.956394 
1930.000000	97.958470 
1929.000000	97.960526 
1928.000000	97.961790 
1927.000000	97.962393 
1926.000000	97.962819 
1925.000000	97.963284 
1924.000000	97.963820 
1923.000000	97.964588 
1922.000000	97.965412 
1921.000000	97.965600 
1920.000000	97.964981 
1919.000000	97.964245 
1918.000000	97.963777 
1917.000000	97.963036 
1916.000000	97.961753 
1915.000000	97.960930 
1914.000000	97.961588 
1913.000000	97.963417 
1912.000000	97.965136 
1911.000000	97.966000 
1910.000000	97.966151 
1909.000000	97.965873 
1908.000000	97.965461 
1907.000000	97.965310 
1906.000000	97.965451 
1905.000000	97.965338 
1904.000000	97.964575 
1903.000000	97.963691 
1902.000000	97.963470 
1901.000000	97.963852 
1900.000000	97.964241 
1899.000000	97.964353 
1898.000000	97.964371 
1897.000000	97.964464 
1896.000000	97.964545 
1895.000000	97.964513 
1894.000000	97.964392 
1893.000000	97.964229 
1892.000000	97.964070 
1891.000000	97.964009 
1890.000000	97.964109 
1889.000000	97.964297 
1888.000000	97.964468 
1887.000000	97.964626 
1886.000000	97.964813 
1885.000000	97.965007 
1884.000000	97.965174 
1883.000000	97.965330 
1882.000000	97.965526 
1881.000000	97.965807 
1880.000000	97.966184 
1879.000000	97.966630 
1878.000000	97.967089 
1877.000000	97.967543 
1876.000000	97.968058 
1875.000000	97.968716 
1874.000000	97.969525 
1873.000000	97.970406 
1872.000000	97.971276 
1871.000000	97.972127 
1870.000000	97.972983 
1869.000000	97.973834 
1868.000000	97.974680 
1867.000000	97.975607 
1866.000000	97.976694 
1865.000000	97.977848 
1864.000000	97.978883 
1863.000000	97.979788 
1862.000000	97.980803 
1861.000000	97.982105 
1860.000000	97.983602 
1859.000000	97.985143 
1858.000000	97.986736 
1857.000000	97.988362 
1856.000000	97.989890 
1855.000000	97.991289 
1854.000000	97.992665 
1853.000000	97.993984 
1852.000000	97.995177 
1851.000000	97.996433 
1850.000000	97.997955 
1849.000000	97.999603 
1848.000000	98.000996 
1847.000000	98.002078 
1846.000000	98.003229 
1845.000000	98.004742 
1844.000000	98.006486 
1843.000000	98.008257 
1842.000000	98.010058 
1841.000000	98.011851 
1840.000000	98.013641 
1839.000000	98.015550 
1838.000000	98.017488 
1837.000000	98.018906 
1836.000000	98.019352 
1835.000000	98.019357 
1834.000000	98.020008 
1833.000000	98.021634 
1832.000000	98.023804 
1831.000000	98.025770 
1830.000000	98.026809 
1829.000000	98.026916 
1828.000000	98.026970 
1827.000000	98.027932 
1826.000000	98.029976 
1825.000000	98.032155 
1824.000000	98.033199 
1823.000000	98.032918 
1822.000000	98.032495 
1821.000000	98.032733 
1820.000000	98.033036 
1819.000000	98.032565 
1818.000000	98.032129 
1817.000000	98.033064 
1816.000000	98.034320 
1815.000000	98.034403 
1814.000000	98.034190 
1813.000000	98.035717 
1812.000000	98.038530 
1811.000000	98.039310 
1810.000000	98.037551 
1809.000000	98.036311 
1808.000000	98.036527 
1807.000000	98.036475 
1806.000000	98.035858 
1805.000000	98.035884 
1804.000000	98.035916 
1803.000000	98.033952 
1802.000000	98.029586 
1801.000000	98.025249 
1800.000000	98.023008 
1799.000000	98.022318 
1798.000000	98.022935 
1797.000000	98.024144 
1796.000000	98.023463 
1795.000000	98.020379 
1794.000000	98.017798 
1793.000000	98.018357 
1792.000000	98.019902 
1791.000000	98.018759 
1790.000000	98.017065 
1789.000000	98.018756 
1788.000000	98.023650 
1787.000000	98.028850 
1786.000000	98.032769 
1785.000000	98.035480 
1784.000000	98.036582 
1783.000000	98.036791 
1782.000000	98.037433 
1781.000000	98.038737 
1780.000000	98.040300 
1779.000000	98.041879 
1778.000000	98.044663 
1777.000000	98.048573 
1776.000000	98.051588 
1775.000000	98.052547 
1774.000000	98.051923 
1773.000000	98.051603 
1772.000000	98.052907 
1771.000000	98.054256 
1770.000000	98.054259 
1769.000000	98.054340 
1768.000000	98.055952 
1767.000000	98.058393 
1766.000000	98.060142 
1765.000000	98.061366 
1764.000000	98.063281 
1763.000000	98.065679 
1762.000000	98.066973 
1761.000000	98.067041 
1760.000000	98.067322 
1759.000000	98.068399 
1758.000000	98.069703 
1757.000000	98.070313 
1756.000000	98.070694 
1755.000000	98.071240 
1754.000000	98.071158 
1753.000000	98.070033 
1752.000000	98.069054 
1751.000000	98.069929 
1750.000000	98.072528 
1749.000000	98.075063 
1748.000000	98.076461 
1747.000000	98.077145 
1746.000000	98.077201 
1745.000000	98.076805 
1744.000000	98.076931 
1743.000000	98.077642 
1742.000000	98.077749 
1741.000000	98.077055 
1740.000000	98.076854 
1739.000000	98.077882 
1738.000000	98.078906 
1737.000000	98.078938 
1736.000000	98.078194 
1735.000000	98.077208 
1734.000000	98.076365 
1733.000000	98.075678 
1732.000000	98.075742 
1731.000000	98.077687 
1730.000000	98.081418 
1729.000000	98.084374 
1728.000000	98.085075 
1727.000000	98.084361 
1726.000000	98.083558 
1725.000000	98.083163 
1724.000000	98.083085 
1723.000000	98.082887 
1722.000000	98.082626 
1721.000000	98.082289 
1720.000000	98.081886 
1719.000000	98.081195 
1718.000000	98.080183 
1717.000000	98.079376 
1716.000000	98.077751 
1715.000000	98.075036 
1714.000000	98.073531 
1713.000000	98.073658 
1712.000000	98.073220 
1711.000000	98.071356 
1710.000000	98.069326 
1709.000000	98.067966 
1708.000000	98.066954 
1707.000000	98.065935 
1706.000000	98.064986 
1705.000000	98.063697 
1704.000000	98.060763 
1703.000000	98.056381 
1702.000000	98.052000 
1701.000000	98.049288 
1700.000000	98.047869 
1699.000000	98.045645 
1698.000000	98.043064 
1697.000000	98.041363 
1696.000000	98.040007 
1695.000000	98.037995 
1694.000000	98.035392 
1693.000000	98.032745 
1692.000000	98.030225 
1691.000000	98.027690 
1690.000000	98.025055 
1689.000000	98.022281 
1688.000000	98.019378 
1687.000000	98.016416 
1686.000000	98.013490 
1685.000000	98.010721 
1684.000000	98.007951 
1683.000000	98.004988 
1682.000000	98.001894 
1681.000000	97.998710 
1680.000000	97.995572 
1679.000000	97.992528 
1678.000000	97.989503 
1677.000000	97.986318 
1676.000000	97.983061 
1675.000000	97.979965 
1674.000000	97.976606 
1673.000000	97.972499 
1672.000000	97.968352 
1671.000000	97.965328 
1670.000000	97.963501 
1669.000000	97.961149 
1668.000000	97.957999 
1667.000000	97.955497 
1666.000000	97.953389 
1665.000000	97.950971 
1664.000000	97.948890 
1663.000000	97.948301 
1662.000000	97.947826 
1661.000000	97.943993 
1660.000000	97.938244 
1659.000000	97.934490 
1658.000000	97.933642 
1657.000000	97.931388 
1656.000000	97.927143 
1655.000000	97.922933 
1654.000000	97.921040 
1653.000000	97.919040 
1652.000000	97.912278 
1651.000000	97.902818 
1650.000000	97.892629 
1649.000000	97.886723 
1648.000000	97.884442 
1647.000000	97.884584 
1646.000000	97.884277 
1645.000000	97.883850 
1644.000000	97.881318 
1643.000000	97.878274 
1642.000000	97.877111 
1641.000000	97.877974 
1640.000000	97.879240 
1639.000000	97.879118 
1638.000000	97.877952 
1637.000000	97.876439 
1636.000000	97.873997 
1635.000000	97.872654 
1634.000000	97.873706 
1633.000000	97.874702 
1632.000000	97.873553 
1631.000000	97.871925 
1630.000000	97.873021 
1629.000000	97.876358 
1628.000000	97.879066 
1627.000000	97.881210 
1626.000000	97.884142 
1625.000000	97.887338 
1624.000000	97.890822 
1623.000000	97.896446 
1622.000000	97.903832 
1621.000000	97.908209 
1620.000000	97.908835 
1619.000000	97.910001 
1618.000000	97.914576 
1617.000000	97.918832 
1616.000000	97.918633 
1615.000000	97.918589 
1614.000000	97.922049 
1613.000000	97.925842 
1612.000000	97.927022 
1611.000000	97.928068 
1610.000000	97.932276 
1609.000000	97.938603 
1608.000000	97.945346 
1607.000000	97.953236 
1606.000000	97.960881 
1605.000000	97.965008 
1604.000000	97.967021 
1603.000000	97.970475 
1602.000000	97.975192 
1601.000000	97.978499 
1600.000000	97.980787 
1599.000000	97.984946 
1598.000000	97.990728 
1597.000000	97.995360 
1596.000000	97.998365 
1595.000000	98.002159 
1594.000000	98.007602 
1593.000000	98.012089 
1592.000000	98.014070 
1591.000000	98.015661 
1590.000000	98.018767 
1589.000000	98.022072 
1588.000000	98.024699 
1587.000000	98.028466 
1586.000000	98.033708 
1585.000000	98.036592 
1584.000000	98.036351 
1583.000000	98.038007 
1582.000000	98.043116 
1581.000000	98.047416 
1580.000000	98.048826 
1579.000000	98.051195 
1578.000000	98.057611 
1577.000000	98.065999 
1576.000000	98.071793 
1575.000000	98.074711 
1574.000000	98.075123 
1573.000000	98.072931 
1572.000000	98.072546 
1571.000000	98.078172 
1570.000000	98.086125 
1569.000000	98.084647 
1568.000000	98.074937 
1567.000000	98.067756 
1566.000000	98.066605 
1565.000000	98.066959 
1564.000000	98.067960 
1563.000000	98.069055 
1562.000000	98.068515 
1561.000000	98.060818 
1560.000000	98.052780 
1559.000000	98.051637 
1558.000000	98.050974 
1557.000000	98.049666 
1556.000000	98.045548 
1555.000000	98.045285 
1554.000000	98.042982 
1553.000000	98.039338 
1552.000000	98.035899 
1551.000000	98.032929 
1550.000000	98.025246 
1549.000000	98.012741 
1548.000000	98.001176 
1547.000000	97.995672 
1546.000000	97.993276 
1545.000000	97.987229 
1544.000000	97.975517 
1543.000000	97.962040 
1542.000000	97.952583 
1541.000000	97.948947 
1540.000000	97.939800 
1539.000000	97.921973 
1538.000000	97.903680 
1537.000000	97.885593 
1536.000000	97.868920 
1535.000000	97.856833 
1534.000000	97.850459 
1533.000000	97.844970 
1532.000000	97.835893 
1531.000000	97.822162 
1530.000000	97.807715 
1529.000000	97.795598 
1528.000000	97.783659 
1527.000000	97.768930 
1526.000000	97.751413 
1525.000000	97.733933 
1524.000000	97.719488 
1523.000000	97.708498 
1522.000000	97.697786 
1521.000000	97.682289 
1520.000000	97.660975 
1519.000000	97.637984 
1518.000000	97.617306 
1517.000000	97.600007 
1516.000000	97.584633 
1515.000000	97.571057 
1514.000000	97.559668 
1513.000000	97.550414 
1512.000000	97.540646 
1511.000000	97.525568 
1510.000000	97.504879 
1509.000000	97.483476 
1508.000000	97.465822 
1507.000000	97.446906 
1506.000000	97.425987 
1505.000000	97.408507 
1504.000000	97.391764 
1503.000000	97.374199 
1502.000000	97.355031 
1501.000000	97.336086 
1500.000000	97.319522 
1499.000000	97.304793 
1498.000000	97.287421 
1497.000000	97.267973 
1496.000000	97.251305 
1495.000000	97.238310 
1494.000000	97.227445 
1493.000000	97.219134 
1492.000000	97.214435 
1491.000000	97.210923 
1490.000000	97.202618 
1489.000000	97.187509 
1488.000000	97.167655 
1487.000000	97.145228 
1486.000000	97.124758 
1485.000000	97.106140 
1484.000000	97.087477 
1483.000000	97.070111 
1482.000000	97.054539 
1481.000000	97.039500 
1480.000000	97.022873 
1479.000000	97.005320 
1478.000000	96.989461 
1477.000000	96.976760 
1476.000000	96.963881 
1475.000000	96.946985 
1474.000000	96.927506 
1473.000000	96.910674 
1472.000000	96.900073 
1471.000000	96.892175 
1470.000000	96.882789 
1469.000000	96.871677 
1468.000000	96.859239 
1467.000000	96.845314 
1466.000000	96.831784 
1465.000000	96.821141 
1464.000000	96.813866 
1463.000000	96.805217 
1462.000000	96.791743 
1461.000000	96.776757 
1460.000000	96.766053 
1459.000000	96.761340 
1458.000000	96.752593 
1457.000000	96.731502 
1456.000000	96.708089 
1455.000000	96.690114 
1454.000000	96.673437 
1453.000000	96.660129 
1452.000000	96.653699 
1451.000000	96.654263 
1450.000000	96.658775 
1449.000000	96.667355 
1448.000000	96.678391 
1447.000000	96.685714 
1446.000000	96.684664 
1445.000000	96.678402 
1444.000000	96.674741 
1443.000000	96.674343 
1442.000000	96.672952 
1441.000000	96.668935 
1440.000000	96.664952 
1439.000000	96.661833 
1438.000000	96.656901 
1437.000000	96.651498 
1436.000000	96.651040 
1435.000000	96.653640 
1434.000000	96.653312 
1433.000000	96.652373 
1432.000000	96.655585 
1431.000000	96.663147 
1430.000000	96.670002 
1429.000000	96.673812 
1428.000000	96.676192 
1427.000000	96.679162 
1426.000000	96.683365 
1425.000000	96.688491 
1424.000000	96.696146 
1423.000000	96.703534 
1422.000000	96.706025 
1421.000000	96.706013 
1420.000000	96.710987 
1419.000000	96.717672 
1418.000000	96.713213 
1417.000000	96.701122 
1416.000000	96.696077 
1415.000000	96.701958 
1414.000000	96.709460 
1413.000000	96.710986 
1412.000000	96.710058 
1411.000000	96.712683 
1410.000000	96.717646 
1409.000000	96.723100 
1408.000000	96.731443 
1407.000000	96.745378 
1406.000000	96.763742 
1405.000000	96.783978 
1404.000000	96.807353 
1403.000000	96.832438 
1402.000000	96.855013 
1401.000000	96.876847 
1400.000000	96.904373 
1399.000000	96.937206 
1398.000000	96.963648 
1397.000000	96.974442 
1396.000000	96.973001 
1395.000000	96.972640 
1394.000000	96.984896 
1393.000000	97.012322 
1392.000000	97.051639 
1391.000000	97.095195 
1390.000000	97.134134 
1389.000000	97.163562 
1388.000000	97.183823 
1387.000000	97.197722 
1386.000000	97.208458 
1385.000000	97.220001 
1384.000000	97.236655 
1383.000000	97.258699 
1382.000000	97.281811 
1381.000000	97.302661 
1380.000000	97.321605 
1379.000000	97.341433 
1378.000000	97.364196 
1377.000000	97.389910 
1376.000000	97.417007 
1375.000000	97.443078 
1374.000000	97.465792 
1373.000000	97.485825 
1372.000000	97.506374 
1371.000000	97.529854 
1370.000000	97.555976 
1369.000000	97.581374 
1368.000000	97.604691 
1367.000000	97.627055 
1366.000000	97.649780 
1365.000000	97.673700 
1364.000000	97.697645 
1363.000000	97.717638 
1362.000000	97.731382 
1361.000000	97.742041 
1360.000000	97.754878 
1359.000000	97.772490 
1358.000000	97.793262 
1357.000000	97.813288 
1356.000000	97.830029 
1355.000000	97.843468 
1354.000000	97.855253 
1353.000000	97.868180 
1352.000000	97.883031 
1351.000000	97.898905 
1350.000000	97.915160 
1349.000000	97.929251 
1348.000000	97.939520 
1347.000000	97.946895 
1346.000000	97.954423 
1345.000000	97.963937 
1344.000000	97.975067 
1343.000000	97.986941 
1342.000000	97.999424 
1341.000000	98.011117 
1340.000000	98.018611 
1339.000000	98.020179 
1338.000000	98.018371 
1337.000000	98.017433 
1336.000000	98.019303 
1335.000000	98.022880 
1334.000000	98.026786 
1333.000000	98.031260 
1332.000000	98.036708 
1331.000000	98.042520 
1330.000000	98.047791 
1329.000000	98.052184 
1328.000000	98.055647 
1327.000000	98.058360 
1326.000000	98.060496 
1325.000000	98.061280 
1324.000000	98.060664 
1323.000000	98.059284 
1322.000000	98.057651 
1321.000000	98.056302 
1320.000000	98.056409 
1319.000000	98.058721 
1318.000000	98.062446 
1317.000000	98.066227 
1316.000000	98.069186 
1315.000000	98.070432 
1314.000000	98.069102 
1313.000000	98.066506 
1312.000000	98.066074 
1311.000000	98.069416 
1310.000000	98.073888 
1309.000000	98.076135 
1308.000000	98.076281 
1307.000000	98.077211 
1306.000000	98.080556 
1305.000000	98.084900 
1304.000000	98.088759 
1303.000000	98.091429 
1302.000000	98.091887 
1301.000000	98.089185 
1300.000000	98.084679 
1299.000000	98.081512 
1298.000000	98.081290 
1297.000000	98.082471 
1296.000000	98.082553 
1295.000000	98.081071 
1294.000000	98.079486 
1293.000000	98.079350 
1292.000000	98.081019 
1291.000000	98.083608 
1290.000000	98.086048 
1289.000000	98.088069 
1288.000000	98.089632 
1287.000000	98.089702 
1286.000000	98.086958 
1285.000000	98.082406 
1284.000000	98.079837 
1283.000000	98.081805 
1282.000000	98.086057 
1281.000000	98.087670 
1280.000000	98.084517 
1279.000000	98.079367 
1278.000000	98.076619 
1277.000000	98.078369 
1276.000000	98.083354 
1275.000000	98.088554 
1274.000000	98.091270 
1273.000000	98.090819 
1272.000000	98.088707 
1271.000000	98.086650 
1270.000000	98.084418 
1269.000000	98.080411 
1268.000000	98.074229 
1267.000000	98.067133 
1266.000000	98.060027 
1265.000000	98.053246 
1264.000000	98.048267 
1263.000000	98.047192 
1262.000000	98.049818 
1261.000000	98.053087 
1260.000000	98.054790 
1259.000000	98.056258 
1258.000000	98.059393 
1257.000000	98.062890 
1256.000000	98.063290 
1255.000000	98.059600 
1254.000000	98.055127 
1253.000000	98.053977 
1252.000000	98.056408 
1251.000000	98.058924 
1250.000000	98.058981 
1249.000000	98.058631 
1248.000000	98.062476 
1247.000000	98.071800 
1246.000000	98.081544 
1245.000000	98.084388 
1244.000000	98.077641 
1243.000000	98.066189 
1242.000000	98.059279 
1241.000000	98.063748 
1240.000000	98.078351 
1239.000000	98.093750 
1238.000000	98.099487 
1237.000000	98.092227 
1236.000000	98.076855 
1235.000000	98.060126 
1234.000000	98.045071 
1233.000000	98.031663 
1232.000000	98.019835 
1231.000000	98.009490 
1230.000000	97.999539 
1229.000000	97.989490 
1228.000000	97.980595 
1227.000000	97.973165 
1226.000000	97.964037 
1225.000000	97.949054 
1224.000000	97.927409 
1223.000000	97.901585 
1222.000000	97.873751 
1221.000000	97.844093 
1220.000000	97.812282 
1219.000000	97.778608 
1218.000000	97.743537 
1217.000000	97.707442 
1216.000000	97.670209 
1215.000000	97.630098 
1214.000000	97.584502 
1213.000000	97.533703 
1212.000000	97.482272 
1211.000000	97.433895 
1210.000000	97.386198 
1209.000000	97.334016 
1208.000000	97.276960 
1207.000000	97.220116 
1206.000000	97.167102 
1205.000000	97.115483 
1204.000000	97.059873 
1203.000000	96.997447 
1202.000000	96.930052 
1201.000000	96.862683 
1200.000000	96.799989 
1199.000000	96.742659 
1198.000000	96.687034 
1197.000000	96.629517 
1196.000000	96.570365 
1195.000000	96.511697 
1194.000000	96.453433 
1193.000000	96.393450 
1192.000000	96.330713 
1191.000000	96.265683 
1190.000000	96.198499 
1189.000000	96.129240 
1188.000000	96.059164 
1187.000000	95.989198 
1186.000000	95.918133 
1185.000000	95.844710 
1184.000000	95.770019 
1183.000000	95.695181 
1182.000000	95.618501 
1181.000000	95.538162 
1180.000000	95.455876 
1179.000000	95.373992 
1178.000000	95.290427 
1177.000000	95.201020 
1176.000000	95.105928 
1175.000000	95.009197 
1174.000000	94.912753 
1173.000000	94.815448 
1172.000000	94.717578 
1171.000000	94.620919 
1170.000000	94.524293 
1169.000000	94.424801 
1168.000000	94.324438 
1167.000000	94.230712 
1166.000000	94.150412 
1165.000000	94.088058 
1164.000000	94.050288 
1163.000000	94.044335 
1162.000000	94.069133 
1161.000000	94.112220 
1160.000000	94.157223 
1159.000000	94.191084 
1158.000000	94.204351 
1157.000000	94.190833 
1156.000000	94.149797 
1155.000000	94.085641 
1154.000000	94.004405 
1153.000000	93.912907 
1152.000000	93.819950 
1151.000000	93.732736 
1150.000000	93.651005 
1149.000000	93.569492 
1148.000000	93.486711 
1147.000000	93.406065 
1146.000000	93.327862 
1145.000000	93.246725 
1144.000000	93.159149 
1143.000000	93.068256 
1142.000000	92.978553 
1141.000000	92.890496 
1140.000000	92.802370 
1139.000000	92.713218 
1138.000000	92.622152 
1137.000000	92.528897 
1136.000000	92.436165 
1135.000000	92.347129 
1134.000000	92.259620 
1133.000000	92.167552 
1132.000000	92.068819 
1131.000000	91.966892 
1130.000000	91.864344 
1129.000000	91.760302 
1128.000000	91.654880 
1127.000000	91.550066 
1126.000000	91.445073 
1125.000000	91.336572 
1124.000000	91.224615 
1123.000000	91.112718 
1122.000000	91.001443 
1121.000000	90.887992 
1120.000000	90.772751 
1119.000000	90.659465 
1118.000000	90.548311 
1117.000000	90.436173 
1116.000000	90.324578 
1115.000000	90.219638 
1114.000000	90.122700 
1113.000000	90.028598 
1112.000000	89.934497 
1111.000000	89.842668 
1110.000000	89.753386 
1109.000000	89.663211 
1108.000000	89.571349 
1107.000000	89.479971 
1106.000000	89.388074 
1105.000000	89.292665 
1104.000000	89.196007 
1103.000000	89.103673 
1102.000000	89.014775 
1101.000000	88.923551 
1100.000000	88.830253 
1099.000000	88.740629 
1098.000000	88.657104 
1097.000000	88.576965 
1096.000000	88.499842 
1095.000000	88.426008 
1094.000000	88.348057 
1093.000000	88.255682 
1092.000000	88.150330 
1091.000000	88.045167 
1090.000000	87.949475 
1089.000000	87.862241 
1088.000000	87.780390 
1087.000000	87.701863 
1086.000000	87.620600 
1085.000000	87.530884 
1084.000000	87.437952 
1083.000000	87.352852 
1082.000000	87.275891 
1081.000000	87.197137 
1080.000000	87.113974 
1079.000000	87.034940 
1078.000000	86.964167 
1077.000000	86.894777 
1076.000000	86.820343 
1075.000000	86.740786 
1074.000000	86.655013 
1073.000000	86.559555 
1072.000000	86.455110 
1071.000000	86.341010 
1070.000000	86.202707 
1069.000000	86.021438 
1068.000000	85.801022 
1067.000000	85.572232 
1066.000000	85.364914 
1065.000000	85.185885 
1064.000000	85.026642 
1063.000000	84.875728 
1062.000000	84.716791 
1061.000000	84.531389 
1060.000000	84.316089 
1059.000000	84.088907 
1058.000000	83.871289 
1057.000000	83.670115 
1056.000000	83.480495 
1055.000000	83.295151 
1054.000000	83.105994 
1053.000000	82.907145 
1052.000000	82.702305 
1051.000000	82.500550 
1050.000000	82.301718 
1049.000000	82.096787 
1048.000000	81.883933 
1047.000000	81.670704 
1046.000000	81.459881 
1045.000000	81.247419 
1044.000000	81.034340 
1043.000000	80.826463 
1042.000000	80.621923 
1041.000000	80.413017 
1040.000000	80.201650 
1039.000000	79.999584 
1038.000000	79.812865 
1037.000000	79.639571 
1036.000000	79.482035 
1035.000000	79.345669 
1034.000000	79.225774 
1033.000000	79.110863 
1032.000000	78.998149 
1031.000000	78.890621 
1030.000000	78.783288 
1029.000000	78.672253 
1028.000000	78.574228 
1027.000000	78.513563 
1026.000000	78.488630 
1025.000000	78.471959 
1024.000000	78.445326 
1023.000000	78.413296 
1022.000000	78.380430 
1021.000000	78.339705 
1020.000000	78.289270 
1019.000000	78.239412 
1018.000000	78.195943 
1017.000000	78.154161 
1016.000000	78.113583 
1015.000000	78.080876 
1014.000000	78.054698 
1013.000000	78.025725 
1012.000000	77.994949 
1011.000000	77.973968 
1010.000000	77.964657 
1009.000000	77.956949 
1008.000000	77.949133 
1007.000000	77.951642 
1006.000000	77.968354 
1005.000000	77.992911 
1004.000000	78.025339 
1003.000000	78.072451 
1002.000000	78.129286 
1001.000000	78.180555 
1000.000000	78.224592 
999.000000	 78.276617 
998.000000	 78.344399 
997.000000	 78.419452 
996.000000	 78.495717 
995.000000	 78.578189 
994.000000	 78.668924 
993.000000	 78.762392 
992.000000	 78.858299 
991.000000	 78.961755 
990.000000	 79.068490 
989.000000	 79.168029 
988.000000	 79.263853 
987.000000	 79.371782 
986.000000	 79.496189 
985.000000	 79.627015 
984.000000	 79.762362 
983.000000	 79.913331 
982.000000	 80.082453 
981.000000	 80.257310 
980.000000	 80.431008 
979.000000	 80.610761 
978.000000	 80.800854 
977.000000	 80.995334 
976.000000	 81.193074 
975.000000	 81.402431 
974.000000	 81.624730 
973.000000	 81.849328 
972.000000	 82.070967 
971.000000	 82.296986 
970.000000	 82.531847 
969.000000	 82.768832 
968.000000	 83.001987 
967.000000	 83.232815 
966.000000	 83.461136 
965.000000	 83.682752 
964.000000	 83.899867 
963.000000	 84.120709 
962.000000	 84.345287 
961.000000	 84.564123 
960.000000	 84.773768 
959.000000	 84.980612 
958.000000	 85.186762 
957.000000	 85.385319 
956.000000	 85.572910 
955.000000	 85.754552 
954.000000	 85.933141 
953.000000	 86.105621 
952.000000	 86.271663 
951.000000	 86.434270 
950.000000	 86.589997 
949.000000	 86.730885 
948.000000	 86.858111 
947.000000	 86.981827 
946.000000	 87.105286 
945.000000	 87.220775 
944.000000	 87.323437 
943.000000	 87.417715 
942.000000	 87.508430 
941.000000	 87.596874 
940.000000	 87.687282 
939.000000	 87.785076 
938.000000	 87.886481 
937.000000	 87.981523 
936.000000	 88.069276 
935.000000	 88.158880 
934.000000	 88.254291 
933.000000	 88.350156 
932.000000	 88.444421 
931.000000	 88.542193 
930.000000	 88.644322 
929.000000	 88.744147 
928.000000	 88.838938 
927.000000	 88.933518 
926.000000	 89.029193 
925.000000	 89.119023 
924.000000	 89.197080 
923.000000	 89.263932 
922.000000	 89.321936 
921.000000	 89.374126 
920.000000	 89.427758 
919.000000	 89.488612 
918.000000	 89.550902 
917.000000	 89.602965 
916.000000	 89.644003 
915.000000	 89.685870 
914.000000	 89.738607 
913.000000	 89.804559 
912.000000	 89.886160 
911.000000	 89.987553 
910.000000	 90.107321 
909.000000	 90.240412 
908.000000	 90.387782 
907.000000	 90.553862 
906.000000	 90.735442 
905.000000	 90.923953 
904.000000	 91.117190 
903.000000	 91.317344 
902.000000	 91.519791 
901.000000	 91.716677 
900.000000	 91.910266 
899.000000	 92.110003 
898.000000	 92.316829 
897.000000	 92.521305 
896.000000	 92.715768 
895.000000	 92.897234 
894.000000	 93.061652 
893.000000	 93.208357 
892.000000	 93.348193 
891.000000	 93.493751 
890.000000	 93.641288 
889.000000	 93.773469 
888.000000	 93.878264 
887.000000	 93.954267 
886.000000	 94.002128 
885.000000	 94.025306 
884.000000	 94.036875 
883.000000	 94.049821 
882.000000	 94.061031 
881.000000	 94.060684 
880.000000	 94.056542 
879.000000	 94.070526 
878.000000	 94.110105 
877.000000	 94.163031 
876.000000	 94.223880 
875.000000	 94.305554 
874.000000	 94.419050 
873.000000	 94.561542 
872.000000	 94.730582 
871.000000	 94.930153 
870.000000	 95.153600 
869.000000	 95.377165 
868.000000	 95.580521 
867.000000	 95.762195 
866.000000	 95.928977 
865.000000	 96.082887 
864.000000	 96.225739 
863.000000	 96.365274 
862.000000	 96.507673 
861.000000	 96.650484 
860.000000	 96.788549 
859.000000	 96.920440 
858.000000	 97.045359 
857.000000	 97.160915 
856.000000	 97.267437 
855.000000	 97.367809 
854.000000	 97.460537 
853.000000	 97.539974 
852.000000	 97.605343 
851.000000	 97.662437 
850.000000	 97.715327 
849.000000	 97.764119 
848.000000	 97.811270 
847.000000	 97.860772 
846.000000	 97.909828 
845.000000	 97.950790 
844.000000	 97.982369 
843.000000	 98.009328 
842.000000	 98.030655 
841.000000	 98.038886 
840.000000	 98.032331 
839.000000	 98.016760 
838.000000	 97.993810 
837.000000	 97.960188 
836.000000	 97.921104 
835.000000	 97.891305 
834.000000	 97.877013 
833.000000	 97.868272 
832.000000	 97.855343 
831.000000	 97.841838 
830.000000	 97.835042 
829.000000	 97.834231 
828.000000	 97.837734 
827.000000	 97.852410 
826.000000	 97.885361 
825.000000	 97.932080 
824.000000	 97.981253 
823.000000	 98.025722 
822.000000	 98.062946 
821.000000	 98.091882 
820.000000	 98.114494 
819.000000	 98.133327 
818.000000	 98.143633 
817.000000	 98.133943 
816.000000	 98.097143 
815.000000	 98.035602 
814.000000	 97.953426 
813.000000	 97.848824 
812.000000	 97.715317 
811.000000	 97.544024 
810.000000	 97.323109 
809.000000	 97.042337 
808.000000	 96.702075 
807.000000	 96.313834 
806.000000	 95.891290 
805.000000	 95.446828 
804.000000	 94.997446 
803.000000	 94.564912 
802.000000	 94.167088 
801.000000	 93.817590 
800.000000	 93.534519 
799.000000	 93.336773 
798.000000	 93.227901 
797.000000	 93.194447 
796.000000	 93.221397 
795.000000	 93.296715 
794.000000	 93.401208 
793.000000	 93.510883 
792.000000	 93.613176 
791.000000	 93.707908 
790.000000	 93.790733 
789.000000	 93.848796 
788.000000	 93.873297 
787.000000	 93.862241 
786.000000	 93.810025 
785.000000	 93.709019 
784.000000	 93.564452 
783.000000	 93.395264 
782.000000	 93.218929 
781.000000	 93.049097 
780.000000	 92.907711 
779.000000	 92.820540 
778.000000	 92.795783 
777.000000	 92.822853 
776.000000	 92.895427 
775.000000	 93.017709 
774.000000	 93.183227 
773.000000	 93.366388 
772.000000	 93.543412 
771.000000	 93.707556 
770.000000	 93.858664 
769.000000	 93.993083 
768.000000	 94.109591 
767.000000	 94.210618 
766.000000	 94.292059 
765.000000	 94.346394 
764.000000	 94.381583 
763.000000	 94.421698 
762.000000	 94.481265 
761.000000	 94.552083 
760.000000	 94.621625 
759.000000	 94.689985 
758.000000	 94.761203 
757.000000	 94.832859 
756.000000	 94.904719 
755.000000	 94.985635 
754.000000	 95.080409 
753.000000	 95.177766 
752.000000	 95.260253 
751.000000	 95.320719 
750.000000	 95.365745 
749.000000	 95.410528 
748.000000	 95.472383 
747.000000	 95.558369 
746.000000	 95.655030 
745.000000	 95.740724 
744.000000	 95.812225 
743.000000	 95.888815 
742.000000	 95.986877 
741.000000	 96.102061 
740.000000	 96.220142 
739.000000	 96.332847 
738.000000	 96.437579 
737.000000	 96.532753 
736.000000	 96.619814 
735.000000	 96.701746 
734.000000	 96.775984 
733.000000	 96.836757 
732.000000	 96.885529 
731.000000	 96.929293 
730.000000	 96.967947 
729.000000	 96.995015 
728.000000	 97.011056 
727.000000	 97.025307 
726.000000	 97.045118 
725.000000	 97.074336 
724.000000	 97.120086 
723.000000	 97.186740 
722.000000	 97.262040 
721.000000	 97.323348 
720.000000	 97.361215 
719.000000	 97.384797 
718.000000	 97.401789 
717.000000	 97.408685 
716.000000	 97.404807 
715.000000	 97.399487 
714.000000	 97.400722 
713.000000	 97.411247 
712.000000	 97.438621 
711.000000	 97.492036 
710.000000	 97.562807 
709.000000	 97.625479 
708.000000	 97.664023 
707.000000	 97.683131 
706.000000	 97.690843 
705.000000	 97.683716 
704.000000	 97.655309 
703.000000	 97.606293 
702.000000	 97.535207 
701.000000	 97.430039 
700.000000	 97.279108 
699.000000	 97.082565 
698.000000	 96.853109 
697.000000	 96.616898 
696.000000	 96.414962 
695.000000	 96.289135 
694.000000	 96.255635 
693.000000	 96.300133 
692.000000	 96.399376 
691.000000	 96.533112 
690.000000	 96.677982 
689.000000	 96.808979 
688.000000	 96.915501 
687.000000	 97.004270 
686.000000	 97.079334 
685.000000	 97.135975 
684.000000	 97.177538 
683.000000	 97.216730 
682.000000	 97.257509 
681.000000	 97.294444 
680.000000	 97.332196 
679.000000	 97.384163 
678.000000	 97.448078 
677.000000	 97.507476 
676.000000	 97.556709 
675.000000	 97.605379 
674.000000	 97.653880 
673.000000	 97.685344 
672.000000	 97.687575 
671.000000	 97.661053 
670.000000	 97.608462 
669.000000	 97.536700 
668.000000	 97.508283 
667.000000	 97.609595 
666.000000	 97.775935 
665.000000	 97.897961 
664.000000	 97.961578 
663.000000	 97.991414 
662.000000	 98.013430 
661.000000	 98.036873 
660.000000	 98.062095 
659.000000	 98.091684 
658.000000	 98.121832 
657.000000	 98.140004 
656.000000	 98.139827 
655.000000	 98.129321 
654.000000	 98.114736 
653.000000	 98.089364 
652.000000	 98.052832 
651.000000	 98.028774 
650.000000	 98.040439 

