4000.000000	96.656198 
3999.000000	96.654505 
3998.000000	96.651393 
3997.000000	96.648211 
3996.000000	96.646157 
3995.000000	96.645543 
3994.000000	96.645991 
3993.000000	96.646852 
3992.000000	96.647532 
3991.000000	96.647652 
3990.000000	96.647204 
3989.000000	96.646561 
3988.000000	96.646111 
3987.000000	96.646007 
3986.000000	96.646367 
3985.000000	96.647359 
3984.000000	96.648767 
3983.000000	96.649822 
3982.000000	96.650022 
3981.000000	96.649758 
3980.000000	96.649582 
3979.000000	96.649242 
3978.000000	96.648163 
3977.000000	96.646608 
3976.000000	96.645546 
3975.000000	96.645249 
3974.000000	96.644816 
3973.000000	96.643328 
3972.000000	96.640860 
3971.000000	96.638292 
3970.000000	96.636529 
3969.000000	96.636179 
3968.000000	96.637505 
3967.000000	96.640033 
3966.000000	96.642566 
3965.000000	96.643899 
3964.000000	96.643409 
3963.000000	96.641216 
3962.000000	96.638143 
3961.000000	96.635341 
3960.000000	96.633490 
3959.000000	96.632473 
3958.000000	96.631838 
3957.000000	96.631461 
3956.000000	96.631367 
3955.000000	96.630974 
3954.000000	96.629494 
3953.000000	96.626815 
3952.000000	96.623703 
3951.000000	96.620988 
3950.000000	96.618737 
3949.000000	96.616573 
3948.000000	96.614153 
3947.000000	96.611565 
3946.000000	96.609612 
3945.000000	96.609503 
3944.000000	96.611732 
3943.000000	96.615008 
3942.000000	96.617576 
3941.000000	96.619051 
3940.000000	96.620119 
3939.000000	96.621166 
3938.000000	96.621617 
3937.000000	96.620650 
3936.000000	96.618047 
3935.000000	96.613929 
3934.000000	96.608942 
3933.000000	96.604470 
3932.000000	96.602095 
3931.000000	96.601932 
3930.000000	96.602546 
3929.000000	96.603201 
3928.000000	96.604577 
3927.000000	96.607170 
3926.000000	96.609741 
3925.000000	96.610091 
3924.000000	96.607703 
3923.000000	96.604051 
3922.000000	96.600318 
3921.000000	96.596875 
3920.000000	96.594405 
3919.000000	96.594127 
3918.000000	96.596121 
3917.000000	96.598701 
3916.000000	96.600391 
3915.000000	96.601337 
3914.000000	96.602405 
3913.000000	96.603848 
3912.000000	96.605292 
3911.000000	96.606580 
3910.000000	96.607273 
3909.000000	96.606601 
3908.000000	96.604381 
3907.000000	96.600821 
3906.000000	96.596186 
3905.000000	96.589854 
3904.000000	96.581442 
3903.000000	96.572869 
3902.000000	96.567475 
3901.000000	96.567147 
3900.000000	96.570948 
3899.000000	96.575975 
3898.000000	96.580034 
3897.000000	96.582440 
3896.000000	96.583093 
3895.000000	96.582633 
3894.000000	96.582355 
3893.000000	96.583260 
3892.000000	96.584528 
3891.000000	96.583979 
3890.000000	96.580968 
3889.000000	96.576840 
3888.000000	96.573523 
3887.000000	96.571943 
3886.000000	96.571735 
3885.000000	96.571772 
3884.000000	96.571080 
3883.000000	96.569403 
3882.000000	96.567564 
3881.000000	96.566834 
3880.000000	96.567443 
3879.000000	96.568035 
3878.000000	96.567448 
3877.000000	96.566085 
3876.000000	96.565230 
3875.000000	96.565223 
3874.000000	96.565039 
3873.000000	96.563801 
3872.000000	96.561867 
3871.000000	96.560098 
3870.000000	96.558891 
3869.000000	96.558358 
3868.000000	96.558334 
3867.000000	96.558290 
3866.000000	96.557902 
3865.000000	96.557525 
3864.000000	96.557782 
3863.000000	96.558537 
3862.000000	96.558871 
3861.000000	96.558596 
3860.000000	96.558447 
3859.000000	96.558856 
3858.000000	96.559363 
3857.000000	96.559235 
3856.000000	96.558389 
3855.000000	96.557294 
3854.000000	96.555796 
3853.000000	96.553743 
3852.000000	96.552113 
3851.000000	96.551766 
3850.000000	96.552365 
3849.000000	96.553489 
3848.000000	96.555104 
3847.000000	96.557226 
3846.000000	96.559112 
3845.000000	96.559781 
3844.000000	96.559118 
3843.000000	96.557675 
3842.000000	96.555859 
3841.000000	96.554176 
3840.000000	96.553147 
3839.000000	96.553142 
3838.000000	96.554104 
3837.000000	96.555076 
3836.000000	96.555296 
3835.000000	96.554996 
3834.000000	96.555049 
3833.000000	96.556242 
3832.000000	96.558427 
3831.000000	96.560698 
3830.000000	96.562352 
3829.000000	96.563445 
3828.000000	96.564947 
3827.000000	96.567575 
3826.000000	96.570173 
3825.000000	96.570790 
3824.000000	96.568625 
3823.000000	96.565147 
3822.000000	96.562953 
3821.000000	96.562622 
3820.000000	96.562601 
3819.000000	96.561450 
3818.000000	96.559502 
3817.000000	96.559000 
3816.000000	96.562157 
3815.000000	96.568720 
3814.000000	96.575715 
3813.000000	96.580124 
3812.000000	96.581519 
3811.000000	96.582278 
3810.000000	96.584364 
3809.000000	96.586836 
3808.000000	96.587075 
3807.000000	96.583844 
3806.000000	96.578254 
3805.000000	96.571939 
3804.000000	96.565629 
3803.000000	96.561754 
3802.000000	96.562761 
3801.000000	96.566985 
3800.000000	96.570539 
3799.000000	96.570891 
3798.000000	96.569360 
3797.000000	96.570578 
3796.000000	96.577487 
3795.000000	96.587685 
3794.000000	96.595867 
3793.000000	96.599696 
3792.000000	96.601550 
3791.000000	96.605061 
3790.000000	96.609866 
3789.000000	96.612042 
3788.000000	96.609826 
3787.000000	96.605881 
3786.000000	96.603819 
3785.000000	96.604081 
3784.000000	96.604271 
3783.000000	96.602664 
3782.000000	96.599442 
3781.000000	96.596125 
3780.000000	96.594774 
3779.000000	96.596894 
3778.000000	96.601622 
3777.000000	96.606187 
3776.000000	96.608189 
3775.000000	96.607208 
3774.000000	96.604407 
3773.000000	96.600978 
3772.000000	96.597509 
3771.000000	96.593703 
3770.000000	96.589042 
3769.000000	96.584247 
3768.000000	96.580596 
3767.000000	96.578401 
3766.000000	96.577711 
3765.000000	96.578047 
3764.000000	96.578568 
3763.000000	96.577980 
3762.000000	96.575021 
3761.000000	96.570489 
3760.000000	96.566999 
3759.000000	96.566642 
3758.000000	96.566312 
3757.000000	96.560740 
3756.000000	96.549776 
3755.000000	96.536537 
3754.000000	96.522650 
3753.000000	96.507773 
3752.000000	96.494056 
3751.000000	96.485644 
3750.000000	96.481007 
3749.000000	96.475226 
3748.000000	96.468907 
3747.000000	96.467563 
3746.000000	96.475776 
3745.000000	96.489107 
3744.000000	96.500673 
3743.000000	96.508021 
3742.000000	96.507697 
3741.000000	96.496872 
3740.000000	96.480671 
3739.000000	96.470838 
3738.000000	96.473887 
3737.000000	96.482698 
3736.000000	96.487900 
3735.000000	96.489925 
3734.000000	96.494140 
3733.000000	96.500126 
3732.000000	96.504675 
3731.000000	96.508720 
3730.000000	96.513129 
3729.000000	96.515546 
3728.000000	96.515261 
3727.000000	96.515211 
3726.000000	96.518278 
3725.000000	96.523110 
3724.000000	96.526554 
3723.000000	96.528519 
3722.000000	96.531379 
3721.000000	96.536229 
3720.000000	96.539895 
3719.000000	96.540490 
3718.000000	96.539536 
3717.000000	96.537294 
3716.000000	96.532153 
3715.000000	96.521191 
3714.000000	96.503827 
3713.000000	96.485024 
3712.000000	96.471022 
3711.000000	96.463934 
3710.000000	96.460620 
3709.000000	96.457900 
3708.000000	96.455199 
3707.000000	96.451524 
3706.000000	96.445685 
3705.000000	96.437799 
3704.000000	96.429578 
3703.000000	96.422315 
3702.000000	96.413911 
3701.000000	96.400801 
3700.000000	96.382678 
3699.000000	96.363661 
3698.000000	96.349399 
3697.000000	96.341688 
3696.000000	96.338162 
3695.000000	96.335033 
3694.000000	96.328983 
3693.000000	96.319662 
3692.000000	96.309734 
3691.000000	96.301905 
3690.000000	96.294074 
3689.000000	96.283313 
3688.000000	96.272801 
3687.000000	96.267413 
3686.000000	96.266749 
3685.000000	96.266563 
3684.000000	96.264169 
3683.000000	96.260892 
3682.000000	96.258529 
3681.000000	96.253387 
3680.000000	96.238990 
3679.000000	96.212372 
3678.000000	96.178245 
3677.000000	96.145162 
3676.000000	96.116865 
3675.000000	96.093445 
3674.000000	96.073072 
3673.000000	96.052116 
3672.000000	96.029289 
3671.000000	96.011106 
3670.000000	96.002750 
3669.000000	95.999533 
3668.000000	95.992756 
3667.000000	95.979659 
3666.000000	95.965760 
3665.000000	95.956865 
3664.000000	95.951518 
3663.000000	95.944077 
3662.000000	95.930261 
3661.000000	95.908846 
3660.000000	95.881842 
3659.000000	95.852185 
3658.000000	95.823001 
3657.000000	95.794800 
3656.000000	95.765546 
3655.000000	95.735065 
3654.000000	95.704010 
3653.000000	95.672393 
3652.000000	95.639666 
3651.000000	95.605387 
3650.000000	95.569038 
3649.000000	95.532268 
3648.000000	95.501756 
3647.000000	95.484363 
3646.000000	95.481179 
3645.000000	95.487486 
3644.000000	95.496529 
3643.000000	95.503399 
3642.000000	95.505517 
3641.000000	95.501399 
3640.000000	95.491023 
3639.000000	95.474993 
3638.000000	95.454627 
3637.000000	95.431441 
3636.000000	95.406905 
3635.000000	95.381982 
3634.000000	95.357006 
3633.000000	95.332562 
3632.000000	95.308453 
3631.000000	95.282964 
3630.000000	95.253947 
3629.000000	95.221749 
3628.000000	95.192263 
3627.000000	95.173331 
3626.000000	95.166838 
3625.000000	95.171382 
3624.000000	95.184981 
3623.000000	95.202915 
3622.000000	95.217843 
3621.000000	95.223583 
3620.000000	95.218465 
3619.000000	95.206455 
3618.000000	95.194740 
3617.000000	95.189746 
3616.000000	95.196020 
3615.000000	95.214840 
3614.000000	95.241517 
3613.000000	95.267314 
3612.000000	95.285482 
3611.000000	95.294836 
3610.000000	95.299749 
3609.000000	95.307216 
3608.000000	95.320835 
3607.000000	95.338792 
3606.000000	95.357561 
3605.000000	95.376774 
3604.000000	95.398958 
3603.000000	95.424291 
3602.000000	95.448468 
3601.000000	95.465791 
3600.000000	95.474092 
3599.000000	95.476221 
3598.000000	95.477437 
3597.000000	95.481645 
3596.000000	95.490999 
3595.000000	95.503935 
3594.000000	95.515073 
3593.000000	95.520457 
3592.000000	95.519971 
3591.000000	95.516107 
3590.000000	95.512405 
3589.000000	95.511883 
3588.000000	95.514949 
3587.000000	95.519404 
3586.000000	95.523972 
3585.000000	95.530258 
3584.000000	95.541284 
3583.000000	95.557668 
3582.000000	95.576607 
3581.000000	95.592816 
3580.000000	95.602053 
3579.000000	95.603631 
3578.000000	95.600143 
3577.000000	95.595473 
3576.000000	95.592203 
3575.000000	95.591081 
3574.000000	95.590866 
3573.000000	95.589678 
3572.000000	95.585720 
3571.000000	95.577586 
3570.000000	95.564915 
3569.000000	95.549681 
3568.000000	95.536129 
3567.000000	95.528117 
3566.000000	95.526272 
3565.000000	95.528765 
3564.000000	95.534000 
3563.000000	95.541792 
3562.000000	95.551774 
3561.000000	95.562309 
3560.000000	95.571163 
3559.000000	95.577046 
3558.000000	95.580157 
3557.000000	95.581471 
3556.000000	95.581611 
3555.000000	95.580570 
3554.000000	95.578143 
3553.000000	95.574038 
3552.000000	95.568295 
3551.000000	95.561383 
3550.000000	95.554330 
3549.000000	95.548838 
3548.000000	95.546672 
3547.000000	95.547830 
3546.000000	95.549950 
3545.000000	95.550535 
3544.000000	95.549949 
3543.000000	95.550765 
3542.000000	95.554387 
3541.000000	95.559758 
3540.000000	95.565012 
3539.000000	95.569013 
3538.000000	95.571425 
3537.000000	95.572109 
3536.000000	95.571320 
3535.000000	95.569481 
3534.000000	95.566861 
3533.000000	95.563877 
3532.000000	95.561536 
3531.000000	95.560934 
3530.000000	95.561756 
3529.000000	95.562032 
3528.000000	95.559924 
3527.000000	95.555684 
3526.000000	95.551533 
3525.000000	95.549750 
3524.000000	95.551078 
3523.000000	95.554589 
3522.000000	95.558554 
3521.000000	95.561631 
3520.000000	95.563585 
3519.000000	95.564782 
3518.000000	95.565387 
3517.000000	95.565084 
3516.000000	95.563694 
3515.000000	95.561734 
3514.000000	95.560155 
3513.000000	95.559560 
3512.000000	95.559670 
3511.000000	95.559569 
3510.000000	95.558528 
3509.000000	95.556688 
3508.000000	95.554905 
3507.000000	95.553936 
3506.000000	95.553815 
3505.000000	95.553936 
3504.000000	95.553675 
3503.000000	95.552848 
3502.000000	95.551775 
3501.000000	95.551017 
3500.000000	95.551091 
3499.000000	95.552147 
3498.000000	95.553690 
3497.000000	95.554768 
3496.000000	95.554638 
3495.000000	95.553412 
3494.000000	95.551997 
3493.000000	95.551266 
3492.000000	95.551194 
3491.000000	95.550808 
3490.000000	95.549211 
3489.000000	95.546519 
3488.000000	95.543505 
3487.000000	95.540620 
3486.000000	95.537889 
3485.000000	95.535636 
3484.000000	95.534484 
3483.000000	95.534426 
3482.000000	95.534516 
3481.000000	95.533988 
3480.000000	95.533170 
3479.000000	95.532696 
3478.000000	95.532314 
3477.000000	95.531136 
3476.000000	95.528757 
3475.000000	95.525671 
3474.000000	95.522689 
3473.000000	95.520281 
3472.000000	95.518423 
3471.000000	95.516749 
3470.000000	95.514793 
3469.000000	95.512351 
3468.000000	95.509653 
3467.000000	95.507172 
3466.000000	95.505273 
3465.000000	95.503884 
3464.000000	95.502421 
3463.000000	95.500105 
3462.000000	95.496623 
3461.000000	95.492524 
3460.000000	95.488732 
3459.000000	95.485588 
3458.000000	95.482565 
3457.000000	95.478942 
3456.000000	95.474723 
3455.000000	95.470725 
3454.000000	95.467869 
3453.000000	95.466385 
3452.000000	95.465660 
3451.000000	95.464724 
3450.000000	95.462878 
3449.000000	95.459924 
3448.000000	95.455961 
3447.000000	95.451258 
3446.000000	95.446320 
3445.000000	95.441910 
3444.000000	95.438694 
3443.000000	95.436763 
3442.000000	95.435526 
3441.000000	95.434103 
3440.000000	95.431996 
3439.000000	95.429235 
3438.000000	95.426028 
3437.000000	95.422508 
3436.000000	95.418932 
3435.000000	95.415843 
3434.000000	95.413723 
3433.000000	95.412420 
3432.000000	95.411148 
3431.000000	95.409300 
3430.000000	95.406970 
3429.000000	95.404632 
3428.000000	95.402391 
3427.000000	95.399857 
3426.000000	95.396780 
3425.000000	95.393544 
3424.000000	95.390798 
3423.000000	95.388607 
3422.000000	95.386332 
3421.000000	95.383546 
3420.000000	95.380778 
3419.000000	95.378856 
3418.000000	95.377770 
3417.000000	95.376813 
3416.000000	95.375736 
3415.000000	95.374948 
3414.000000	95.374374 
3413.000000	95.372933 
3412.000000	95.369812 
3411.000000	95.365883 
3410.000000	95.363129 
3409.000000	95.362746 
3408.000000	95.364129 
3407.000000	95.365423 
3406.000000	95.364963 
3405.000000	95.362403 
3404.000000	95.358839 
3403.000000	95.355682 
3402.000000	95.353406 
3401.000000	95.351580 
3400.000000	95.349931 
3399.000000	95.348815 
3398.000000	95.348532 
3397.000000	95.348900 
3396.000000	95.349793 
3395.000000	95.351534 
3394.000000	95.354221 
3393.000000	95.356967 
3392.000000	95.358345 
3391.000000	95.357678 
3390.000000	95.355727 
3389.000000	95.354155 
3388.000000	95.354366 
3387.000000	95.356637 
3386.000000	95.359995 
3385.000000	95.362776 
3384.000000	95.363698 
3383.000000	95.362789 
3382.000000	95.361513 
3381.000000	95.361699 
3380.000000	95.363931 
3379.000000	95.367086 
3378.000000	95.369770 
3377.000000	95.372189 
3376.000000	95.375759 
3375.000000	95.380772 
3374.000000	95.385382 
3373.000000	95.387554 
3372.000000	95.387486 
3371.000000	95.387428 
3370.000000	95.389292 
3369.000000	95.392989 
3368.000000	95.397030 
3367.000000	95.400032 
3366.000000	95.401498 
3365.000000	95.401707 
3364.000000	95.401346 
3363.000000	95.401129 
3362.000000	95.401467 
3361.000000	95.402478 
3360.000000	95.404276 
3359.000000	95.407013 
3358.000000	95.410510 
3357.000000	95.414128 
3356.000000	95.417241 
3355.000000	95.419808 
3354.000000	95.422307 
3353.000000	95.425209 
3352.000000	95.428634 
3351.000000	95.432406 
3350.000000	95.436212 
3349.000000	95.439661 
3348.000000	95.442477 
3347.000000	95.444794 
3346.000000	95.447079 
3345.000000	95.449540 
3344.000000	95.451735 
3343.000000	95.453047 
3342.000000	95.453532 
3341.000000	95.454096 
3340.000000	95.455573 
3339.000000	95.457848 
3338.000000	95.460219 
3337.000000	95.462276 
3336.000000	95.464217 
3335.000000	95.466383 
3334.000000	95.468808 
3333.000000	95.471268 
3332.000000	95.473586 
3331.000000	95.475758 
3330.000000	95.477867 
3329.000000	95.479980 
3328.000000	95.482152 
3327.000000	95.484425 
3326.000000	95.486791 
3325.000000	95.489171 
3324.000000	95.491465 
3323.000000	95.493635 
3322.000000	95.495734 
3321.000000	95.497844 
3320.000000	95.500013 
3319.000000	95.502219 
3318.000000	95.504421 
3317.000000	95.506600 
3316.000000	95.508756 
3315.000000	95.510893 
3314.000000	95.513015 
3313.000000	95.515130 
3312.000000	95.517241 
3311.000000	95.519357 
3310.000000	95.521479 
3309.000000	95.523608 
3308.000000	95.525740 
3307.000000	95.527867 
3306.000000	95.529990 
3305.000000	95.532112 
3304.000000	95.534246 
3303.000000	95.536401 
3302.000000	95.538582 
3301.000000	95.540791 
3300.000000	95.543021 
3299.000000	95.545254 
3298.000000	95.547457 
3297.000000	95.549612 
3296.000000	95.551738 
3295.000000	95.553885 
3294.000000	95.556092 
3293.000000	95.558374 
3292.000000	95.560719 
3291.000000	95.563102 
3290.000000	95.565501 
3289.000000	95.567905 
3288.000000	95.570308 
3287.000000	95.572684 
3286.000000	95.574963 
3285.000000	95.577079 
3284.000000	95.579032 
3283.000000	95.580925 
3282.000000	95.582932 
3281.000000	95.585178 
3280.000000	95.587628 
3279.000000	95.590056 
3278.000000	95.592256 
3277.000000	95.594275 
3276.000000	95.596384 
3275.000000	95.598758 
3274.000000	95.601314 
3273.000000	95.603905 
3272.000000	95.606553 
3271.000000	95.609380 
3270.000000	95.612369 
3269.000000	95.615315 
3268.000000	95.617987 
3267.000000	95.620312 
3266.000000	95.622441 
3265.000000	95.624676 
3264.000000	95.627236 
3263.000000	95.630053 
3262.000000	95.632824 
3261.000000	95.635325 
3260.000000	95.637595 
3259.000000	95.639798 
3258.000000	95.642020 
3257.000000	95.644347 
3256.000000	95.646981 
3255.000000	95.650009 
3254.000000	95.653144 
3253.000000	95.655935 
3252.000000	95.658286 
3251.000000	95.660570 
3250.000000	95.663190 
3249.000000	95.666126 
3248.000000	95.669016 
3247.000000	95.671604 
3246.000000	95.673988 
3245.000000	95.676430 
3244.000000	95.679062 
3243.000000	95.681813 
3242.000000	95.684548 
3241.000000	95.687220 
3240.000000	95.689898 
3239.000000	95.692701 
3238.000000	95.695739 
3237.000000	95.699071 
3236.000000	95.702680 
3235.000000	95.706389 
3234.000000	95.709879 
3233.000000	95.712879 
3232.000000	95.715343 
3231.000000	95.717491 
3230.000000	95.719660 
3229.000000	95.722054 
3228.000000	95.724707 
3227.000000	95.727637 
3226.000000	95.730951 
3225.000000	95.734707 
3224.000000	95.738681 
3223.000000	95.742446 
3222.000000	95.745748 
3221.000000	95.748733 
3220.000000	95.751705 
3219.000000	95.754695 
3218.000000	95.757482 
3217.000000	95.759985 
3216.000000	95.762431 
3215.000000	95.765125 
3214.000000	95.768193 
3213.000000	95.771532 
3212.000000	95.774898 
3211.000000	95.778059 
3210.000000	95.780954 
3209.000000	95.783742 
3208.000000	95.786609 
3207.000000	95.789558 
3206.000000	95.792456 
3205.000000	95.795284 
3204.000000	95.798213 
3203.000000	95.801390 
3202.000000	95.804745 
3201.000000	95.808071 
3200.000000	95.811244 
3199.000000	95.814312 
3198.000000	95.817391 
3197.000000	95.820522 
3196.000000	95.823649 
3195.000000	95.826706 
3194.000000	95.829716 
3193.000000	95.832784 
3192.000000	95.835987 
3191.000000	95.839302 
3190.000000	95.842629 
3189.000000	95.845876 
3188.000000	95.849028 
3187.000000	95.852132 
3186.000000	95.855253 
3185.000000	95.858423 
3184.000000	95.861625 
3183.000000	95.864822 
3182.000000	95.867994 
3181.000000	95.871145 
3180.000000	95.874286 
3179.000000	95.877410 
3178.000000	95.880516 
3177.000000	95.883615 
3176.000000	95.886728 
3175.000000	95.889861 
3174.000000	95.893010 
3173.000000	95.896169 
3172.000000	95.899322 
3171.000000	95.902440 
3170.000000	95.905498 
3169.000000	95.908506 
3168.000000	95.911520 
3167.000000	95.914577 
3166.000000	95.917663 
3165.000000	95.920731 
3164.000000	95.923754 
3163.000000	95.926725 
3162.000000	95.929647 
3161.000000	95.932532 
3160.000000	95.935398 
3159.000000	95.938260 
3158.000000	95.941139 
3157.000000	95.944092 
3156.000000	95.947160 
3155.000000	95.950292 
3154.000000	95.953359 
3153.000000	95.956293 
3152.000000	95.959139 
3151.000000	95.961958 
3150.000000	95.964723 
3149.000000	95.967372 
3148.000000	95.969925 
3147.000000	95.972513 
3146.000000	95.975323 
3145.000000	95.978490 
3144.000000	95.981934 
3143.000000	95.985283 
3142.000000	95.988115 
3141.000000	95.990326 
3140.000000	95.992228 
3139.000000	95.994300 
3138.000000	95.996790 
3137.000000	95.999632 
3136.000000	96.002545 
3135.000000	96.005164 
3134.000000	96.007291 
3133.000000	96.009104 
3132.000000	96.011045 
3131.000000	96.013384 
3130.000000	96.016075 
3129.000000	96.019038 
3128.000000	96.022335 
3127.000000	96.025980 
3126.000000	96.029794 
3125.000000	96.033547 
3124.000000	96.037057 
3123.000000	96.040083 
3122.000000	96.042362 
3121.000000	96.043949 
3120.000000	96.045365 
3119.000000	96.047192 
3118.000000	96.049594 
3117.000000	96.052335 
3116.000000	96.055076 
3115.000000	96.057559 
3114.000000	96.059699 
3113.000000	96.061702 
3112.000000	96.064049 
3111.000000	96.067123 
3110.000000	96.070793 
3109.000000	96.074428 
3108.000000	96.077444 
3107.000000	96.079860 
3106.000000	96.082169 
3105.000000	96.084584 
3104.000000	96.086591 
3103.000000	96.087533 
3102.000000	96.087495 
3101.000000	96.087341 
3100.000000	96.087835 
3099.000000	96.089104 
3098.000000	96.091131 
3097.000000	96.094253 
3096.000000	96.098602 
3095.000000	96.103312 
3094.000000	96.107070 
3093.000000	96.109407 
3092.000000	96.110923 
3091.000000	96.112313 
3090.000000	96.113699 
3089.000000	96.115004 
3088.000000	96.116351 
3087.000000	96.117884 
3086.000000	96.119574 
3085.000000	96.121363 
3084.000000	96.123206 
3083.000000	96.124914 
3082.000000	96.126302 
3081.000000	96.127585 
3080.000000	96.129302 
3079.000000	96.131599 
3078.000000	96.133931 
3077.000000	96.135815 
3076.000000	96.137521 
3075.000000	96.139453 
3074.000000	96.141255 
3073.000000	96.142306 
3072.000000	96.142784 
3071.000000	96.143437 
3070.000000	96.144507 
3069.000000	96.145719 
3068.000000	96.147165 
3067.000000	96.149198 
3066.000000	96.151380 
3065.000000	96.152557 
3064.000000	96.152371 
3063.000000	96.151809 
3062.000000	96.151867 
3061.000000	96.152376 
3060.000000	96.152620 
3059.000000	96.152608 
3058.000000	96.153271 
3057.000000	96.155547 
3056.000000	96.159295 
3055.000000	96.162795 
3054.000000	96.163700 
3053.000000	96.161235 
3052.000000	96.157556 
3051.000000	96.156153 
3050.000000	96.158356 
3049.000000	96.162129 
3048.000000	96.164483 
3047.000000	96.164383 
3046.000000	96.162793 
3045.000000	96.160981 
3044.000000	96.159836 
3043.000000	96.160346 
3042.000000	96.163288 
3041.000000	96.167879 
3040.000000	96.171498 
3039.000000	96.171649 
3038.000000	96.168122 
3037.000000	96.162941 
3036.000000	96.158192 
3035.000000	96.154173 
3034.000000	96.149998 
3033.000000	96.145501 
3032.000000	96.141772 
3031.000000	96.139902 
3030.000000	96.139908 
3029.000000	96.140960 
3028.000000	96.141814 
3027.000000	96.140791 
3026.000000	96.136406 
3025.000000	96.128934 
3024.000000	96.120877 
3023.000000	96.114866 
3022.000000	96.111306 
3021.000000	96.108987 
3020.000000	96.107385 
3019.000000	96.106932 
3018.000000	96.106934 
3017.000000	96.104831 
3016.000000	96.098577 
3015.000000	96.089119 
3014.000000	96.079957 
3013.000000	96.074274 
3012.000000	96.072475 
3011.000000	96.072009 
3010.000000	96.069488 
3009.000000	96.063488 
3008.000000	96.055393 
3007.000000	96.047413 
3006.000000	96.040107 
3005.000000	96.032512 
3004.000000	96.024353 
3003.000000	96.016943 
3002.000000	96.011735 
3001.000000	96.008863 
3000.000000	96.007223 
2999.000000	96.005157 
2998.000000	96.000941 
2997.000000	95.993748 
2996.000000	95.984676 
2995.000000	95.976095 
2994.000000	95.969391 
2993.000000	95.963692 
2992.000000	95.956966 
2991.000000	95.948002 
2990.000000	95.937361 
2989.000000	95.927166 
2988.000000	95.920171 
2987.000000	95.918276 
2986.000000	95.921380 
2985.000000	95.927724 
2984.000000	95.935270 
2983.000000	95.942526 
2982.000000	95.948469 
2981.000000	95.952579 
2980.000000	95.955000 
2979.000000	95.955917 
2978.000000	95.954796 
2977.000000	95.951125 
2976.000000	95.945941 
2975.000000	95.941675 
2974.000000	95.940130 
2973.000000	95.941405 
2972.000000	95.944821 
2971.000000	95.949821 
2970.000000	95.955517 
2969.000000	95.960548 
2968.000000	95.964266 
2967.000000	95.967382 
2966.000000	95.970767 
2965.000000	95.974313 
2964.000000	95.977631 
2963.000000	95.981161 
2962.000000	95.985694 
2961.000000	95.991108 
2960.000000	95.996460 
2959.000000	96.001360 
2958.000000	96.006653 
2957.000000	96.013488 
2956.000000	96.021751 
2955.000000	96.029526 
2954.000000	96.034499 
2953.000000	96.036379 
2952.000000	96.037683 
2951.000000	96.041391 
2950.000000	96.047657 
2949.000000	96.053682 
2948.000000	96.056960 
2947.000000	96.057560 
2946.000000	96.057013 
2945.000000	96.056279 
2944.000000	96.055669 
2943.000000	96.055615 
2942.000000	96.055996 
2941.000000	96.055320 
2940.000000	96.052168 
2939.000000	96.047514 
2938.000000	96.044256 
2937.000000	96.044025 
2936.000000	96.045330 
2935.000000	96.045207 
2934.000000	96.041940 
2933.000000	96.035857 
2932.000000	96.028432 
2931.000000	96.021378 
2930.000000	96.016172 
2929.000000	96.013569 
2928.000000	96.013214 
2927.000000	96.013786 
2926.000000	96.013733 
2925.000000	96.012309 
2924.000000	96.010282 
2923.000000	96.009429 
2922.000000	96.010809 
2921.000000	96.013545 
2920.000000	96.015901 
2919.000000	96.017587 
2918.000000	96.020116 
2917.000000	96.024392 
2916.000000	96.028842 
2915.000000	96.031039 
2914.000000	96.031033 
2913.000000	96.031808 
2912.000000	96.035935 
2911.000000	96.042473 
2910.000000	96.047942 
2909.000000	96.050180 
2908.000000	96.050477 
2907.000000	96.051636 
2906.000000	96.054635 
2905.000000	96.057677 
2904.000000	96.058521 
2903.000000	96.057015 
2902.000000	96.055995 
2901.000000	96.058447 
2900.000000	96.065068 
2899.000000	96.074261 
2898.000000	96.083750 
2897.000000	96.092270 
2896.000000	96.099212 
2895.000000	96.103760 
2894.000000	96.105580 
2893.000000	96.106311 
2892.000000	96.108920 
2891.000000	96.114733 
2890.000000	96.121961 
2889.000000	96.127954 
2888.000000	96.132255 
2887.000000	96.136221 
2886.000000	96.140284 
2885.000000	96.143387 
2884.000000	96.145371 
2883.000000	96.148100 
2882.000000	96.153182 
2881.000000	96.159788 
2880.000000	96.165924 
2879.000000	96.171185 
2878.000000	96.176821 
2877.000000	96.183326 
2876.000000	96.189455 
2875.000000	96.194022 
2874.000000	96.197464 
2873.000000	96.200972 
2872.000000	96.204853 
2871.000000	96.208625 
2870.000000	96.212179 
2869.000000	96.215877 
2868.000000	96.219717 
2867.000000	96.223277 
2866.000000	96.226508 
2865.000000	96.229794 
2864.000000	96.233211 
2863.000000	96.236557 
2862.000000	96.240231 
2861.000000	96.245084 
2860.000000	96.251007 
2859.000000	96.256616 
2858.000000	96.261036 
2857.000000	96.265207 
2856.000000	96.270487 
2855.000000	96.276449 
2854.000000	96.281081 
2853.000000	96.283182 
2852.000000	96.283686 
2851.000000	96.284531 
2850.000000	96.286905 
2849.000000	96.290980 
2848.000000	96.296691 
2847.000000	96.304065 
2846.000000	96.312759 
2845.000000	96.321668 
2844.000000	96.329514 
2843.000000	96.335950 
2842.000000	96.341857 
2841.000000	96.348169 
2840.000000	96.354433 
2839.000000	96.359128 
2838.000000	96.361632 
2837.000000	96.363199 
2836.000000	96.365576 
2835.000000	96.369171 
2834.000000	96.373295 
2833.000000	96.377743 
2832.000000	96.383004 
2831.000000	96.388832 
2830.000000	96.393636 
2829.000000	96.395913 
2828.000000	96.395891 
2827.000000	96.395491 
2826.000000	96.396871 
2825.000000	96.400953 
2824.000000	96.406881 
2823.000000	96.412520 
2822.000000	96.415918 
2821.000000	96.416715 
2820.000000	96.416134 
2819.000000	96.415618 
2818.000000	96.415710 
2817.000000	96.416349 
2816.000000	96.417669 
2815.000000	96.419971 
2814.000000	96.423042 
2813.000000	96.425932 
2812.000000	96.427558 
2811.000000	96.427514 
2810.000000	96.426456 
2809.000000	96.425803 
2808.000000	96.426820 
2807.000000	96.429795 
2806.000000	96.434019 
2805.000000	96.438412 
2804.000000	96.442073 
2803.000000	96.444444 
2802.000000	96.445482 
2801.000000	96.445917 
2800.000000	96.446899 
2799.000000	96.448911 
2798.000000	96.451224 
2797.000000	96.452732 
2796.000000	96.453192 
2795.000000	96.453350 
2794.000000	96.454032 
2793.000000	96.455399 
2792.000000	96.457082 
2791.000000	96.458684 
2790.000000	96.460005 
2789.000000	96.461025 
2788.000000	96.461866 
2787.000000	96.462740 
2786.000000	96.463838 
2785.000000	96.465210 
2784.000000	96.466744 
2783.000000	96.468249 
2782.000000	96.469584 
2781.000000	96.470783 
2780.000000	96.472015 
2779.000000	96.473417 
2778.000000	96.474970 
2777.000000	96.476503 
2776.000000	96.477818 
2775.000000	96.478869 
2774.000000	96.479814 
2773.000000	96.480850 
2772.000000	96.481996 
2771.000000	96.483113 
2770.000000	96.484143 
2769.000000	96.485223 
2768.000000	96.486523 
2767.000000	96.488010 
2766.000000	96.489457 
2765.000000	96.490694 
2764.000000	96.491763 
2763.000000	96.492778 
2762.000000	96.493704 
2761.000000	96.494385 
2760.000000	96.494806 
2759.000000	96.495234 
2758.000000	96.495991 
2757.000000	96.497091 
2756.000000	96.498185 
2755.000000	96.498980 
2754.000000	96.499627 
2753.000000	96.500543 
2752.000000	96.501860 
2751.000000	96.503248 
2750.000000	96.504377 
2749.000000	96.505316 
2748.000000	96.506229 
2747.000000	96.506895 
2746.000000	96.506966 
2745.000000	96.506570 
2744.000000	96.506353 
2743.000000	96.506790 
2742.000000	96.507757 
2741.000000	96.508807 
2740.000000	96.509693 
2739.000000	96.510460 
2738.000000	96.511120 
2737.000000	96.511575 
2736.000000	96.511853 
2735.000000	96.512203 
2734.000000	96.512845 
2733.000000	96.513767 
2732.000000	96.514804 
2731.000000	96.515847 
2730.000000	96.516902 
2729.000000	96.517979 
2728.000000	96.519008 
2727.000000	96.519842 
2726.000000	96.520380 
2725.000000	96.520673 
2724.000000	96.520926 
2723.000000	96.521326 
2722.000000	96.521898 
2721.000000	96.522555 
2720.000000	96.523256 
2719.000000	96.524054 
2718.000000	96.524965 
2717.000000	96.525888 
2716.000000	96.526673 
2715.000000	96.527279 
2714.000000	96.527809 
2713.000000	96.528413 
2712.000000	96.529142 
2711.000000	96.529927 
2710.000000	96.530687 
2709.000000	96.531418 
2708.000000	96.532179 
2707.000000	96.533002 
2706.000000	96.533871 
2705.000000	96.534741 
2704.000000	96.535566 
2703.000000	96.536306 
2702.000000	96.536955 
2701.000000	96.537581 
2700.000000	96.538338 
2699.000000	96.539343 
2698.000000	96.540540 
2697.000000	96.541654 
2696.000000	96.542429 
2695.000000	96.542869 
2694.000000	96.543248 
2693.000000	96.543815 
2692.000000	96.544524 
2691.000000	96.545153 
2690.000000	96.545611 
2689.000000	96.546022 
2688.000000	96.546471 
2687.000000	96.546825 
2686.000000	96.546974 
2685.000000	96.547114 
2684.000000	96.547573 
2683.000000	96.548374 
2682.000000	96.549174 
2681.000000	96.549702 
2680.000000	96.550066 
2679.000000	96.550539 
2678.000000	96.551258 
2677.000000	96.552289 
2676.000000	96.553688 
2675.000000	96.555186 
2674.000000	96.556115 
2673.000000	96.556066 
2672.000000	96.555494 
2671.000000	96.555240 
2670.000000	96.555464 
2669.000000	96.555652 
2668.000000	96.555621 
2667.000000	96.555852 
2666.000000	96.556594 
2665.000000	96.557260 
2664.000000	96.557214 
2663.000000	96.556776 
2662.000000	96.556910 
2661.000000	96.557936 
2660.000000	96.559098 
2659.000000	96.559467 
2658.000000	96.558884 
2657.000000	96.557846 
2656.000000	96.556857 
2655.000000	96.556105 
2654.000000	96.555537 
2653.000000	96.555012 
2652.000000	96.554467 
2651.000000	96.554081 
2650.000000	96.554202 
2649.000000	96.554945 
2648.000000	96.555906 
2647.000000	96.556397 
2646.000000	96.555998 
2645.000000	96.554809 
2644.000000	96.553256 
2643.000000	96.551787 
2642.000000	96.550730 
2641.000000	96.550265 
2640.000000	96.550369 
2639.000000	96.550834 
2638.000000	96.551419 
2637.000000	96.551970 
2636.000000	96.552435 
2635.000000	96.552858 
2634.000000	96.553357 
2633.000000	96.553960 
2632.000000	96.554399 
2631.000000	96.554261 
2630.000000	96.553481 
2629.000000	96.552492 
2628.000000	96.551767 
2627.000000	96.551352 
2626.000000	96.551025 
2625.000000	96.550800 
2624.000000	96.550981 
2623.000000	96.551687 
2622.000000	96.552522 
2621.000000	96.552819 
2620.000000	96.552195 
2619.000000	96.550753 
2618.000000	96.549007 
2617.000000	96.547644 
2616.000000	96.547085 
2615.000000	96.547256 
2614.000000	96.547695 
2613.000000	96.547979 
2612.000000	96.548080 
2611.000000	96.548201 
2610.000000	96.548436 
2609.000000	96.548683 
2608.000000	96.548791 
2607.000000	96.548671 
2606.000000	96.548338 
2605.000000	96.547931 
2604.000000	96.547617 
2603.000000	96.547423 
2602.000000	96.547224 
2601.000000	96.546953 
2600.000000	96.546702 
2599.000000	96.546523 
2598.000000	96.546267 
2597.000000	96.545755 
2596.000000	96.544999 
2595.000000	96.544150 
2594.000000	96.543358 
2593.000000	96.542847 
2592.000000	96.542975 
2591.000000	96.543883 
2590.000000	96.545108 
2589.000000	96.545844 
2588.000000	96.545743 
2587.000000	96.545216 
2586.000000	96.544952 
2585.000000	96.545260 
2584.000000	96.545967 
2583.000000	96.546691 
2582.000000	96.547096 
2581.000000	96.547083 
2580.000000	96.546954 
2579.000000	96.547254 
2578.000000	96.548228 
2577.000000	96.549456 
2576.000000	96.550181 
2575.000000	96.549976 
2574.000000	96.548984 
2573.000000	96.547738 
2572.000000	96.546776 
2571.000000	96.546316 
2570.000000	96.546215 
2569.000000	96.546240 
2568.000000	96.546416 
2567.000000	96.546939 
2566.000000	96.547691 
2565.000000	96.548135 
2564.000000	96.547884 
2563.000000	96.547158 
2562.000000	96.546481 
2561.000000	96.546191 
2560.000000	96.546537 
2559.000000	96.547902 
2558.000000	96.550374 
2557.000000	96.553126 
2556.000000	96.554922 
2555.000000	96.555438 
2554.000000	96.555538 
2553.000000	96.556004 
2552.000000	96.556413 
2551.000000	96.556027 
2550.000000	96.555199 
2549.000000	96.554931 
2548.000000	96.555169 
2547.000000	96.554705 
2546.000000	96.553057 
2545.000000	96.551411 
2544.000000	96.551011 
2543.000000	96.551486 
2542.000000	96.551597 
2541.000000	96.551149 
2540.000000	96.551182 
2539.000000	96.552313 
2538.000000	96.553849 
2537.000000	96.554770 
2536.000000	96.554964 
2535.000000	96.555059 
2534.000000	96.555430 
2533.000000	96.555808 
2532.000000	96.555760 
2531.000000	96.555188 
2530.000000	96.554349 
2529.000000	96.553582 
2528.000000	96.553082 
2527.000000	96.552909 
2526.000000	96.553180 
2525.000000	96.554114 
2524.000000	96.555740 
2523.000000	96.557598 
2522.000000	96.558922 
2521.000000	96.559234 
2520.000000	96.558662 
2519.000000	96.557732 
2518.000000	96.556920 
2517.000000	96.556312 
2516.000000	96.555595 
2515.000000	96.554450 
2514.000000	96.553142 
2513.000000	96.552535 
2512.000000	96.553227 
2511.000000	96.554980 
2510.000000	96.557105 
2509.000000	96.559124 
2508.000000	96.560756 
2507.000000	96.561607 
2506.000000	96.561523 
2505.000000	96.561157 
2504.000000	96.561574 
2503.000000	96.563048 
2502.000000	96.564713 
2501.000000	96.565603 
2500.000000	96.565702 
2499.000000	96.565665 
2498.000000	96.565924 
2497.000000	96.566433 
2496.000000	96.567123 
2495.000000	96.568057 
2494.000000	96.569081 
2493.000000	96.569734 
2492.000000	96.569742 
2491.000000	96.569399 
2490.000000	96.569322 
2489.000000	96.569802 
2488.000000	96.570523 
2487.000000	96.570939 
2486.000000	96.570905 
2485.000000	96.570877 
2484.000000	96.571427 
2483.000000	96.572608 
2482.000000	96.573892 
2481.000000	96.574737 
2480.000000	96.575132 
2479.000000	96.575505 
2478.000000	96.576230 
2477.000000	96.577266 
2476.000000	96.578151 
2475.000000	96.578280 
2474.000000	96.577323 
2473.000000	96.575517 
2472.000000	96.573570 
2471.000000	96.572161 
2470.000000	96.571631 
2469.000000	96.572075 
2468.000000	96.573373 
2467.000000	96.575048 
2466.000000	96.576369 
2465.000000	96.576865 
2464.000000	96.576676 
2463.000000	96.576360 
2462.000000	96.576456 
2461.000000	96.577272 
2460.000000	96.578811 
2459.000000	96.580630 
2458.000000	96.581923 
2457.000000	96.582040 
2456.000000	96.580972 
2455.000000	96.579326 
2454.000000	96.577838 
2453.000000	96.576780 
2452.000000	96.575787 
2451.000000	96.574400 
2450.000000	96.572921 
2449.000000	96.572438 
2448.000000	96.573606 
2447.000000	96.575666 
2446.000000	96.577045 
2445.000000	96.577004 
2444.000000	96.576095 
2443.000000	96.575102 
2442.000000	96.574229 
2441.000000	96.573485 
2440.000000	96.573203 
2439.000000	96.573752 
2438.000000	96.575185 
2437.000000	96.577402 
2436.000000	96.580166 
2435.000000	96.582721 
2434.000000	96.584017 
2433.000000	96.583725 
2432.000000	96.582743 
2431.000000	96.582351 
2430.000000	96.583019 
2429.000000	96.584392 
2428.000000	96.585904 
2427.000000	96.586930 
2426.000000	96.586809 
2425.000000	96.585376 
2424.000000	96.583313 
2423.000000	96.581580 
2422.000000	96.580642 
2421.000000	96.580641 
2420.000000	96.581893 
2419.000000	96.584423 
2418.000000	96.587239 
2417.000000	96.589205 
2416.000000	96.590221 
2415.000000	96.590753 
2414.000000	96.590881 
2413.000000	96.590697 
2412.000000	96.590898 
2411.000000	96.591822 
2410.000000	96.592496 
2409.000000	96.591916 
2408.000000	96.590664 
2407.000000	96.589915 
2406.000000	96.589548 
2405.000000	96.588569 
2404.000000	96.586911 
2403.000000	96.585445 
2402.000000	96.584600 
2401.000000	96.584304 
2400.000000	96.584975 
2399.000000	96.587255 
2398.000000	96.590914 
2397.000000	96.595036 
2396.000000	96.598979 
2395.000000	96.602041 
2394.000000	96.602735 
2393.000000	96.600147 
2392.000000	96.595890 
2391.000000	96.593189 
2390.000000	96.593100 
2389.000000	96.593391 
2388.000000	96.591553 
2387.000000	96.587204 
2386.000000	96.581140 
2385.000000	96.574348 
2384.000000	96.568095 
2383.000000	96.563507 
2382.000000	96.560790 
2381.000000	96.559844 
2380.000000	96.561668 
2379.000000	96.567628 
2378.000000	96.576678 
2377.000000	96.584693 
2376.000000	96.588303 
2375.000000	96.588287 
2374.000000	96.587823 
2373.000000	96.588025 
2372.000000	96.587417 
2371.000000	96.585717 
2370.000000	96.585233 
2369.000000	96.587245 
2368.000000	96.589340 
2367.000000	96.588171 
2366.000000	96.583737 
2365.000000	96.579439 
2364.000000	96.578701 
2363.000000	96.581744 
2362.000000	96.585830 
2361.000000	96.589576 
2360.000000	96.593504 
2359.000000	96.598023 
2358.000000	96.603495 
2357.000000	96.609085 
2356.000000	96.614141 
2355.000000	96.617332 
2354.000000	96.617387 
2353.000000	96.615476 
2352.000000	96.613800 
2351.000000	96.613703 
2350.000000	96.611646 
2349.000000	96.603047 
2348.000000	96.588268 
2347.000000	96.573346 
2346.000000	96.567066 
2345.000000	96.571121 
2344.000000	96.580451 
2343.000000	96.588248 
2342.000000	96.592474 
2341.000000	96.596064 
2340.000000	96.599924 
2339.000000	96.603249 
2338.000000	96.604311 
2337.000000	96.603193 
2336.000000	96.600994 
2335.000000	96.598939 
2334.000000	96.596695 
2333.000000	96.594343 
2332.000000	96.592497 
2331.000000	96.592745 
2330.000000	96.594102 
2329.000000	96.594336 
2328.000000	96.592885 
2327.000000	96.590130 
2326.000000	96.587719 
2325.000000	96.585724 
2324.000000	96.585170 
2323.000000	96.586629 
2322.000000	96.589075 
2321.000000	96.590741 
2320.000000	96.590529 
2319.000000	96.590081 
2318.000000	96.590143 
2317.000000	96.590076 
2316.000000	96.588343 
2315.000000	96.585258 
2314.000000	96.582099 
2313.000000	96.579775 
2312.000000	96.578251 
2311.000000	96.577268 
2310.000000	96.576689 
2309.000000	96.576062 
2308.000000	96.575055 
2307.000000	96.573698 
2306.000000	96.572468 
2305.000000	96.571370 
2304.000000	96.570000 
2303.000000	96.568429 
2302.000000	96.567310 
2301.000000	96.566878 
2300.000000	96.566710 
2299.000000	96.566068 
2298.000000	96.564554 
2297.000000	96.562231 
2296.000000	96.559665 
2295.000000	96.557531 
2294.000000	96.556388 
2293.000000	96.555960 
2292.000000	96.555711 
2291.000000	96.555321 
2290.000000	96.555132 
2289.000000	96.555374 
2288.000000	96.555755 
2287.000000	96.555620 
2286.000000	96.554557 
2285.000000	96.552719 
2284.000000	96.550652 
2283.000000	96.548866 
2282.000000	96.547525 
2281.000000	96.546423 
2280.000000	96.545194 
2279.000000	96.543638 
2278.000000	96.541838 
2277.000000	96.540169 
2276.000000	96.539007 
2275.000000	96.538430 
2274.000000	96.538138 
2273.000000	96.537774 
2272.000000	96.537243 
2271.000000	96.536593 
2270.000000	96.535747 
2269.000000	96.534584 
2268.000000	96.533244 
2267.000000	96.532050 
2266.000000	96.531116 
2265.000000	96.530261 
2264.000000	96.529294 
2263.000000	96.528166 
2262.000000	96.526852 
2261.000000	96.525313 
2260.000000	96.523663 
2259.000000	96.522125 
2258.000000	96.520789 
2257.000000	96.519590 
2256.000000	96.518478 
2255.000000	96.517475 
2254.000000	96.516516 
2253.000000	96.515387 
2252.000000	96.513943 
2251.000000	96.512260 
2250.000000	96.510506 
2249.000000	96.508789 
2248.000000	96.507141 
2247.000000	96.505563 
2246.000000	96.504028 
2245.000000	96.502510 
2244.000000	96.501006 
2243.000000	96.499531 
2242.000000	96.498102 
2241.000000	96.496742 
2240.000000	96.495448 
2239.000000	96.494200 
2238.000000	96.492965 
2237.000000	96.491718 
2236.000000	96.490449 
2235.000000	96.489159 
2234.000000	96.487855 
2233.000000	96.486543 
2232.000000	96.485225 
2231.000000	96.483900 
2230.000000	96.482564 
2229.000000	96.481214 
2228.000000	96.479852 
2227.000000	96.478487 
2226.000000	96.477120 
2225.000000	96.475737 
2224.000000	96.474329 
2223.000000	96.472906 
2222.000000	96.471501 
2221.000000	96.470144 
2220.000000	96.468835 
2219.000000	96.467560 
2218.000000	96.466298 
2217.000000	96.465045 
2216.000000	96.463800 
2215.000000	96.462563 
2214.000000	96.461327 
2213.000000	96.460091 
2212.000000	96.458873 
2211.000000	96.457702 
2210.000000	96.456598 
2209.000000	96.455558 
2208.000000	96.454553 
2207.000000	96.453558 
2206.000000	96.452552 
2205.000000	96.451517 
2204.000000	96.450436 
2203.000000	96.449300 
2202.000000	96.448114 
2201.000000	96.446890 
2200.000000	96.445711 
2199.000000	96.444502 
2198.000000	96.443060 
2197.000000	96.441339 
2196.000000	96.439594 
2195.000000	96.438149 
2194.000000	96.437038 
2193.000000	96.435987 
2192.000000	96.434869 
2191.000000	96.433846 
2190.000000	96.432941 
2189.000000	96.431875 
2188.000000	96.430608 
2187.000000	96.429537 
2186.000000	96.428613 
2185.000000	96.426893 
2184.000000	96.424000 
2183.000000	96.421637 
2182.000000	96.422112 
2181.000000	96.425470 
2180.000000	96.428847 
2179.000000	96.429547 
2178.000000	96.427543 
2177.000000	96.424721 
2176.000000	96.422814 
2175.000000	96.422407 
2174.000000	96.423288 
2173.000000	96.424844 
2172.000000	96.426652 
2171.000000	96.428877 
2170.000000	96.431269 
2169.000000	96.431984 
2168.000000	96.428918 
2167.000000	96.422559 
2166.000000	96.416124 
2165.000000	96.411896 
2164.000000	96.408897 
2163.000000	96.405529 
2162.000000	96.403292 
2161.000000	96.405591 
2160.000000	96.413320 
2159.000000	96.423288 
2158.000000	96.431165 
2157.000000	96.435329 
2156.000000	96.437250 
2155.000000	96.439224 
2154.000000	96.442484 
2153.000000	96.446852 
2152.000000	96.451187 
2151.000000	96.453845 
2150.000000	96.453504 
2149.000000	96.450791 
2148.000000	96.448936 
2147.000000	96.451228 
2146.000000	96.457535 
2145.000000	96.464451 
2144.000000	96.469434 
2143.000000	96.473364 
2142.000000	96.477915 
2141.000000	96.482384 
2140.000000	96.485060 
2139.000000	96.486692 
2138.000000	96.490222 
2137.000000	96.496841 
2136.000000	96.503849 
2135.000000	96.507142 
2134.000000	96.505038 
2133.000000	96.499575 
2132.000000	96.495200 
2131.000000	96.495281 
2130.000000	96.499582 
2129.000000	96.504973 
2128.000000	96.508625 
2127.000000	96.510592 
2126.000000	96.512819 
2125.000000	96.516321 
2124.000000	96.520082 
2123.000000	96.522450 
2122.000000	96.522710 
2121.000000	96.521351 
2120.000000	96.519542 
2119.000000	96.518419 
2118.000000	96.518453 
2117.000000	96.519310 
2116.000000	96.520246 
2115.000000	96.520463 
2114.000000	96.519269 
2113.000000	96.516624 
2112.000000	96.513912 
2111.000000	96.513294 
2110.000000	96.515542 
2109.000000	96.519028 
2108.000000	96.521391 
2107.000000	96.521998 
2106.000000	96.521864 
2105.000000	96.521950 
2104.000000	96.522595 
2103.000000	96.523978 
2102.000000	96.525826 
2101.000000	96.526905 
2100.000000	96.526119 
2099.000000	96.524143 
2098.000000	96.523040 
2097.000000	96.524007 
2096.000000	96.526355 
2095.000000	96.528601 
2094.000000	96.529826 
2093.000000	96.529777 
2092.000000	96.528482 
2091.000000	96.526559 
2090.000000	96.525187 
2089.000000	96.525091 
2088.000000	96.525820 
2087.000000	96.526234 
2086.000000	96.525526 
2085.000000	96.523643 
2084.000000	96.521202 
2083.000000	96.519044 
2082.000000	96.517591 
2081.000000	96.516611 
2080.000000	96.515825 
2079.000000	96.515456 
2078.000000	96.515632 
2077.000000	96.515537 
2076.000000	96.514151 
2075.000000	96.511748 
2074.000000	96.509735 
2073.000000	96.508583 
2072.000000	96.507168 
2071.000000	96.504499 
2070.000000	96.500995 
2069.000000	96.497795 
2068.000000	96.495566 
2067.000000	96.494324 
2066.000000	96.493802 
2065.000000	96.493415 
2064.000000	96.492350 
2063.000000	96.490355 
2062.000000	96.488124 
2061.000000	96.486612 
2060.000000	96.486049 
2059.000000	96.485988 
2058.000000	96.485784 
2057.000000	96.484940 
2056.000000	96.483270 
2055.000000	96.480926 
2054.000000	96.478376 
2053.000000	96.476101 
2052.000000	96.474270 
2051.000000	96.472734 
2050.000000	96.471241 
2049.000000	96.469646 
2048.000000	96.467988 
2047.000000	96.466427 
2046.000000	96.465090 
2045.000000	96.463966 
2044.000000	96.462983 
2043.000000	96.462110 
2042.000000	96.461363 
2041.000000	96.460738 
2040.000000	96.460216 
2039.000000	96.459816 
2038.000000	96.459548 
2037.000000	96.459317 
2036.000000	96.458967 
2035.000000	96.458452 
2034.000000	96.457866 
2033.000000	96.457370 
2032.000000	96.457026 
2031.000000	96.456764 
2030.000000	96.456460 
2029.000000	96.456059 
2028.000000	96.455609 
2027.000000	96.455215 
2026.000000	96.454921 
2025.000000	96.454683 
2024.000000	96.454462 
2023.000000	96.454294 
2022.000000	96.454242 
2021.000000	96.454286 
2020.000000	96.454242 
2019.000000	96.453911 
2018.000000	96.453222 
2017.000000	96.452303 
2016.000000	96.451428 
2015.000000	96.450797 
2014.000000	96.450420 
2013.000000	96.450094 
2012.000000	96.449665 
2011.000000	96.449335 
2010.000000	96.449444 
2009.000000	96.449984 
2008.000000	96.450447 
2007.000000	96.450370 
2006.000000	96.449836 
2005.000000	96.449321 
2004.000000	96.449075 
2003.000000	96.449005 
2002.000000	96.449057 
2001.000000	96.449226 
2000.000000	96.449163 
1999.000000	96.448294 
1998.000000	96.446434 
1997.000000	96.444048 
1996.000000	96.441950 
1995.000000	96.440705 
1994.000000	96.440342 
1993.000000	96.440355 
1992.000000	96.440020 
1991.000000	96.439118 
1990.000000	96.438173 
1989.000000	96.437829 
1988.000000	96.438047 
1987.000000	96.438092 
1986.000000	96.437301 
1985.000000	96.435721 
1984.000000	96.434017 
1983.000000	96.432841 
1982.000000	96.432339 
1981.000000	96.432251 
1980.000000	96.432363 
1979.000000	96.432746 
1978.000000	96.433424 
1977.000000	96.434047 
1976.000000	96.434154 
1975.000000	96.433757 
1974.000000	96.433462 
1973.000000	96.433938 
1972.000000	96.435278 
1971.000000	96.436951 
1970.000000	96.438247 
1969.000000	96.438766 
1968.000000	96.438556 
1967.000000	96.438049 
1966.000000	96.437886 
1965.000000	96.438554 
1964.000000	96.440153 
1963.000000	96.442406 
1962.000000	96.444855 
1961.000000	96.447013 
1960.000000	96.448545 
1959.000000	96.449425 
1958.000000	96.450008 
1957.000000	96.450885 
1956.000000	96.452393 
1955.000000	96.454300 
1954.000000	96.455989 
1953.000000	96.457114 
1952.000000	96.457911 
1951.000000	96.458793 
1950.000000	96.459926 
1949.000000	96.461419 
1948.000000	96.463513 
1947.000000	96.466255 
1946.000000	96.469050 
1945.000000	96.471018 
1944.000000	96.471804 
1943.000000	96.471797 
1942.000000	96.471716 
1941.000000	96.472010 
1940.000000	96.472774 
1939.000000	96.473871 
1938.000000	96.474994 
1937.000000	96.476018 
1936.000000	96.477266 
1935.000000	96.478980 
1934.000000	96.480692 
1933.000000	96.481857 
1932.000000	96.482922 
1931.000000	96.484945 
1930.000000	96.488171 
1929.000000	96.491398 
1928.000000	96.493466 
1927.000000	96.494536 
1926.000000	96.495335 
1925.000000	96.495965 
1924.000000	96.496064 
1923.000000	96.495918 
1922.000000	96.496170 
1921.000000	96.496600 
1920.000000	96.496574 
1919.000000	96.496225 
1918.000000	96.496081 
1917.000000	96.495899 
1916.000000	96.495116 
1915.000000	96.494376 
1914.000000	96.494800 
1913.000000	96.496171 
1912.000000	96.497202 
1911.000000	96.497400 
1910.000000	96.497507 
1909.000000	96.497987 
1908.000000	96.498519 
1907.000000	96.498795 
1906.000000	96.498699 
1905.000000	96.497820 
1904.000000	96.495863 
1903.000000	96.493799 
1902.000000	96.493176 
1901.000000	96.494140 
1900.000000	96.495466 
1899.000000	96.496193 
1898.000000	96.496422 
1897.000000	96.496497 
1896.000000	96.496219 
1895.000000	96.495358 
1894.000000	96.494185 
1893.000000	96.493059 
1892.000000	96.492160 
1891.000000	96.491760 
1890.000000	96.492112 
1889.000000	96.492946 
1888.000000	96.493702 
1887.000000	96.494314 
1886.000000	96.495057 
1885.000000	96.495751 
1884.000000	96.495919 
1883.000000	96.495564 
1882.000000	96.495291 
1881.000000	96.495590 
1880.000000	96.496350 
1879.000000	96.497104 
1878.000000	96.497538 
1877.000000	96.497759 
1876.000000	96.498124 
1875.000000	96.498915 
1874.000000	96.500181 
1873.000000	96.501671 
1872.000000	96.503009 
1871.000000	96.504060 
1870.000000	96.504970 
1869.000000	96.505850 
1868.000000	96.506625 
1867.000000	96.507429 
1866.000000	96.508588 
1865.000000	96.509982 
1864.000000	96.511144 
1863.000000	96.512150 
1862.000000	96.513692 
1861.000000	96.516025 
1860.000000	96.518518 
1859.000000	96.520640 
1858.000000	96.522677 
1857.000000	96.524918 
1856.000000	96.527076 
1855.000000	96.528864 
1854.000000	96.530408 
1853.000000	96.531877 
1852.000000	96.533477 
1851.000000	96.535621 
1850.000000	96.538448 
1849.000000	96.541433 
1848.000000	96.543805 
1847.000000	96.545470 
1846.000000	96.546998 
1845.000000	96.548787 
1844.000000	96.550578 
1843.000000	96.552180 
1842.000000	96.553870 
1841.000000	96.555837 
1840.000000	96.558137 
1839.000000	96.560880 
1838.000000	96.563972 
1837.000000	96.566719 
1836.000000	96.568378 
1835.000000	96.569265 
1834.000000	96.570438 
1833.000000	96.572262 
1832.000000	96.574293 
1831.000000	96.575888 
1830.000000	96.576675 
1829.000000	96.577035 
1828.000000	96.577659 
1827.000000	96.578851 
1826.000000	96.580637 
1825.000000	96.582773 
1824.000000	96.584700 
1823.000000	96.585974 
1822.000000	96.586806 
1821.000000	96.587501 
1820.000000	96.587782 
1819.000000	96.587321 
1818.000000	96.586964 
1817.000000	96.588000 
1816.000000	96.589981 
1815.000000	96.591473 
1814.000000	96.592393 
1813.000000	96.594007 
1812.000000	96.596383 
1811.000000	96.597399 
1810.000000	96.596414 
1809.000000	96.595437 
1808.000000	96.595528 
1807.000000	96.595929 
1806.000000	96.596510 
1805.000000	96.597744 
1804.000000	96.598682 
1803.000000	96.597744 
1802.000000	96.595168 
1801.000000	96.593449 
1800.000000	96.593864 
1799.000000	96.594909 
1798.000000	96.595787 
1797.000000	96.596755 
1796.000000	96.596955 
1795.000000	96.595807 
1794.000000	96.594706 
1793.000000	96.595606 
1792.000000	96.597507 
1791.000000	96.597928 
1790.000000	96.597976 
1789.000000	96.600067 
1788.000000	96.603837 
1787.000000	96.607083 
1786.000000	96.608970 
1785.000000	96.610313 
1784.000000	96.611407 
1783.000000	96.612276 
1782.000000	96.613208 
1781.000000	96.614479 
1780.000000	96.616063 
1779.000000	96.617617 
1778.000000	96.619458 
1777.000000	96.621757 
1776.000000	96.624003 
1775.000000	96.625802 
1774.000000	96.627050 
1773.000000	96.628083 
1772.000000	96.629184 
1771.000000	96.629723 
1770.000000	96.629410 
1769.000000	96.629331 
1768.000000	96.630565 
1767.000000	96.632778 
1766.000000	96.634774 
1765.000000	96.636147 
1764.000000	96.637482 
1763.000000	96.639029 
1762.000000	96.640272 
1761.000000	96.641148 
1760.000000	96.642151 
1759.000000	96.643308 
1758.000000	96.644275 
1757.000000	96.644785 
1756.000000	96.645449 
1755.000000	96.646317 
1754.000000	96.646195 
1753.000000	96.644392 
1752.000000	96.642180 
1751.000000	96.641987 
1750.000000	96.644409 
1749.000000	96.647566 
1748.000000	96.649780 
1747.000000	96.651162 
1746.000000	96.651734 
1745.000000	96.651781 
1744.000000	96.652561 
1743.000000	96.654076 
1742.000000	96.654626 
1741.000000	96.653942 
1740.000000	96.653974 
1739.000000	96.655582 
1738.000000	96.656350 
1737.000000	96.654644 
1736.000000	96.651456 
1735.000000	96.648712 
1734.000000	96.647439 
1733.000000	96.646609 
1732.000000	96.645543 
1731.000000	96.646223 
1730.000000	96.650254 
1729.000000	96.654736 
1728.000000	96.657019 
1727.000000	96.657285 
1726.000000	96.656734 
1725.000000	96.655542 
1724.000000	96.653587 
1723.000000	96.651154 
1722.000000	96.649260 
1721.000000	96.648134 
1720.000000	96.647365 
1719.000000	96.645599 
1718.000000	96.641642 
1717.000000	96.637208 
1716.000000	96.632289 
1715.000000	96.626109 
1714.000000	96.622108 
1713.000000	96.621463 
1712.000000	96.620749 
1711.000000	96.618217 
1710.000000	96.615343 
1709.000000	96.612836 
1708.000000	96.609746 
1707.000000	96.605999 
1706.000000	96.603018 
1705.000000	96.600811 
1704.000000	96.595795 
1703.000000	96.586723 
1702.000000	96.576017 
1701.000000	96.568638 
1700.000000	96.565624 
1699.000000	96.561588 
1698.000000	96.555878 
1697.000000	96.551875 
1696.000000	96.549297 
1695.000000	96.545595 
1694.000000	96.540274 
1693.000000	96.534595 
1692.000000	96.529329 
1691.000000	96.523991 
1690.000000	96.518187 
1689.000000	96.512079 
1688.000000	96.506025 
1687.000000	96.500142 
1686.000000	96.494413 
1685.000000	96.489172 
1684.000000	96.483542 
1683.000000	96.476954 
1682.000000	96.470100 
1681.000000	96.463097 
1680.000000	96.457223 
1679.000000	96.452486 
1678.000000	96.447606 
1677.000000	96.440993 
1676.000000	96.433752 
1675.000000	96.428104 
1674.000000	96.422248 
1673.000000	96.413276 
1672.000000	96.403378 
1671.000000	96.396704 
1670.000000	96.393415 
1669.000000	96.389219 
1668.000000	96.384213 
1667.000000	96.381422 
1666.000000	96.378938 
1665.000000	96.374234 
1664.000000	96.368188 
1663.000000	96.363404 
1662.000000	96.358769 
1661.000000	96.349241 
1660.000000	96.337136 
1659.000000	96.329289 
1658.000000	96.328078 
1657.000000	96.326927 
1656.000000	96.324020 
1655.000000	96.321307 
1654.000000	96.318468 
1653.000000	96.310417 
1652.000000	96.297226 
1651.000000	96.279136 
1650.000000	96.255324 
1649.000000	96.238457 
1648.000000	96.227422 
1647.000000	96.219738 
1646.000000	96.214915 
1645.000000	96.215579 
1644.000000	96.214115 
1643.000000	96.210028 
1642.000000	96.207469 
1641.000000	96.207879 
1640.000000	96.208528 
1639.000000	96.206601 
1638.000000	96.203371 
1637.000000	96.200385 
1636.000000	96.196218 
1635.000000	96.195090 
1634.000000	96.199524 
1633.000000	96.202998 
1632.000000	96.202342 
1631.000000	96.200900 
1630.000000	96.203119 
1629.000000	96.207824 
1628.000000	96.210826 
1627.000000	96.212661 
1626.000000	96.215671 
1625.000000	96.218823 
1624.000000	96.221290 
1623.000000	96.226528 
1622.000000	96.236719 
1621.000000	96.245933 
1620.000000	96.251617 
1619.000000	96.259309 
1618.000000	96.272961 
1617.000000	96.285704 
1616.000000	96.289393 
1615.000000	96.290393 
1614.000000	96.295638 
1613.000000	96.302950 
1612.000000	96.308201 
1611.000000	96.313055 
1610.000000	96.321254 
1609.000000	96.331358 
1608.000000	96.340975 
1607.000000	96.351812 
1606.000000	96.363169 
1605.000000	96.370642 
1604.000000	96.375173 
1603.000000	96.381860 
1602.000000	96.391398 
1601.000000	96.399285 
1600.000000	96.403931 
1599.000000	96.408945 
1598.000000	96.416186 
1597.000000	96.423666 
1596.000000	96.430002 
1595.000000	96.436775 
1594.000000	96.444944 
1593.000000	96.451972 
1592.000000	96.456112 
1591.000000	96.459822 
1590.000000	96.465528 
1589.000000	96.471434 
1588.000000	96.475717 
1587.000000	96.480629 
1586.000000	96.487997 
1585.000000	96.494454 
1584.000000	96.497929 
1583.000000	96.502174 
1582.000000	96.509332 
1581.000000	96.516129 
1580.000000	96.520467 
1579.000000	96.526119 
1578.000000	96.536821 
1577.000000	96.549528 
1576.000000	96.557209 
1575.000000	96.559452 
1574.000000	96.558265 
1573.000000	96.554847 
1572.000000	96.553953 
1571.000000	96.558779 
1570.000000	96.565405 
1569.000000	96.564054 
1568.000000	96.556552 
1567.000000	96.551633 
1566.000000	96.551664 
1565.000000	96.552356 
1564.000000	96.553142 
1563.000000	96.554150 
1562.000000	96.554325 
1561.000000	96.548431 
1560.000000	96.542003 
1559.000000	96.541139 
1558.000000	96.544740 
1557.000000	96.548738 
1556.000000	96.545067 
1555.000000	96.544847 
1554.000000	96.545501 
1553.000000	96.545872 
1552.000000	96.543657 
1551.000000	96.540689 
1550.000000	96.536580 
1549.000000	96.532163 
1548.000000	96.528646 
1547.000000	96.526821 
1546.000000	96.525518 
1545.000000	96.523499 
1544.000000	96.521429 
1543.000000	96.520863 
1542.000000	96.523823 
1541.000000	96.529844 
1540.000000	96.528567 
1539.000000	96.519182 
1538.000000	96.508488 
1537.000000	96.494699 
1536.000000	96.480183 
1535.000000	96.469368 
1534.000000	96.464606 
1533.000000	96.463152 
1532.000000	96.460426 
1531.000000	96.452852 
1530.000000	96.442708 
1529.000000	96.433893 
1528.000000	96.426362 
1527.000000	96.418383 
1526.000000	96.409894 
1525.000000	96.402505 
1524.000000	96.396910 
1523.000000	96.391965 
1522.000000	96.385507 
1521.000000	96.376034 
1520.000000	96.363384 
1519.000000	96.348277 
1518.000000	96.333186 
1517.000000	96.320571 
1516.000000	96.310550 
1515.000000	96.302724 
1514.000000	96.296560 
1513.000000	96.292435 
1512.000000	96.288804 
1511.000000	96.281169 
1510.000000	96.268216 
1509.000000	96.254218 
1508.000000	96.244446 
1507.000000	96.235825 
1506.000000	96.227885 
1505.000000	96.222617 
1504.000000	96.214474 
1503.000000	96.203370 
1502.000000	96.191077 
1501.000000	96.179727 
1500.000000	96.170454 
1499.000000	96.162353 
1498.000000	96.152367 
1497.000000	96.141207 
1496.000000	96.132231 
1495.000000	96.125234 
1494.000000	96.118202 
1493.000000	96.111374 
1492.000000	96.106077 
1491.000000	96.101842 
1490.000000	96.096347 
1489.000000	96.089481 
1488.000000	96.081272 
1487.000000	96.070203 
1486.000000	96.058338 
1485.000000	96.046658 
1484.000000	96.034757 
1483.000000	96.023846 
1482.000000	96.014861 
1481.000000	96.007372 
1480.000000	95.998978 
1479.000000	95.988142 
1478.000000	95.975960 
1477.000000	95.964806 
1476.000000	95.953839 
1475.000000	95.940023 
1474.000000	95.923495 
1473.000000	95.908933 
1472.000000	95.900796 
1471.000000	95.896370 
1470.000000	95.890952 
1469.000000	95.884243 
1468.000000	95.876829 
1467.000000	95.867250 
1466.000000	95.855310 
1465.000000	95.844150 
1464.000000	95.837435 
1463.000000	95.832081 
1462.000000	95.823027 
1461.000000	95.811667 
1460.000000	95.802706 
1459.000000	95.796668 
1458.000000	95.782819 
1457.000000	95.757417 
1456.000000	95.738259 
1455.000000	95.730393 
1454.000000	95.722602 
1453.000000	95.715611 
1452.000000	95.713004 
1451.000000	95.714089 
1450.000000	95.714641 
1449.000000	95.715457 
1448.000000	95.718447 
1447.000000	95.721004 
1446.000000	95.718729 
1445.000000	95.712578 
1444.000000	95.707923 
1443.000000	95.704777 
1442.000000	95.699654 
1441.000000	95.692083 
1440.000000	95.685144 
1439.000000	95.678848 
1438.000000	95.668813 
1437.000000	95.656304 
1436.000000	95.650773 
1435.000000	95.652749 
1434.000000	95.653285 
1433.000000	95.651860 
1432.000000	95.652496 
1431.000000	95.655540 
1430.000000	95.656908 
1429.000000	95.656120 
1428.000000	95.656494 
1427.000000	95.659180 
1426.000000	95.662519 
1425.000000	95.665543 
1424.000000	95.671952 
1423.000000	95.681219 
1422.000000	95.687191 
1421.000000	95.688531 
1420.000000	95.691283 
1419.000000	95.694651 
1418.000000	95.689651 
1417.000000	95.681724 
1416.000000	95.684608 
1415.000000	95.699623 
1414.000000	95.714592 
1413.000000	95.720944 
1412.000000	95.723371 
1411.000000	95.728759 
1410.000000	95.735174 
1409.000000	95.740193 
1408.000000	95.746448 
1407.000000	95.756095 
1406.000000	95.767057 
1405.000000	95.778356 
1404.000000	95.795243 
1403.000000	95.817027 
1402.000000	95.834855 
1401.000000	95.846438 
1400.000000	95.859388 
1399.000000	95.878884 
1398.000000	95.898489 
1397.000000	95.910873 
1396.000000	95.918772 
1395.000000	95.930487 
1394.000000	95.947941 
1393.000000	95.967881 
1392.000000	95.990879 
1391.000000	96.017089 
1390.000000	96.042106 
1389.000000	96.060942 
1388.000000	96.072595 
1387.000000	96.080012 
1386.000000	96.086816 
1385.000000	96.095845 
1384.000000	96.109917 
1383.000000	96.128806 
1382.000000	96.147783 
1381.000000	96.162698 
1380.000000	96.173591 
1379.000000	96.184293 
1378.000000	96.198214 
1377.000000	96.215340 
1376.000000	96.233094 
1375.000000	96.248933 
1374.000000	96.261958 
1373.000000	96.274306 
1372.000000	96.288703 
1371.000000	96.305629 
1370.000000	96.323343 
1369.000000	96.338399 
1368.000000	96.350765 
1367.000000	96.362997 
1366.000000	96.375998 
1365.000000	96.388928 
1364.000000	96.400183 
1363.000000	96.408072 
1362.000000	96.413825 
1361.000000	96.421586 
1360.000000	96.434017 
1359.000000	96.450670 
1358.000000	96.468702 
1357.000000	96.484555 
1356.000000	96.496829 
1355.000000	96.506668 
1354.000000	96.515864 
1353.000000	96.526047 
1352.000000	96.536835 
1351.000000	96.547445 
1350.000000	96.558221 
1349.000000	96.567109 
1348.000000	96.572362 
1347.000000	96.575420 
1346.000000	96.580202 
1345.000000	96.588451 
1344.000000	96.598314 
1343.000000	96.607146 
1342.000000	96.614071 
1341.000000	96.618627 
1340.000000	96.619904 
1339.000000	96.618995 
1338.000000	96.619209 
1337.000000	96.622657 
1336.000000	96.628573 
1335.000000	96.634690 
1334.000000	96.639571 
1333.000000	96.643287 
1332.000000	96.646046 
1331.000000	96.647855 
1330.000000	96.649077 
1329.000000	96.650334 
1328.000000	96.652001 
1327.000000	96.654518 
1326.000000	96.657782 
1325.000000	96.659633 
1324.000000	96.658410 
1323.000000	96.654364 
1322.000000	96.648933 
1321.000000	96.643903 
1320.000000	96.641385 
1319.000000	96.642509 
1318.000000	96.645918 
1317.000000	96.649036 
1316.000000	96.650411 
1315.000000	96.649924 
1314.000000	96.647741 
1313.000000	96.645154 
1312.000000	96.644882 
1311.000000	96.648313 
1310.000000	96.653043 
1309.000000	96.655461 
1308.000000	96.654882 
1307.000000	96.653917 
1306.000000	96.655035 
1305.000000	96.657808 
1304.000000	96.660839 
1303.000000	96.662740 
1302.000000	96.661992 
1301.000000	96.658080 
1300.000000	96.653411 
1299.000000	96.651631 
1298.000000	96.653491 
1297.000000	96.656035 
1296.000000	96.656307 
1295.000000	96.654642 
1294.000000	96.653322 
1293.000000	96.653723 
1292.000000	96.655393 
1291.000000	96.656886 
1290.000000	96.657123 
1289.000000	96.656416 
1288.000000	96.656029 
1287.000000	96.656356 
1286.000000	96.656155 
1285.000000	96.654646 
1284.000000	96.653329 
1283.000000	96.653824 
1282.000000	96.654945 
1281.000000	96.653863 
1280.000000	96.650064 
1279.000000	96.646453 
1278.000000	96.646047 
1277.000000	96.649206 
1276.000000	96.653976 
1275.000000	96.658018 
1274.000000	96.659751 
1273.000000	96.659183 
1272.000000	96.658012 
1271.000000	96.657734 
1270.000000	96.657584 
1269.000000	96.655761 
1268.000000	96.652646 
1267.000000	96.650484 
1266.000000	96.649646 
1265.000000	96.648340 
1264.000000	96.646216 
1263.000000	96.645265 
1262.000000	96.646518 
1261.000000	96.648408 
1260.000000	96.649909 
1259.000000	96.652895 
1258.000000	96.658731 
1257.000000	96.664786 
1256.000000	96.666522 
1255.000000	96.662735 
1254.000000	96.657165 
1253.000000	96.654514 
1252.000000	96.655436 
1251.000000	96.656397 
1250.000000	96.654376 
1249.000000	96.650782 
1248.000000	96.649734 
1247.000000	96.652593 
1246.000000	96.655843 
1245.000000	96.655691 
1244.000000	96.652682 
1243.000000	96.650347 
1242.000000	96.651096 
1241.000000	96.655111 
1240.000000	96.661180 
1239.000000	96.666421 
1238.000000	96.667106 
1237.000000	96.662402 
1236.000000	96.655956 
1235.000000	96.651510 
1234.000000	96.648341 
1233.000000	96.643452 
1232.000000	96.636484 
1231.000000	96.629248 
1230.000000	96.621992 
1229.000000	96.613773 
1228.000000	96.605203 
1227.000000	96.597003 
1226.000000	96.586507 
1225.000000	96.569410 
1224.000000	96.545002 
1223.000000	96.516619 
1222.000000	96.487020 
1221.000000	96.456346 
1220.000000	96.424577 
1219.000000	96.392462 
1218.000000	96.359143 
1217.000000	96.321903 
1216.000000	96.279125 
1215.000000	96.231472 
1214.000000	96.180380 
1213.000000	96.127913 
1212.000000	96.077242 
1211.000000	96.029274 
1210.000000	95.979148 
1209.000000	95.920363 
1208.000000	95.852928 
1207.000000	95.783758 
1206.000000	95.718153 
1205.000000	95.654261 
1204.000000	95.587014 
1203.000000	95.514240 
1202.000000	95.437737 
1201.000000	95.360831 
1200.000000	95.286096 
1199.000000	95.213590 
1198.000000	95.140494 
1197.000000	95.064285 
1196.000000	94.985829 
1195.000000	94.907348 
1194.000000	94.828451 
1193.000000	94.746928 
1192.000000	94.662649 
1191.000000	94.577187 
1190.000000	94.490082 
1189.000000	94.398993 
1188.000000	94.303287 
1187.000000	94.204217 
1186.000000	94.102215 
1185.000000	93.997519 
1184.000000	93.892518 
1183.000000	93.789521 
1182.000000	93.687013 
1181.000000	93.581958 
1180.000000	93.474597 
1179.000000	93.366580 
1178.000000	93.255706 
1177.000000	93.138007 
1176.000000	93.014190 
1175.000000	92.888507 
1174.000000	92.762006 
1173.000000	92.632813 
1172.000000	92.502569 
1171.000000	92.375487 
1170.000000	92.250874 
1169.000000	92.124154 
1168.000000	91.996753 
1167.000000	91.878297 
1166.000000	91.778176 
1165.000000	91.702245 
1164.000000	91.658256 
1163.000000	91.654710 
1162.000000	91.689890 
1161.000000	91.747708 
1160.000000	91.807122 
1159.000000	91.851253 
1158.000000	91.867617 
1157.000000	91.848093 
1156.000000	91.792559 
1155.000000	91.708076 
1154.000000	91.602464 
1153.000000	91.482421 
1152.000000	91.357471 
1151.000000	91.238215 
1150.000000	91.127913 
1149.000000	91.021786 
1148.000000	90.916449 
1147.000000	90.813552 
1146.000000	90.712700 
1145.000000	90.608776 
1144.000000	90.499657 
1143.000000	90.389979 
1142.000000	90.283774 
1141.000000	90.179295 
1140.000000	90.074036 
1139.000000	89.968950 
1138.000000	89.864931 
1137.000000	89.760740 
1136.000000	89.656482 
1135.000000	89.553447 
1134.000000	89.449146 
1133.000000	89.338903 
1132.000000	89.223566 
1131.000000	89.108816 
1130.000000	88.995848 
1129.000000	88.880228 
1128.000000	88.760997 
1127.000000	88.642298 
1126.000000	88.524184 
1125.000000	88.400681 
1124.000000	88.269740 
1123.000000	88.136794 
1122.000000	88.005608 
1121.000000	87.874140 
1120.000000	87.742486 
1119.000000	87.615796 
1118.000000	87.495780 
1117.000000	87.378383 
1116.000000	87.263151 
1115.000000	87.155902 
1114.000000	87.058847 
1113.000000	86.967174 
1112.000000	86.878074 
1111.000000	86.793455 
1110.000000	86.711341 
1109.000000	86.625174 
1108.000000	86.534161 
1107.000000	86.443619 
1106.000000	86.353878 
1105.000000	86.259740 
1104.000000	86.162109 
1103.000000	86.068468 
1102.000000	85.979045 
1101.000000	85.885691 
1100.000000	85.786529 
1099.000000	85.688462 
1098.000000	85.595947 
1097.000000	85.505753 
1096.000000	85.416551 
1095.000000	85.330126 
1094.000000	85.241632 
1093.000000	85.142061 
1092.000000	85.033568 
1091.000000	84.929540 
1090.000000	84.836446 
1089.000000	84.747847 
1088.000000	84.658137 
1087.000000	84.568401 
1086.000000	84.476600 
1085.000000	84.376681 
1084.000000	84.270864 
1083.000000	84.168998 
1082.000000	84.072447 
1081.000000	83.972160 
1080.000000	83.865242 
1079.000000	83.758779 
1078.000000	83.654160 
1077.000000	83.542360 
1076.000000	83.418326 
1075.000000	83.285563 
1074.000000	83.143522 
1073.000000	82.985177 
1072.000000	82.809521 
1071.000000	82.620739 
1070.000000	82.412496 
1069.000000	82.170456 
1068.000000	81.895397 
1067.000000	81.608206 
1066.000000	81.326784 
1065.000000	81.052671 
1064.000000	80.784361 
1063.000000	80.524842 
1062.000000	80.268740 
1061.000000	80.000102 
1060.000000	79.712416 
1059.000000	79.417018 
1058.000000	79.125016 
1057.000000	78.834682 
1056.000000	78.541946 
1055.000000	78.247767 
1054.000000	77.949117 
1053.000000	77.638011 
1052.000000	77.315884 
1051.000000	76.993852 
1050.000000	76.673646 
1049.000000	76.346159 
1048.000000	76.012508 
1047.000000	75.685485 
1046.000000	75.367306 
1045.000000	75.047407 
1044.000000	74.724130 
1043.000000	74.407491 
1042.000000	74.098442 
1041.000000	73.786805 
1040.000000	73.473208 
1039.000000	73.171684 
1038.000000	72.886743 
1037.000000	72.609721 
1036.000000	72.341377 
1035.000000	72.094975 
1034.000000	71.872603 
1033.000000	71.661616 
1032.000000	71.458805 
1031.000000	71.274483 
1030.000000	71.108799 
1029.000000	70.949307 
1028.000000	70.796995 
1027.000000	70.668788 
1026.000000	70.567658 
1025.000000	70.474870 
1024.000000	70.378146 
1023.000000	70.283420 
1022.000000	70.192883 
1021.000000	70.096933 
1020.000000	69.994776 
1019.000000	69.898827 
1018.000000	69.811863 
1017.000000	69.722734 
1016.000000	69.629750 
1015.000000	69.544442 
1014.000000	69.467411 
1013.000000	69.385300 
1012.000000	69.296819 
1011.000000	69.216810 
1010.000000	69.149398 
1009.000000	69.082652 
1008.000000	69.015315 
1007.000000	68.963068 
1006.000000	68.932102 
1005.000000	68.911705 
1004.000000	68.898559 
1003.000000	68.902555 
1002.000000	68.922343 
1001.000000	68.941458 
1000.000000	68.956230 
999.000000	 68.982468 
998.000000	 69.026974 
997.000000	 69.076937 
996.000000	 69.124654 
995.000000	 69.178971 
994.000000	 69.244877 
993.000000	 69.314817 
992.000000	 69.386588 
991.000000	 69.467247 
990.000000	 69.554163 
989.000000	 69.635562 
988.000000	 69.714662 
987.000000	 69.809440 
986.000000	 69.924025 
985.000000	 70.044929 
984.000000	 70.169803 
983.000000	 70.313846 
982.000000	 70.481649 
981.000000	 70.658490 
980.000000	 70.836511 
979.000000	 71.025028 
978.000000	 71.227951 
977.000000	 71.435937 
976.000000	 71.648445 
975.000000	 71.879164 
974.000000	 72.130936 
973.000000	 72.387930 
972.000000	 72.640968 
971.000000	 72.899287 
970.000000	 73.169467 
969.000000	 73.443761 
968.000000	 73.716719 
967.000000	 73.993301 
966.000000	 74.273493 
965.000000	 74.548208 
964.000000	 74.816642 
963.000000	 75.088863 
962.000000	 75.365811 
961.000000	 75.635514 
960.000000	 75.893952 
959.000000	 76.150488 
958.000000	 76.407771 
957.000000	 76.655482 
956.000000	 76.889641 
955.000000	 77.119788 
954.000000	 77.351587 
953.000000	 77.579223 
952.000000	 77.798998 
951.000000	 78.012850 
950.000000	 78.215310 
949.000000	 78.395645 
948.000000	 78.556795 
947.000000	 78.714202 
946.000000	 78.871899 
945.000000	 79.017562 
944.000000	 79.144893 
943.000000	 79.262377 
942.000000	 79.376140 
941.000000	 79.482859 
940.000000	 79.584583 
939.000000	 79.691867 
938.000000	 79.806323 
937.000000	 79.917394 
936.000000	 80.021677 
935.000000	 80.128429 
934.000000	 80.241664 
933.000000	 80.354537 
932.000000	 80.466073 
931.000000	 80.585186 
930.000000	 80.712512 
929.000000	 80.835755 
928.000000	 80.949014 
927.000000	 81.060321 
926.000000	 81.174612 
925.000000	 81.284889 
924.000000	 81.385083 
923.000000	 81.476473 
922.000000	 81.557912 
921.000000	 81.625752 
920.000000	 81.686706 
919.000000	 81.753930 
918.000000	 81.826376 
917.000000	 81.888858 
916.000000	 81.937136 
915.000000	 81.986878 
914.000000	 82.053634 
913.000000	 82.140225 
912.000000	 82.247443 
911.000000	 82.379962 
910.000000	 82.537024 
909.000000	 82.713279 
908.000000	 82.912164 
907.000000	 83.142480 
906.000000	 83.400100 
905.000000	 83.670030 
904.000000	 83.947588 
903.000000	 84.239377 
902.000000	 84.542750 
901.000000	 84.844266 
900.000000	 85.140585 
899.000000	 85.441526 
898.000000	 85.749549 
897.000000	 86.053747 
896.000000	 86.346501 
895.000000	 86.628665 
894.000000	 86.897318 
893.000000	 87.146685 
892.000000	 87.383054 
891.000000	 87.620764 
890.000000	 87.860386 
889.000000	 88.087166 
888.000000	 88.292696 
887.000000	 88.481720 
886.000000	 88.657207 
885.000000	 88.816626 
884.000000	 88.963965 
883.000000	 89.106701 
882.000000	 89.239497 
881.000000	 89.351223 
880.000000	 89.450660 
879.000000	 89.563537 
878.000000	 89.699150 
877.000000	 89.841751 
876.000000	 89.980685 
875.000000	 90.126557 
874.000000	 90.291018 
873.000000	 90.473188 
872.000000	 90.673771 
871.000000	 90.900154 
870.000000	 91.147838 
869.000000	 91.396107 
868.000000	 91.631311 
867.000000	 91.858219 
866.000000	 92.082392 
865.000000	 92.298934 
864.000000	 92.506487 
863.000000	 92.715679 
862.000000	 92.933197 
861.000000	 93.149815 
860.000000	 93.353305 
859.000000	 93.542751 
858.000000	 93.723124 
857.000000	 93.895515 
856.000000	 94.059111 
855.000000	 94.214092 
854.000000	 94.357212 
853.000000	 94.482479 
852.000000	 94.590123 
851.000000	 94.687849 
850.000000	 94.781714 
849.000000	 94.873381 
848.000000	 94.965310 
847.000000	 95.057724 
846.000000	 95.141180 
845.000000	 95.204994 
844.000000	 95.253232 
843.000000	 95.299403 
842.000000	 95.344941 
841.000000	 95.376708 
840.000000	 95.386316 
839.000000	 95.377034 
838.000000	 95.351059 
837.000000	 95.307056 
836.000000	 95.254166 
835.000000	 95.211640 
834.000000	 95.187202 
833.000000	 95.169431 
832.000000	 95.148301 
831.000000	 95.130097 
830.000000	 95.125622 
829.000000	 95.137126 
828.000000	 95.164509 
827.000000	 95.211136 
826.000000	 95.275067 
825.000000	 95.347352 
824.000000	 95.425830 
823.000000	 95.515794 
822.000000	 95.611540 
821.000000	 95.694945 
820.000000	 95.758117 
819.000000	 95.810749 
818.000000	 95.859751 
817.000000	 95.895666 
816.000000	 95.904490 
815.000000	 95.880982 
814.000000	 95.824841 
813.000000	 95.733675 
812.000000	 95.604544 
811.000000	 95.433043 
810.000000	 95.206436 
809.000000	 94.907476 
808.000000	 94.530408 
807.000000	 94.086196 
806.000000	 93.590677 
805.000000	 93.058578 
804.000000	 92.512495 
803.000000	 91.983864 
802.000000	 91.497684 
801.000000	 91.067674 
800.000000	 90.709881 
799.000000	 90.444485 
798.000000	 90.277479 
797.000000	 90.195622 
796.000000	 90.183936 
795.000000	 90.231690 
794.000000	 90.318622 
793.000000	 90.416109 
792.000000	 90.508632 
791.000000	 90.597113 
790.000000	 90.677321 
789.000000	 90.733032 
788.000000	 90.754032 
787.000000	 90.741700 
786.000000	 90.692261 
785.000000	 90.593695 
784.000000	 90.446101 
783.000000	 90.268329 
782.000000	 90.078959 
781.000000	 89.888565 
780.000000	 89.715712 
779.000000	 89.589473 
778.000000	 89.526366 
777.000000	 89.521556 
776.000000	 89.568756 
775.000000	 89.669160 
774.000000	 89.813698 
773.000000	 89.977207 
772.000000	 90.139874 
771.000000	 90.297747 
770.000000	 90.446357 
769.000000	 90.573728 
768.000000	 90.676789 
767.000000	 90.765187 
766.000000	 90.840693 
765.000000	 90.892089 
764.000000	 90.919591 
763.000000	 90.944856 
762.000000	 90.985342 
761.000000	 91.035569 
760.000000	 91.084310 
759.000000	 91.133409 
758.000000	 91.188705 
757.000000	 91.249303 
756.000000	 91.317989 
755.000000	 91.406517 
754.000000	 91.517066 
753.000000	 91.630866 
752.000000	 91.727137 
751.000000	 91.803625 
750.000000	 91.871390 
749.000000	 91.941323 
748.000000	 92.022684 
747.000000	 92.121227 
746.000000	 92.230237 
745.000000	 92.335540 
744.000000	 92.436593 
743.000000	 92.550303 
742.000000	 92.687766 
741.000000	 92.840961 
740.000000	 92.998591 
739.000000	 93.160112 
738.000000	 93.325971 
737.000000	 93.487106 
736.000000	 93.633378 
735.000000	 93.763169 
734.000000	 93.879333 
733.000000	 93.984989 
732.000000	 94.085753 
731.000000	 94.184536 
730.000000	 94.272094 
729.000000	 94.335133 
728.000000	 94.375932 
727.000000	 94.412007 
726.000000	 94.455831 
725.000000	 94.508764 
724.000000	 94.573846 
723.000000	 94.656173 
722.000000	 94.748441 
721.000000	 94.834231 
720.000000	 94.910096 
719.000000	 94.987164 
718.000000	 95.066939 
717.000000	 95.135644 
716.000000	 95.186520 
715.000000	 95.228739 
714.000000	 95.270733 
713.000000	 95.313017 
712.000000	 95.361953 
711.000000	 95.429538 
710.000000	 95.511562 
709.000000	 95.585391 
708.000000	 95.637699 
707.000000	 95.675348 
706.000000	 95.701758 
705.000000	 95.704221 
704.000000	 95.674647 
703.000000	 95.621086 
702.000000	 95.544433 
701.000000	 95.421975 
700.000000	 95.228832 
699.000000	 94.964467 
698.000000	 94.651796 
697.000000	 94.327797 
696.000000	 94.043993 
695.000000	 93.853936 
694.000000	 93.781704 
693.000000	 93.810364 
692.000000	 93.906070 
691.000000	 94.041487 
690.000000	 94.194492 
689.000000	 94.345452 
688.000000	 94.487202 
687.000000	 94.622094 
686.000000	 94.742690 
685.000000	 94.834852 
684.000000	 94.903319 
683.000000	 94.970949 
682.000000	 95.047886 
681.000000	 95.124080 
680.000000	 95.195641 
679.000000	 95.273858 
678.000000	 95.361055 
677.000000	 95.443522 
676.000000	 95.522095 
675.000000	 95.612620 
674.000000	 95.707806 
673.000000	 95.774793 
672.000000	 95.801965 
671.000000	 95.818400 
670.000000	 95.860248 
669.000000	 95.953769 
668.000000	 96.098049 
667.000000	 96.222402 
666.000000	 96.280242 
665.000000	 96.301738 
664.000000	 96.319367 
663.000000	 96.358745 
662.000000	 96.426798 
661.000000	 96.501213 
660.000000	 96.563077 
659.000000	 96.619984 
658.000000	 96.678375 
657.000000	 96.719945 
656.000000	 96.731476 
655.000000	 96.724156 
654.000000	 96.706212 
653.000000	 96.668070 
652.000000	 96.615596 
651.000000	 96.587946 
650.000000	 96.609093 

