4000.000000	98.154911 
3999.000000	98.153629 
3998.000000	98.150661 
3997.000000	98.147360 
3996.000000	98.145086 
3995.000000	98.144421 
3994.000000	98.145139 
3993.000000	98.146350 
3992.000000	98.146965 
3991.000000	98.146343 
3990.000000	98.144771 
3989.000000	98.143242 
3988.000000	98.142499 
3987.000000	98.142496 
3986.000000	98.142857 
3985.000000	98.143457 
3984.000000	98.144243 
3983.000000	98.144918 
3982.000000	98.145394 
3981.000000	98.146167 
3980.000000	98.147570 
3979.000000	98.148994 
3978.000000	98.149536 
3977.000000	98.149196 
3976.000000	98.148757 
3975.000000	98.148410 
3974.000000	98.147341 
3973.000000	98.144943 
3972.000000	98.141711 
3971.000000	98.138790 
3970.000000	98.136986 
3969.000000	98.136581 
3968.000000	98.137587 
3967.000000	98.139614 
3966.000000	98.141829 
3965.000000	98.143209 
3964.000000	98.142871 
3963.000000	98.140483 
3962.000000	98.136754 
3961.000000	98.133313 
3960.000000	98.131486 
3959.000000	98.131333 
3958.000000	98.132012 
3957.000000	98.132946 
3956.000000	98.133965 
3955.000000	98.134395 
3954.000000	98.133277 
3953.000000	98.130264 
3952.000000	98.126047 
3951.000000	98.121640 
3950.000000	98.117575 
3949.000000	98.114113 
3948.000000	98.111394 
3947.000000	98.109570 
3946.000000	98.108997 
3945.000000	98.110055 
3944.000000	98.112414 
3943.000000	98.114861 
3942.000000	98.116759 
3941.000000	98.118639 
3940.000000	98.120957 
3939.000000	98.123201 
3938.000000	98.124332 
3937.000000	98.123963 
3936.000000	98.122491 
3935.000000	98.120030 
3934.000000	98.116653 
3933.000000	98.113229 
3932.000000	98.111327 
3931.000000	98.111309 
3930.000000	98.111882 
3929.000000	98.112237 
3928.000000	98.112965 
3927.000000	98.114658 
3926.000000	98.116304 
3925.000000	98.116107 
3924.000000	98.113997 
3923.000000	98.111363 
3922.000000	98.108711 
3921.000000	98.105749 
3920.000000	98.103015 
3919.000000	98.101992 
3918.000000	98.103026 
3917.000000	98.104729 
3916.000000	98.105942 
3915.000000	98.106929 
3914.000000	98.108143 
3913.000000	98.109247 
3912.000000	98.109735 
3911.000000	98.109916 
3910.000000	98.110080 
3909.000000	98.109958 
3908.000000	98.109286 
3907.000000	98.107895 
3906.000000	98.105653 
3905.000000	98.101943 
3904.000000	98.096720 
3903.000000	98.091631 
3902.000000	98.088804 
3901.000000	98.088936 
3900.000000	98.091011 
3899.000000	98.093419 
3898.000000	98.095432 
3897.000000	98.096846 
3896.000000	98.097333 
3895.000000	98.097065 
3894.000000	98.096768 
3893.000000	98.097007 
3892.000000	98.097164 
3891.000000	98.096106 
3890.000000	98.093897 
3889.000000	98.091591 
3888.000000	98.090031 
3887.000000	98.089200 
3886.000000	98.088832 
3885.000000	98.088876 
3884.000000	98.089095 
3883.000000	98.088853 
3882.000000	98.087910 
3881.000000	98.086867 
3880.000000	98.086490 
3879.000000	98.086707 
3878.000000	98.086921 
3877.000000	98.086836 
3876.000000	98.086607 
3875.000000	98.086310 
3874.000000	98.085839 
3873.000000	98.085207 
3872.000000	98.084559 
3871.000000	98.083923 
3870.000000	98.083305 
3869.000000	98.082925 
3868.000000	98.082872 
3867.000000	98.082936 
3866.000000	98.082870 
3865.000000	98.082688 
3864.000000	98.082622 
3863.000000	98.082749 
3862.000000	98.082848 
3861.000000	98.082815 
3860.000000	98.082804 
3859.000000	98.082947 
3858.000000	98.083158 
3857.000000	98.083244 
3856.000000	98.083140 
3855.000000	98.082849 
3854.000000	98.082233 
3853.000000	98.081416 
3852.000000	98.080884 
3851.000000	98.080832 
3850.000000	98.081027 
3849.000000	98.081304 
3848.000000	98.081787 
3847.000000	98.082610 
3846.000000	98.083484 
3845.000000	98.083949 
3844.000000	98.083876 
3843.000000	98.083451 
3842.000000	98.082941 
3841.000000	98.082633 
3840.000000	98.082626 
3839.000000	98.082937 
3838.000000	98.083596 
3837.000000	98.084341 
3836.000000	98.084810 
3835.000000	98.084892 
3834.000000	98.084822 
3833.000000	98.084983 
3832.000000	98.085547 
3831.000000	98.086463 
3830.000000	98.087575 
3829.000000	98.088711 
3828.000000	98.089906 
3827.000000	98.091230 
3826.000000	98.092376 
3825.000000	98.093020 
3824.000000	98.093039 
3823.000000	98.092525 
3822.000000	98.091723 
3821.000000	98.090939 
3820.000000	98.090612 
3819.000000	98.090709 
3818.000000	98.090788 
3817.000000	98.090756 
3816.000000	98.091346 
3815.000000	98.093311 
3814.000000	98.096085 
3813.000000	98.098065 
3812.000000	98.098526 
3811.000000	98.098549 
3810.000000	98.099590 
3809.000000	98.101473 
3808.000000	98.102403 
3807.000000	98.101243 
3806.000000	98.098905 
3805.000000	98.097070 
3804.000000	98.096101 
3803.000000	98.095784 
3802.000000	98.096016 
3801.000000	98.096940 
3800.000000	98.098565 
3799.000000	98.099711 
3798.000000	98.099484 
3797.000000	98.099007 
3796.000000	98.100267 
3795.000000	98.103555 
3794.000000	98.106860 
3793.000000	98.108241 
3792.000000	98.108005 
3791.000000	98.108090 
3790.000000	98.109176 
3789.000000	98.109905 
3788.000000	98.109334 
3787.000000	98.108356 
3786.000000	98.108245 
3785.000000	98.108807 
3784.000000	98.108875 
3783.000000	98.108059 
3782.000000	98.106531 
3781.000000	98.104368 
3780.000000	98.102177 
3779.000000	98.101584 
3778.000000	98.103438 
3777.000000	98.106423 
3776.000000	98.108056 
3775.000000	98.107050 
3774.000000	98.104328 
3773.000000	98.101715 
3772.000000	98.099856 
3771.000000	98.097657 
3770.000000	98.094417 
3769.000000	98.091467 
3768.000000	98.089966 
3767.000000	98.089012 
3766.000000	98.087388 
3765.000000	98.085341 
3764.000000	98.084556 
3763.000000	98.085651 
3762.000000	98.086642 
3761.000000	98.085360 
3760.000000	98.082287 
3759.000000	98.080256 
3758.000000	98.079210 
3757.000000	98.076350 
3756.000000	98.071223 
3755.000000	98.065237 
3754.000000	98.058637 
3753.000000	98.050602 
3752.000000	98.043366 
3751.000000	98.041006 
3750.000000	98.041506 
3749.000000	98.039248 
3748.000000	98.034780 
3747.000000	98.033254 
3746.000000	98.036637 
3745.000000	98.040129 
3744.000000	98.042715 
3743.000000	98.047356 
3742.000000	98.050048 
3741.000000	98.044507 
3740.000000	98.032641 
3739.000000	98.024758 
3738.000000	98.027295 
3737.000000	98.033663 
3736.000000	98.034871 
3735.000000	98.032611 
3734.000000	98.033775 
3733.000000	98.037592 
3732.000000	98.039438 
3731.000000	98.040111 
3730.000000	98.042270 
3729.000000	98.044786 
3728.000000	98.045048 
3727.000000	98.043231 
3726.000000	98.042919 
3725.000000	98.045887 
3724.000000	98.049504 
3723.000000	98.051006 
3722.000000	98.051131 
3721.000000	98.051978 
3720.000000	98.052265 
3719.000000	98.050628 
3718.000000	98.047574 
3717.000000	98.043548 
3716.000000	98.038768 
3715.000000	98.031959 
3714.000000	98.022598 
3713.000000	98.013894 
3712.000000	98.009974 
3711.000000	98.010556 
3710.000000	98.010161 
3709.000000	98.005103 
3708.000000	97.996545 
3707.000000	97.986738 
3706.000000	97.977453 
3705.000000	97.969911 
3704.000000	97.964433 
3703.000000	97.959898 
3702.000000	97.953314 
3701.000000	97.942229 
3700.000000	97.927252 
3699.000000	97.911793 
3698.000000	97.899315 
3697.000000	97.890489 
3696.000000	97.884635 
3695.000000	97.880732 
3694.000000	97.876475 
3693.000000	97.869813 
3692.000000	97.860839 
3691.000000	97.850978 
3690.000000	97.840039 
3689.000000	97.828273 
3688.000000	97.818930 
3687.000000	97.814376 
3686.000000	97.813059 
3685.000000	97.811496 
3684.000000	97.808182 
3683.000000	97.805126 
3682.000000	97.804208 
3681.000000	97.802336 
3680.000000	97.794309 
3679.000000	97.778787 
3678.000000	97.760040 
3677.000000	97.742563 
3676.000000	97.726982 
3675.000000	97.714739 
3674.000000	97.706809 
3673.000000	97.700365 
3672.000000	97.691882 
3671.000000	97.682809 
3670.000000	97.677851 
3669.000000	97.678417 
3668.000000	97.679617 
3667.000000	97.676405 
3666.000000	97.670020 
3665.000000	97.664814 
3664.000000	97.662524 
3663.000000	97.661682 
3662.000000	97.659273 
3661.000000	97.652676 
3660.000000	97.642014 
3659.000000	97.629648 
3658.000000	97.619027 
3657.000000	97.611446 
3656.000000	97.605664 
3655.000000	97.600562 
3654.000000	97.594805 
3653.000000	97.586507 
3652.000000	97.573740 
3651.000000	97.556808 
3650.000000	97.539961 
3649.000000	97.528593 
3648.000000	97.524686 
3647.000000	97.526965 
3646.000000	97.533880 
3645.000000	97.543822 
3644.000000	97.554615 
3643.000000	97.564597 
3642.000000	97.572702 
3641.000000	97.577855 
3640.000000	97.579078 
3639.000000	97.575576 
3638.000000	97.568506 
3637.000000	97.560777 
3636.000000	97.554510 
3635.000000	97.548386 
3634.000000	97.539366 
3633.000000	97.527229 
3632.000000	97.514646 
3631.000000	97.503860 
3630.000000	97.494867 
3629.000000	97.487708 
3628.000000	97.483459 
3627.000000	97.481574 
3626.000000	97.479516 
3625.000000	97.477629 
3624.000000	97.478971 
3623.000000	97.484649 
3622.000000	97.491483 
3621.000000	97.494177 
3620.000000	97.490014 
3619.000000	97.481559 
3618.000000	97.473617 
3617.000000	97.469704 
3616.000000	97.472610 
3615.000000	97.483421 
3614.000000	97.499285 
3613.000000	97.514853 
3612.000000	97.526119 
3611.000000	97.532157 
3610.000000	97.535132 
3609.000000	97.538633 
3608.000000	97.544250 
3607.000000	97.550635 
3606.000000	97.555656 
3605.000000	97.559903 
3604.000000	97.566570 
3603.000000	97.577327 
3602.000000	97.589863 
3601.000000	97.599223 
3600.000000	97.602297 
3599.000000	97.600249 
3598.000000	97.597151 
3597.000000	97.596765 
3596.000000	97.601176 
3595.000000	97.608387 
3594.000000	97.613529 
3593.000000	97.613643 
3592.000000	97.609268 
3591.000000	97.602670 
3590.000000	97.596210 
3589.000000	97.591728 
3588.000000	97.590524 
3587.000000	97.593006 
3586.000000	97.598318 
3585.000000	97.605190 
3584.000000	97.613420 
3583.000000	97.623056 
3582.000000	97.633446 
3581.000000	97.642607 
3580.000000	97.648560 
3579.000000	97.650695 
3578.000000	97.649971 
3577.000000	97.648126 
3576.000000	97.646477 
3575.000000	97.645547 
3574.000000	97.644751 
3573.000000	97.643136 
3572.000000	97.639688 
3571.000000	97.633621 
3570.000000	97.624947 
3569.000000	97.615267 
3568.000000	97.607918 
3567.000000	97.606190 
3566.000000	97.610204 
3565.000000	97.616810 
3564.000000	97.622866 
3563.000000	97.627653 
3562.000000	97.631929 
3561.000000	97.636191 
3560.000000	97.639829 
3559.000000	97.641830 
3558.000000	97.641940 
3557.000000	97.641065 
3556.000000	97.640402 
3555.000000	97.640450 
3554.000000	97.640750 
3553.000000	97.640372 
3552.000000	97.638808 
3551.000000	97.636070 
3550.000000	97.632573 
3549.000000	97.629315 
3548.000000	97.627702 
3547.000000	97.628276 
3546.000000	97.629858 
3545.000000	97.630716 
3544.000000	97.630775 
3543.000000	97.631510 
3542.000000	97.633758 
3541.000000	97.636804 
3540.000000	97.639418 
3539.000000	97.640955 
3538.000000	97.641472 
3537.000000	97.641304 
3536.000000	97.640903 
3535.000000	97.640466 
3534.000000	97.639883 
3533.000000	97.639145 
3532.000000	97.638695 
3531.000000	97.639068 
3530.000000	97.640095 
3529.000000	97.640838 
3528.000000	97.640487 
3527.000000	97.639156 
3526.000000	97.637738 
3525.000000	97.637151 
3524.000000	97.637719 
3523.000000	97.639166 
3522.000000	97.640855 
3521.000000	97.642153 
3520.000000	97.642844 
3519.000000	97.643103 
3518.000000	97.643178 
3517.000000	97.643077 
3516.000000	97.642672 
3515.000000	97.642019 
3514.000000	97.641437 
3513.000000	97.641232 
3512.000000	97.641399 
3511.000000	97.641632 
3510.000000	97.641650 
3509.000000	97.641464 
3508.000000	97.641291 
3507.000000	97.641259 
3506.000000	97.641280 
3505.000000	97.641190 
3504.000000	97.640945 
3503.000000	97.640632 
3502.000000	97.640352 
3501.000000	97.640140 
3500.000000	97.640021 
3499.000000	97.640047 
3498.000000	97.640218 
3497.000000	97.640414 
3496.000000	97.640445 
3495.000000	97.640208 
3494.000000	97.639772 
3493.000000	97.639305 
3492.000000	97.638893 
3491.000000	97.638484 
3490.000000	97.638051 
3489.000000	97.637713 
3488.000000	97.637558 
3487.000000	97.637378 
3486.000000	97.636822 
3485.000000	97.635836 
3484.000000	97.634825 
3483.000000	97.634200 
3482.000000	97.633955 
3481.000000	97.633750 
3480.000000	97.633321 
3479.000000	97.632671 
3478.000000	97.631875 
3477.000000	97.630929 
3476.000000	97.629792 
3475.000000	97.628523 
3474.000000	97.627309 
3473.000000	97.626360 
3472.000000	97.625763 
3471.000000	97.625372 
3470.000000	97.624888 
3469.000000	97.624135 
3468.000000	97.623229 
3467.000000	97.622451 
3466.000000	97.621973 
3465.000000	97.621687 
3464.000000	97.621244 
3463.000000	97.620302 
3462.000000	97.618785 
3461.000000	97.616972 
3460.000000	97.615309 
3459.000000	97.614022 
3458.000000	97.612984 
3457.000000	97.611911 
3456.000000	97.610669 
3455.000000	97.609370 
3454.000000	97.608232 
3453.000000	97.607378 
3452.000000	97.606768 
3451.000000	97.606267 
3450.000000	97.605720 
3449.000000	97.604985 
3448.000000	97.603954 
3447.000000	97.602602 
3446.000000	97.601015 
3445.000000	97.599402 
3444.000000	97.598033 
3443.000000	97.597068 
3442.000000	97.596422 
3441.000000	97.595809 
3440.000000	97.594992 
3439.000000	97.593966 
3438.000000	97.592882 
3437.000000	97.591875 
3436.000000	97.591009 
3435.000000	97.590305 
3434.000000	97.589735 
3433.000000	97.589205 
3432.000000	97.588615 
3431.000000	97.587950 
3430.000000	97.587246 
3429.000000	97.586524 
3428.000000	97.585766 
3427.000000	97.584978 
3426.000000	97.584210 
3425.000000	97.583516 
3424.000000	97.582886 
3423.000000	97.582276 
3422.000000	97.581651 
3421.000000	97.581020 
3420.000000	97.580401 
3419.000000	97.579809 
3418.000000	97.579248 
3417.000000	97.578713 
3416.000000	97.578199 
3415.000000	97.577701 
3414.000000	97.577214 
3413.000000	97.576731 
3412.000000	97.576252 
3411.000000	97.575785 
3410.000000	97.575342 
3409.000000	97.574931 
3408.000000	97.574553 
3407.000000	97.574203 
3406.000000	97.573878 
3405.000000	97.573573 
3404.000000	97.573289 
3403.000000	97.573026 
3402.000000	97.572786 
3401.000000	97.572569 
3400.000000	97.572376 
3399.000000	97.572207 
3398.000000	97.572061 
3397.000000	97.571934 
3396.000000	97.571824 
3395.000000	97.571734 
3394.000000	97.571669 
3393.000000	97.571632 
3392.000000	97.571622 
3391.000000	97.571635 
3390.000000	97.571678 
3389.000000	97.571768 
3388.000000	97.571928 
3387.000000	97.572164 
3386.000000	97.572459 
3385.000000	97.572779 
3384.000000	97.573089 
3383.000000	97.573369 
3382.000000	97.573643 
3381.000000	97.573978 
3380.000000	97.574418 
3379.000000	97.574938 
3378.000000	97.575474 
3377.000000	97.576027 
3376.000000	97.576650 
3375.000000	97.577359 
3374.000000	97.578080 
3373.000000	97.578728 
3372.000000	97.579286 
3371.000000	97.579820 
3370.000000	97.580440 
3369.000000	97.581196 
3368.000000	97.582060 
3367.000000	97.582947 
3366.000000	97.583788 
3365.000000	97.584566 
3364.000000	97.585304 
3363.000000	97.586027 
3362.000000	97.586745 
3361.000000	97.587487 
3360.000000	97.588324 
3359.000000	97.589315 
3358.000000	97.590415 
3357.000000	97.591494 
3356.000000	97.592454 
3355.000000	97.593319 
3354.000000	97.594193 
3353.000000	97.595171 
3352.000000	97.596290 
3351.000000	97.597527 
3350.000000	97.598791 
3349.000000	97.599937 
3348.000000	97.600859 
3347.000000	97.601594 
3346.000000	97.602285 
3345.000000	97.603041 
3344.000000	97.603847 
3343.000000	97.604603 
3342.000000	97.605264 
3341.000000	97.605920 
3340.000000	97.606685 
3339.000000	97.607531 
3338.000000	97.608320 
3337.000000	97.608977 
3336.000000	97.609561 
3335.000000	97.610170 
3334.000000	97.610842 
3333.000000	97.611550 
3332.000000	97.612261 
3331.000000	97.612963 
3330.000000	97.613657 
3329.000000	97.614347 
3328.000000	97.615036 
3327.000000	97.615727 
3326.000000	97.616418 
3325.000000	97.617099 
3324.000000	97.617762 
3323.000000	97.618405 
3322.000000	97.619033 
3321.000000	97.619653 
3320.000000	97.620270 
3319.000000	97.620882 
3318.000000	97.621484 
3317.000000	97.622074 
3316.000000	97.622650 
3315.000000	97.623214 
3314.000000	97.623767 
3313.000000	97.624311 
3312.000000	97.624850 
3311.000000	97.625388 
3310.000000	97.625927 
3309.000000	97.626469 
3308.000000	97.627012 
3307.000000	97.627554 
3306.000000	97.628094 
3305.000000	97.628640 
3304.000000	97.629201 
3303.000000	97.629785 
3302.000000	97.630397 
3301.000000	97.631032 
3300.000000	97.631681 
3299.000000	97.632332 
3298.000000	97.632972 
3297.000000	97.633596 
3296.000000	97.634216 
3295.000000	97.634859 
3294.000000	97.635548 
3293.000000	97.636289 
3292.000000	97.637064 
3291.000000	97.637839 
3290.000000	97.638581 
3289.000000	97.639271 
3288.000000	97.639910 
3287.000000	97.640511 
3286.000000	97.641085 
3285.000000	97.641633 
3284.000000	97.642165 
3283.000000	97.642718 
3282.000000	97.643337 
3281.000000	97.644039 
3280.000000	97.644789 
3279.000000	97.645523 
3278.000000	97.646211 
3277.000000	97.646877 
3276.000000	97.647565 
3275.000000	97.648294 
3274.000000	97.649048 
3273.000000	97.649815 
3272.000000	97.650611 
3271.000000	97.651440 
3270.000000	97.652281 
3269.000000	97.653106 
3268.000000	97.653904 
3267.000000	97.654678 
3266.000000	97.655444 
3265.000000	97.656223 
3264.000000	97.657026 
3263.000000	97.657847 
3262.000000	97.658671 
3261.000000	97.659485 
3260.000000	97.660285 
3259.000000	97.661075 
3258.000000	97.661860 
3257.000000	97.662651 
3256.000000	97.663453 
3255.000000	97.664268 
3254.000000	97.665090 
3253.000000	97.665915 
3252.000000	97.666739 
3251.000000	97.667565 
3250.000000	97.668396 
3249.000000	97.669234 
3248.000000	97.670081 
3247.000000	97.670937 
3246.000000	97.671805 
3245.000000	97.672688 
3244.000000	97.673587 
3243.000000	97.674499 
3242.000000	97.675421 
3241.000000	97.676349 
3240.000000	97.677278 
3239.000000	97.678206 
3238.000000	97.679134 
3237.000000	97.680065 
3236.000000	97.681005 
3235.000000	97.681953 
3234.000000	97.682897 
3233.000000	97.683822 
3232.000000	97.684718 
3231.000000	97.685589 
3230.000000	97.686450 
3229.000000	97.687309 
3228.000000	97.688167 
3227.000000	97.689047 
3226.000000	97.690015 
3225.000000	97.691107 
3224.000000	97.692264 
3223.000000	97.693378 
3222.000000	97.694409 
3221.000000	97.695400 
3220.000000	97.696427 
3219.000000	97.697509 
3218.000000	97.698602 
3217.000000	97.699665 
3216.000000	97.700697 
3215.000000	97.701730 
3214.000000	97.702803 
3213.000000	97.703940 
3212.000000	97.705130 
3211.000000	97.706315 
3210.000000	97.707444 
3209.000000	97.708516 
3208.000000	97.709592 
3207.000000	97.710721 
3206.000000	97.711890 
3205.000000	97.713050 
3204.000000	97.714186 
3203.000000	97.715340 
3202.000000	97.716557 
3201.000000	97.717811 
3200.000000	97.719015 
3199.000000	97.720127 
3198.000000	97.721226 
3197.000000	97.722421 
3196.000000	97.723679 
3195.000000	97.724840 
3194.000000	97.725885 
3193.000000	97.727049 
3192.000000	97.728543 
3191.000000	97.730270 
3190.000000	97.731898 
3189.000000	97.733223 
3188.000000	97.734309 
3187.000000	97.735359 
3186.000000	97.736541 
3185.000000	97.737908 
3184.000000	97.739369 
3183.000000	97.740772 
3182.000000	97.742118 
3181.000000	97.743570 
3180.000000	97.745164 
3179.000000	97.746656 
3178.000000	97.747857 
3177.000000	97.748959 
3176.000000	97.750286 
3175.000000	97.751882 
3174.000000	97.753575 
3173.000000	97.755266 
3172.000000	97.756917 
3171.000000	97.758364 
3170.000000	97.759479 
3169.000000	97.760447 
3168.000000	97.761582 
3167.000000	97.762886 
3166.000000	97.764099 
3165.000000	97.765129 
3164.000000	97.766120 
3163.000000	97.767144 
3162.000000	97.768093 
3161.000000	97.768920 
3160.000000	97.769770 
3159.000000	97.770813 
3158.000000	97.772080 
3157.000000	97.773502 
3156.000000	97.774983 
3155.000000	97.776425 
3154.000000	97.777783 
3153.000000	97.779114 
3152.000000	97.780490 
3151.000000	97.781853 
3150.000000	97.783054 
3149.000000	97.784037 
3148.000000	97.784900 
3147.000000	97.785814 
3146.000000	97.786901 
3145.000000	97.788191 
3144.000000	97.789617 
3143.000000	97.791011 
3142.000000	97.792201 
3141.000000	97.793172 
3140.000000	97.794102 
3139.000000	97.795205 
3138.000000	97.796503 
3137.000000	97.797800 
3136.000000	97.798853 
3135.000000	97.799555 
3134.000000	97.800026 
3133.000000	97.800598 
3132.000000	97.801562 
3131.000000	97.802885 
3130.000000	97.804235 
3129.000000	97.805401 
3128.000000	97.806560 
3127.000000	97.808012 
3126.000000	97.809800 
3125.000000	97.811688 
3124.000000	97.813406 
3123.000000	97.814800 
3122.000000	97.815809 
3121.000000	97.816485 
3120.000000	97.817018 
3119.000000	97.817603 
3118.000000	97.818343 
3117.000000	97.819285 
3116.000000	97.820448 
3115.000000	97.821732 
3114.000000	97.822952 
3113.000000	97.824083 
3112.000000	97.825386 
3111.000000	97.827151 
3110.000000	97.829355 
3109.000000	97.831620 
3108.000000	97.833509 
3107.000000	97.834874 
3106.000000	97.835894 
3105.000000	97.836750 
3104.000000	97.837214 
3103.000000	97.836837 
3102.000000	97.835650 
3101.000000	97.834446 
3100.000000	97.834045 
3099.000000	97.834486 
3098.000000	97.835363 
3097.000000	97.836764 
3096.000000	97.839188 
3095.000000	97.842497 
3094.000000	97.845703 
3093.000000	97.847957 
3092.000000	97.849308 
3091.000000	97.850111 
3090.000000	97.850298 
3089.000000	97.849726 
3088.000000	97.848733 
3087.000000	97.847994 
3086.000000	97.848094 
3085.000000	97.849341 
3084.000000	97.851404 
3083.000000	97.853016 
3082.000000	97.852854 
3081.000000	97.851276 
3080.000000	97.850426 
3079.000000	97.851844 
3078.000000	97.854847 
3077.000000	97.857906 
3076.000000	97.860514 
3075.000000	97.862602 
3074.000000	97.863431 
3073.000000	97.862648 
3072.000000	97.861501 
3071.000000	97.861331 
3070.000000	97.861513 
3069.000000	97.860655 
3068.000000	97.859256 
3067.000000	97.859194 
3066.000000	97.860733 
3065.000000	97.862027 
3064.000000	97.861643 
3063.000000	97.859824 
3062.000000	97.857162 
3061.000000	97.853825 
3060.000000	97.850553 
3059.000000	97.848891 
3058.000000	97.849923 
3057.000000	97.853462 
3056.000000	97.858278 
3055.000000	97.861996 
3054.000000	97.861506 
3053.000000	97.855597 
3052.000000	97.847553 
3051.000000	97.843178 
3050.000000	97.845103 
3049.000000	97.850239 
3048.000000	97.853330 
3047.000000	97.851685 
3046.000000	97.845875 
3045.000000	97.837917 
3044.000000	97.830492 
3043.000000	97.826779 
3042.000000	97.828592 
3041.000000	97.833895 
3040.000000	97.837277 
3039.000000	97.834080 
3038.000000	97.824172 
3037.000000	97.811530 
3036.000000	97.800136 
3035.000000	97.790561 
3034.000000	97.780911 
3033.000000	97.770269 
3032.000000	97.759884 
3031.000000	97.751195 
3030.000000	97.744126 
3029.000000	97.737600 
3028.000000	97.730204 
3027.000000	97.719832 
3026.000000	97.704599 
3025.000000	97.685558 
3024.000000	97.667217 
3023.000000	97.653410 
3022.000000	97.643326 
3021.000000	97.633395 
3020.000000	97.622104 
3019.000000	97.610678 
3018.000000	97.599348 
3017.000000	97.585765 
3016.000000	97.568069 
3015.000000	97.547633 
3014.000000	97.527779 
3013.000000	97.510840 
3012.000000	97.496903 
3011.000000	97.484116 
3010.000000	97.469655 
3009.000000	97.451642 
3008.000000	97.430760 
3007.000000	97.409250 
3006.000000	97.388092 
3005.000000	97.366337 
3004.000000	97.343483 
3003.000000	97.321087 
3002.000000	97.301240 
3001.000000	97.284471 
3000.000000	97.269751 
2999.000000	97.255579 
2998.000000	97.240578 
2997.000000	97.224269 
2996.000000	97.207872 
2995.000000	97.192994 
2994.000000	97.178401 
2993.000000	97.159279 
2992.000000	97.131609 
2991.000000	97.097426 
2990.000000	97.064622 
2989.000000	97.041289 
2988.000000	97.030737 
2987.000000	97.031270 
2986.000000	97.038999 
2985.000000	97.050281 
2984.000000	97.062292 
2983.000000	97.072741 
2982.000000	97.079941 
2981.000000	97.083150 
2980.000000	97.082503 
2979.000000	97.078573 
2978.000000	97.072336 
2977.000000	97.065555 
2976.000000	97.060461 
2975.000000	97.058406 
2974.000000	97.059004 
2973.000000	97.061103 
2972.000000	97.064356 
2971.000000	97.069371 
2970.000000	97.076669 
2969.000000	97.086260 
2968.000000	97.098038 
2967.000000	97.111638 
2966.000000	97.125845 
2965.000000	97.139004 
2964.000000	97.150352 
2963.000000	97.160426 
2962.000000	97.170081 
2961.000000	97.179718 
2960.000000	97.189665 
2959.000000	97.200660 
2958.000000	97.213465 
2957.000000	97.228044 
2956.000000	97.243021 
2955.000000	97.255888 
2954.000000	97.264550 
2953.000000	97.269745 
2952.000000	97.275593 
2951.000000	97.286258 
2950.000000	97.301469 
2949.000000	97.316277 
2948.000000	97.325802 
2947.000000	97.329327 
2946.000000	97.329621 
2945.000000	97.329630 
2944.000000	97.330664 
2943.000000	97.332876 
2942.000000	97.335706 
2941.000000	97.337710 
2940.000000	97.337415 
2939.000000	97.335166 
2938.000000	97.333381 
2937.000000	97.334289 
2936.000000	97.337522 
2935.000000	97.340233 
2934.000000	97.339473 
2933.000000	97.334362 
2932.000000	97.326491 
2931.000000	97.318813 
2930.000000	97.314035 
2929.000000	97.313274 
2928.000000	97.315465 
2927.000000	97.318010 
2926.000000	97.318618 
2925.000000	97.317066 
2924.000000	97.315138 
2923.000000	97.314573 
2922.000000	97.315198 
2921.000000	97.315390 
2920.000000	97.314274 
2919.000000	97.312893 
2918.000000	97.312765 
2917.000000	97.313452 
2916.000000	97.312164 
2915.000000	97.306342 
2914.000000	97.296706 
2913.000000	97.287236 
2912.000000	97.281658 
2911.000000	97.279992 
2910.000000	97.279014 
2909.000000	97.276055 
2908.000000	97.271737 
2907.000000	97.268417 
2906.000000	97.266437 
2905.000000	97.262719 
2904.000000	97.253847 
2903.000000	97.240554 
2902.000000	97.229643 
2901.000000	97.229065 
2900.000000	97.241525 
2899.000000	97.262295 
2898.000000	97.282963 
2897.000000	97.298222 
2896.000000	97.308049 
2895.000000	97.314442 
2894.000000	97.318659 
2893.000000	97.322284 
2892.000000	97.328218 
2891.000000	97.338021 
2890.000000	97.349242 
2889.000000	97.357788 
2888.000000	97.362640 
2887.000000	97.366049 
2886.000000	97.369316 
2885.000000	97.371371 
2884.000000	97.372463 
2883.000000	97.376330 
2882.000000	97.386420 
2881.000000	97.401615 
2880.000000	97.417931 
2879.000000	97.433503 
2878.000000	97.449272 
2877.000000	97.465168 
2876.000000	97.478615 
2875.000000	97.487776 
2874.000000	97.494106 
2873.000000	97.500303 
2872.000000	97.507121 
2871.000000	97.513644 
2870.000000	97.519753 
2869.000000	97.526631 
2868.000000	97.535110 
2867.000000	97.544874 
2866.000000	97.555308 
2865.000000	97.566101 
2864.000000	97.577072 
2863.000000	97.588439 
2862.000000	97.601298 
2861.000000	97.616634 
2860.000000	97.633492 
2859.000000	97.649211 
2858.000000	97.662172 
2857.000000	97.673621 
2856.000000	97.686029 
2855.000000	97.700070 
2854.000000	97.714000 
2853.000000	97.725537 
2852.000000	97.733559 
2851.000000	97.738530 
2850.000000	97.742331 
2849.000000	97.747539 
2848.000000	97.755761 
2847.000000	97.766203 
2846.000000	97.776356 
2845.000000	97.784395 
2844.000000	97.790656 
2843.000000	97.796744 
2842.000000	97.803692 
2841.000000	97.811132 
2840.000000	97.817849 
2839.000000	97.822915 
2838.000000	97.826481 
2837.000000	97.829609 
2836.000000	97.833332 
2835.000000	97.838006 
2834.000000	97.843678 
2833.000000	97.850695 
2832.000000	97.859169 
2831.000000	97.867811 
2830.000000	97.874137 
2829.000000	97.876511 
2828.000000	97.875851 
2827.000000	97.875105 
2826.000000	97.877074 
2825.000000	97.882601 
2824.000000	97.890320 
2823.000000	97.897628 
2822.000000	97.902241 
2821.000000	97.903491 
2820.000000	97.902472 
2819.000000	97.900996 
2818.000000	97.900316 
2817.000000	97.900790 
2816.000000	97.902375 
2815.000000	97.904988 
2814.000000	97.908301 
2813.000000	97.911419 
2812.000000	97.913166 
2811.000000	97.912953 
2810.000000	97.911495 
2809.000000	97.910502 
2808.000000	97.911479 
2807.000000	97.914807 
2806.000000	97.919825 
2805.000000	97.925337 
2804.000000	97.929919 
2803.000000	97.932367 
2802.000000	97.932602 
2801.000000	97.932070 
2800.000000	97.932609 
2799.000000	97.934626 
2798.000000	97.936809 
2797.000000	97.937732 
2796.000000	97.937323 
2795.000000	97.936668 
2794.000000	97.936867 
2793.000000	97.938314 
2792.000000	97.940708 
2791.000000	97.943320 
2790.000000	97.945381 
2789.000000	97.946610 
2788.000000	97.947382 
2787.000000	97.948289 
2786.000000	97.949590 
2785.000000	97.951141 
2784.000000	97.952690 
2783.000000	97.954095 
2782.000000	97.955335 
2781.000000	97.956475 
2780.000000	97.957614 
2779.000000	97.958816 
2778.000000	97.960077 
2777.000000	97.961356 
2776.000000	97.962612 
2775.000000	97.963814 
2774.000000	97.964961 
2773.000000	97.966079 
2772.000000	97.967193 
2771.000000	97.968308 
2770.000000	97.969422 
2769.000000	97.970554 
2768.000000	97.971724 
2767.000000	97.972922 
2766.000000	97.974095 
2765.000000	97.975186 
2764.000000	97.976194 
2763.000000	97.977160 
2762.000000	97.978120 
2761.000000	97.979080 
2760.000000	97.980042 
2759.000000	97.981012 
2758.000000	97.981994 
2757.000000	97.982973 
2756.000000	97.983914 
2755.000000	97.984803 
2754.000000	97.985661 
2753.000000	97.986532 
2752.000000	97.987427 
2751.000000	97.988324 
2750.000000	97.989199 
2749.000000	97.990064 
2748.000000	97.990934 
2747.000000	97.991790 
2746.000000	97.992591 
2745.000000	97.993335 
2744.000000	97.994057 
2743.000000	97.994802 
2742.000000	97.995581 
2741.000000	97.996371 
2740.000000	97.997151 
2739.000000	97.997932 
2738.000000	97.998724 
2737.000000	97.999525 
2736.000000	98.000328 
2735.000000	98.001137 
2734.000000	98.001947 
2733.000000	98.002747 
2732.000000	98.003535 
2731.000000	98.004313 
2730.000000	98.005087 
2729.000000	98.005854 
2728.000000	98.006605 
2727.000000	98.007335 
2726.000000	98.008043 
2725.000000	98.008739 
2724.000000	98.009431 
2723.000000	98.010126 
2722.000000	98.010824 
2721.000000	98.011524 
2720.000000	98.012221 
2719.000000	98.012915 
2718.000000	98.013608 
2717.000000	98.014303 
2716.000000	98.014999 
2715.000000	98.015693 
2714.000000	98.016384 
2713.000000	98.017071 
2712.000000	98.017753 
2711.000000	98.018425 
2710.000000	98.019084 
2709.000000	98.019729 
2708.000000	98.020360 
2707.000000	98.020980 
2706.000000	98.021589 
2705.000000	98.022185 
2704.000000	98.022770 
2703.000000	98.023345 
2702.000000	98.023909 
2701.000000	98.024460 
2700.000000	98.024998 
2699.000000	98.025523 
2698.000000	98.026032 
2697.000000	98.026517 
2696.000000	98.026974 
2695.000000	98.027401 
2694.000000	98.027802 
2693.000000	98.028182 
2692.000000	98.028549 
2691.000000	98.028908 
2690.000000	98.029260 
2689.000000	98.029608 
2688.000000	98.029952 
2687.000000	98.030293 
2686.000000	98.030629 
2685.000000	98.030959 
2684.000000	98.031281 
2683.000000	98.031591 
2682.000000	98.031884 
2681.000000	98.032156 
2680.000000	98.032405 
2679.000000	98.032634 
2678.000000	98.032849 
2677.000000	98.033059 
2676.000000	98.033274 
2675.000000	98.033484 
2674.000000	98.033643 
2673.000000	98.033715 
2672.000000	98.033753 
2671.000000	98.033826 
2670.000000	98.033911 
2669.000000	98.033932 
2668.000000	98.033926 
2667.000000	98.034023 
2666.000000	98.034247 
2665.000000	98.034457 
2664.000000	98.034552 
2663.000000	98.034624 
2662.000000	98.034809 
2661.000000	98.035043 
2660.000000	98.035129 
2659.000000	98.034992 
2658.000000	98.034750 
2657.000000	98.034549 
2656.000000	98.034459 
2655.000000	98.034490 
2654.000000	98.034560 
2653.000000	98.034496 
2652.000000	98.034259 
2651.000000	98.034133 
2650.000000	98.034480 
2649.000000	98.035277 
2648.000000	98.036042 
2647.000000	98.036321 
2646.000000	98.036039 
2645.000000	98.035346 
2644.000000	98.034368 
2643.000000	98.033301 
2642.000000	98.032511 
2641.000000	98.032236 
2640.000000	98.032301 
2639.000000	98.032329 
2638.000000	98.032261 
2637.000000	98.032342 
2636.000000	98.032651 
2635.000000	98.032977 
2634.000000	98.033201 
2633.000000	98.033463 
2632.000000	98.033812 
2631.000000	98.033962 
2630.000000	98.033660 
2629.000000	98.033055 
2628.000000	98.032563 
2627.000000	98.032386 
2626.000000	98.032408 
2625.000000	98.032492 
2624.000000	98.032654 
2623.000000	98.032916 
2622.000000	98.033150 
2621.000000	98.033161 
2620.000000	98.032877 
2619.000000	98.032370 
2618.000000	98.031797 
2617.000000	98.031343 
2616.000000	98.031132 
2615.000000	98.031143 
2614.000000	98.031223 
2613.000000	98.031233 
2612.000000	98.031175 
2611.000000	98.031150 
2610.000000	98.031224 
2609.000000	98.031364 
2608.000000	98.031462 
2607.000000	98.031415 
2606.000000	98.031227 
2605.000000	98.031029 
2604.000000	98.030945 
2603.000000	98.030970 
2602.000000	98.030984 
2601.000000	98.030904 
2600.000000	98.030782 
2599.000000	98.030691 
2598.000000	98.030616 
2597.000000	98.030520 
2596.000000	98.030430 
2595.000000	98.030351 
2594.000000	98.030182 
2593.000000	98.029885 
2592.000000	98.029680 
2591.000000	98.029789 
2590.000000	98.030029 
2589.000000	98.029934 
2588.000000	98.029392 
2587.000000	98.028892 
2586.000000	98.028961 
2585.000000	98.029654 
2584.000000	98.030605 
2583.000000	98.031384 
2582.000000	98.031734 
2581.000000	98.031645 
2580.000000	98.031418 
2579.000000	98.031436 
2578.000000	98.031804 
2577.000000	98.032290 
2576.000000	98.032606 
2575.000000	98.032588 
2574.000000	98.032183 
2573.000000	98.031525 
2572.000000	98.030938 
2571.000000	98.030570 
2570.000000	98.030132 
2569.000000	98.029326 
2568.000000	98.028463 
2567.000000	98.028189 
2566.000000	98.028600 
2565.000000	98.029094 
2564.000000	98.029163 
2563.000000	98.028905 
2562.000000	98.028628 
2561.000000	98.028495 
2560.000000	98.028731 
2559.000000	98.029648 
2558.000000	98.031157 
2557.000000	98.032560 
2556.000000	98.033230 
2555.000000	98.033201 
2554.000000	98.032875 
2553.000000	98.032394 
2552.000000	98.031634 
2551.000000	98.030731 
2550.000000	98.030143 
2549.000000	98.030075 
2548.000000	98.030183 
2547.000000	98.030031 
2546.000000	98.029697 
2545.000000	98.029651 
2544.000000	98.030048 
2543.000000	98.030392 
2542.000000	98.030076 
2541.000000	98.029181 
2540.000000	98.028518 
2539.000000	98.028739 
2538.000000	98.029617 
2537.000000	98.030299 
2536.000000	98.030310 
2535.000000	98.029964 
2534.000000	98.029730 
2533.000000	98.029538 
2532.000000	98.029055 
2531.000000	98.028328 
2530.000000	98.027706 
2529.000000	98.027258 
2528.000000	98.026699 
2527.000000	98.025976 
2526.000000	98.025544 
2525.000000	98.025843 
2524.000000	98.026768 
2523.000000	98.027763 
2522.000000	98.028347 
2521.000000	98.028423 
2520.000000	98.028202 
2519.000000	98.027975 
2518.000000	98.027848 
2517.000000	98.027591 
2516.000000	98.026805 
2515.000000	98.025389 
2514.000000	98.023861 
2513.000000	98.023018 
2512.000000	98.023227 
2511.000000	98.024258 
2510.000000	98.025742 
2509.000000	98.027479 
2508.000000	98.029199 
2507.000000	98.030349 
2506.000000	98.030580 
2505.000000	98.030376 
2504.000000	98.030765 
2503.000000	98.032149 
2502.000000	98.033743 
2501.000000	98.034442 
2500.000000	98.034029 
2499.000000	98.033203 
2498.000000	98.032636 
2497.000000	98.032431 
2496.000000	98.032575 
2495.000000	98.033251 
2494.000000	98.034424 
2493.000000	98.035528 
2492.000000	98.036043 
2491.000000	98.036253 
2490.000000	98.036973 
2489.000000	98.038475 
2488.000000	98.039997 
2487.000000	98.040561 
2486.000000	98.040059 
2485.000000	98.039341 
2484.000000	98.039323 
2483.000000	98.040182 
2482.000000	98.041395 
2481.000000	98.042364 
2480.000000	98.042955 
2479.000000	98.043524 
2478.000000	98.044544 
2477.000000	98.046122 
2476.000000	98.047750 
2475.000000	98.048608 
2474.000000	98.048189 
2473.000000	98.046637 
2472.000000	98.044539 
2471.000000	98.042442 
2470.000000	98.040692 
2469.000000	98.039630 
2468.000000	98.039538 
2467.000000	98.040295 
2466.000000	98.041317 
2465.000000	98.041997 
2464.000000	98.042218 
2463.000000	98.042418 
2462.000000	98.043196 
2461.000000	98.044854 
2460.000000	98.047149 
2459.000000	98.049348 
2458.000000	98.050610 
2457.000000	98.050451 
2456.000000	98.049008 
2455.000000	98.047001 
2454.000000	98.045328 
2453.000000	98.044432 
2452.000000	98.044032 
2451.000000	98.043655 
2450.000000	98.043425 
2449.000000	98.043976 
2448.000000	98.045458 
2447.000000	98.047022 
2446.000000	98.047623 
2445.000000	98.047068 
2444.000000	98.045946 
2443.000000	98.044844 
2442.000000	98.044041 
2441.000000	98.043769 
2440.000000	98.044232 
2439.000000	98.045381 
2438.000000	98.047056 
2437.000000	98.049277 
2436.000000	98.051949 
2435.000000	98.054423 
2434.000000	98.055844 
2433.000000	98.055974 
2432.000000	98.055388 
2431.000000	98.054944 
2430.000000	98.055262 
2429.000000	98.056554 
2428.000000	98.058453 
2427.000000	98.060004 
2426.000000	98.060361 
2425.000000	98.059535 
2424.000000	98.058289 
2423.000000	98.057346 
2422.000000	98.056989 
2421.000000	98.057437 
2420.000000	98.058925 
2419.000000	98.061205 
2418.000000	98.063436 
2417.000000	98.065024 
2416.000000	98.066132 
2415.000000	98.067106 
2414.000000	98.067909 
2413.000000	98.068483 
2412.000000	98.069157 
2411.000000	98.070164 
2410.000000	98.071120 
2409.000000	98.071566 
2408.000000	98.071716 
2407.000000	98.072147 
2406.000000	98.073014 
2405.000000	98.073949 
2404.000000	98.074600 
2403.000000	98.074910 
2402.000000	98.075092 
2401.000000	98.075579 
2400.000000	98.076774 
2399.000000	98.078616 
2398.000000	98.080647 
2397.000000	98.082528 
2396.000000	98.084251 
2395.000000	98.085723 
2394.000000	98.086557 
2393.000000	98.086628 
2392.000000	98.086488 
2391.000000	98.086901 
2390.000000	98.087957 
2389.000000	98.089185 
2388.000000	98.090264 
2387.000000	98.091281 
2386.000000	98.092367 
2385.000000	98.093444 
2384.000000	98.094374 
2383.000000	98.095050 
2382.000000	98.095344 
2381.000000	98.095242 
2380.000000	98.095052 
2379.000000	98.095173 
2378.000000	98.095567 
2377.000000	98.095780 
2376.000000	98.095599 
2375.000000	98.095413 
2374.000000	98.095663 
2373.000000	98.096202 
2372.000000	98.096577 
2371.000000	98.096782 
2370.000000	98.097232 
2369.000000	98.097934 
2368.000000	98.098208 
2367.000000	98.097559 
2366.000000	98.096254 
2365.000000	98.095037 
2364.000000	98.094371 
2363.000000	98.094211 
2362.000000	98.094389 
2361.000000	98.094854 
2360.000000	98.095495 
2359.000000	98.096009 
2358.000000	98.096024 
2357.000000	98.095406 
2356.000000	98.094361 
2355.000000	98.093179 
2354.000000	98.091948 
2353.000000	98.090810 
2352.000000	98.090172 
2351.000000	98.090202 
2350.000000	98.090440 
2349.000000	98.090259 
2348.000000	98.089594 
2347.000000	98.088932 
2346.000000	98.088774 
2345.000000	98.089157 
2344.000000	98.089759 
2343.000000	98.090212 
2342.000000	98.090367 
2341.000000	98.090349 
2340.000000	98.090398 
2339.000000	98.090574 
2338.000000	98.090625 
2337.000000	98.090344 
2336.000000	98.089958 
2335.000000	98.089826 
2334.000000	98.089832 
2333.000000	98.089557 
2332.000000	98.089116 
2331.000000	98.089125 
2330.000000	98.089701 
2329.000000	98.090259 
2328.000000	98.090406 
2327.000000	98.090317 
2326.000000	98.090151 
2325.000000	98.089861 
2324.000000	98.089822 
2323.000000	98.090586 
2322.000000	98.091696 
2321.000000	98.091800 
2320.000000	98.090684 
2319.000000	98.089933 
2318.000000	98.090685 
2317.000000	98.091915 
2316.000000	98.091842 
2315.000000	98.090256 
2314.000000	98.088379 
2313.000000	98.087267 
2312.000000	98.087416 
2311.000000	98.089203 
2310.000000	98.091969 
2309.000000	98.093615 
2308.000000	98.092858 
2307.000000	98.091217 
2306.000000	98.091078 
2305.000000	98.092492 
2304.000000	98.093554 
2303.000000	98.093408 
2302.000000	98.093235 
2301.000000	98.094024 
2300.000000	98.094872 
2299.000000	98.093821 
2298.000000	98.089357 
2297.000000	98.081211 
2296.000000	98.071237 
2295.000000	98.062954 
2294.000000	98.058874 
2293.000000	98.058166 
2292.000000	98.057808 
2291.000000	98.055934 
2290.000000	98.053217 
2289.000000	98.051192 
2288.000000	98.050266 
2287.000000	98.049641 
2286.000000	98.048472 
2285.000000	98.046730 
2284.000000	98.045229 
2283.000000	98.044731 
2282.000000	98.044832 
2281.000000	98.044114 
2280.000000	98.041603 
2279.000000	98.037681 
2278.000000	98.033574 
2277.000000	98.030464 
2276.000000	98.029060 
2275.000000	98.029249 
2274.000000	98.030086 
2273.000000	98.030856 
2272.000000	98.031940 
2271.000000	98.033819 
2270.000000	98.035604 
2269.000000	98.035795 
2268.000000	98.034380 
2267.000000	98.032853 
2266.000000	98.032062 
2265.000000	98.031293 
2264.000000	98.029613 
2263.000000	98.027010 
2262.000000	98.023994 
2261.000000	98.021061 
2260.000000	98.018740 
2259.000000	98.017289 
2258.000000	98.016269 
2257.000000	98.015009 
2256.000000	98.013504 
2255.000000	98.012302 
2254.000000	98.011576 
2253.000000	98.010784 
2252.000000	98.009358 
2251.000000	98.007344 
2250.000000	98.005116 
2249.000000	98.002939 
2248.000000	98.000946 
2247.000000	97.999208 
2246.000000	97.997649 
2245.000000	97.996105 
2244.000000	97.994494 
2243.000000	97.992861 
2242.000000	97.991255 
2241.000000	97.989686 
2240.000000	97.988158 
2239.000000	97.986659 
2238.000000	97.985167 
2237.000000	97.983660 
2236.000000	97.982123 
2235.000000	97.980552 
2234.000000	97.978950 
2233.000000	97.977322 
2232.000000	97.975675 
2231.000000	97.974013 
2230.000000	97.972335 
2229.000000	97.970637 
2228.000000	97.968923 
2227.000000	97.967206 
2226.000000	97.965493 
2225.000000	97.963783 
2224.000000	97.962067 
2223.000000	97.960356 
2222.000000	97.958677 
2221.000000	97.957047 
2220.000000	97.955459 
2219.000000	97.953880 
2218.000000	97.952285 
2217.000000	97.950670 
2216.000000	97.949055 
2215.000000	97.947459 
2214.000000	97.945893 
2213.000000	97.944357 
2212.000000	97.942856 
2211.000000	97.941407 
2210.000000	97.940024 
2209.000000	97.938704 
2208.000000	97.937428 
2207.000000	97.936169 
2206.000000	97.934912 
2205.000000	97.933645 
2204.000000	97.932354 
2203.000000	97.931023 
2202.000000	97.929662 
2201.000000	97.928398 
2200.000000	97.927204 
2199.000000	97.925809 
2198.000000	97.924001 
2197.000000	97.921916 
2196.000000	97.919968 
2195.000000	97.918457 
2194.000000	97.917302 
2193.000000	97.916229 
2192.000000	97.915225 
2191.000000	97.914450 
2190.000000	97.913710 
2189.000000	97.912550 
2188.000000	97.911049 
2187.000000	97.909821 
2186.000000	97.908854 
2185.000000	97.907152 
2184.000000	97.904426 
2183.000000	97.902480 
2182.000000	97.903518 
2181.000000	97.907338 
2180.000000	97.910928 
2179.000000	97.911412 
2178.000000	97.908442 
2177.000000	97.903928 
2176.000000	97.900393 
2175.000000	97.899243 
2174.000000	97.900036 
2173.000000	97.901269 
2172.000000	97.902453 
2171.000000	97.904803 
2170.000000	97.908787 
2169.000000	97.911963 
2168.000000	97.911342 
2167.000000	97.907631 
2166.000000	97.904659 
2165.000000	97.903825 
2164.000000	97.901770 
2163.000000	97.895549 
2162.000000	97.888347 
2161.000000	97.886959 
2160.000000	97.894286 
2159.000000	97.906917 
2158.000000	97.919506 
2157.000000	97.929760 
2156.000000	97.937976 
2155.000000	97.944313 
2154.000000	97.948782 
2153.000000	97.952667 
2152.000000	97.957558 
2151.000000	97.962488 
2150.000000	97.964073 
2149.000000	97.961037 
2148.000000	97.957281 
2147.000000	97.958173 
2146.000000	97.964357 
2145.000000	97.971760 
2144.000000	97.977629 
2143.000000	97.983567 
2142.000000	97.991283 
2141.000000	97.998546 
2140.000000	98.002043 
2139.000000	98.002577 
2138.000000	98.004610 
2137.000000	98.010818 
2136.000000	98.019009 
2135.000000	98.024397 
2134.000000	98.023929 
2133.000000	98.018676 
2132.000000	98.013321 
2131.000000	98.012359 
2130.000000	98.016199 
2129.000000	98.021531 
2128.000000	98.025301 
2127.000000	98.027489 
2126.000000	98.029665 
2125.000000	98.032379 
2124.000000	98.035096 
2123.000000	98.037460 
2122.000000	98.039168 
2121.000000	98.039344 
2120.000000	98.037386 
2119.000000	98.034129 
2118.000000	98.031326 
2117.000000	98.030217 
2116.000000	98.030856 
2115.000000	98.032265 
2114.000000	98.032760 
2113.000000	98.030982 
2112.000000	98.027452 
2111.000000	98.024540 
2110.000000	98.024096 
2109.000000	98.025698 
2108.000000	98.027753 
2107.000000	98.029383 
2106.000000	98.030462 
2105.000000	98.030977 
2104.000000	98.031437 
2103.000000	98.032771 
2102.000000	98.034474 
2101.000000	98.033989 
2100.000000	98.029619 
2099.000000	98.023470 
2098.000000	98.020039 
2097.000000	98.021592 
2096.000000	98.026694 
2095.000000	98.032370 
2094.000000	98.036547 
2093.000000	98.038482 
2092.000000	98.038241 
2091.000000	98.036780 
2090.000000	98.035701 
2089.000000	98.035896 
2088.000000	98.036689 
2087.000000	98.036657 
2086.000000	98.034964 
2085.000000	98.031819 
2084.000000	98.028166 
2083.000000	98.025006 
2082.000000	98.022690 
2081.000000	98.020923 
2080.000000	98.019555 
2079.000000	98.018929 
2078.000000	98.018965 
2077.000000	98.018501 
2076.000000	98.016471 
2075.000000	98.013384 
2074.000000	98.010622 
2073.000000	98.008377 
2072.000000	98.005531 
2071.000000	98.001549 
2070.000000	97.997380 
2069.000000	97.994317 
2068.000000	97.992832 
2067.000000	97.992601 
2066.000000	97.992806 
2065.000000	97.992196 
2064.000000	97.989758 
2063.000000	97.985722 
2062.000000	97.981591 
2061.000000	97.978948 
2060.000000	97.978203 
2059.000000	97.978821 
2058.000000	97.979836 
2057.000000	97.980089 
2056.000000	97.978785 
2055.000000	97.975910 
2054.000000	97.972285 
2053.000000	97.968977 
2052.000000	97.966499 
2051.000000	97.964658 
2050.000000	97.963003 
2049.000000	97.961323 
2048.000000	97.959745 
2047.000000	97.958453 
2046.000000	97.957433 
2045.000000	97.956570 
2044.000000	97.955871 
2043.000000	97.955430 
2042.000000	97.955222 
2041.000000	97.955076 
2040.000000	97.954923 
2039.000000	97.954991 
2038.000000	97.955482 
2037.000000	97.956132 
2036.000000	97.956364 
2035.000000	97.955919 
2034.000000	97.955162 
2033.000000	97.954800 
2032.000000	97.955278 
2031.000000	97.956417 
2030.000000	97.957437 
2029.000000	97.957538 
2028.000000	97.956622 
2027.000000	97.955409 
2026.000000	97.954638 
2025.000000	97.954378 
2024.000000	97.954482 
2023.000000	97.955365 
2022.000000	97.957676 
2021.000000	97.961151 
2020.000000	97.964155 
2019.000000	97.965022 
2018.000000	97.963316 
2017.000000	97.960088 
2016.000000	97.957258 
2015.000000	97.956161 
2014.000000	97.956615 
2013.000000	97.956915 
2012.000000	97.955555 
2011.000000	97.953345 
2010.000000	97.952813 
2009.000000	97.955156 
2008.000000	97.958855 
2007.000000	97.961664 
2006.000000	97.963205 
2005.000000	97.964487 
2004.000000	97.966034 
2003.000000	97.967746 
2002.000000	97.969887 
2001.000000	97.972420 
2000.000000	97.973746 
1999.000000	97.971702 
1998.000000	97.965843 
1997.000000	97.958195 
1996.000000	97.951837 
1995.000000	97.948767 
1994.000000	97.948918 
1993.000000	97.950459 
1992.000000	97.951147 
1991.000000	97.950354 
1990.000000	97.949502 
1989.000000	97.950075 
1988.000000	97.951572 
1987.000000	97.951819 
1986.000000	97.949251 
1985.000000	97.944551 
1984.000000	97.940017 
1983.000000	97.937425 
1982.000000	97.936779 
1981.000000	97.936962 
1980.000000	97.937367 
1979.000000	97.938333 
1978.000000	97.939774 
1977.000000	97.940581 
1976.000000	97.940045 
1975.000000	97.939144 
1974.000000	97.939556 
1973.000000	97.941887 
1972.000000	97.945324 
1971.000000	97.948593 
1970.000000	97.950671 
1969.000000	97.950838 
1968.000000	97.948898 
1967.000000	97.945714 
1966.000000	97.943272 
1965.000000	97.943335 
1964.000000	97.946175 
1963.000000	97.950716 
1962.000000	97.955448 
1961.000000	97.959236 
1960.000000	97.961516 
1959.000000	97.962280 
1958.000000	97.962238 
1957.000000	97.962693 
1956.000000	97.964578 
1955.000000	97.967615 
1954.000000	97.970504 
1953.000000	97.972227 
1952.000000	97.972940 
1951.000000	97.973445 
1950.000000	97.974321 
1949.000000	97.975836 
1948.000000	97.978213 
1947.000000	97.981360 
1946.000000	97.984457 
1945.000000	97.986510 
1944.000000	97.987288 
1943.000000	97.987417 
1942.000000	97.987609 
1941.000000	97.988052 
1940.000000	97.988680 
1939.000000	97.989506 
1938.000000	97.990552 
1937.000000	97.991882 
1936.000000	97.993642 
1935.000000	97.995692 
1934.000000	97.997395 
1933.000000	97.998400 
1932.000000	97.999366 
1931.000000	98.001293 
1930.000000	98.004285 
1929.000000	98.007239 
1928.000000	98.009222 
1927.000000	98.010462 
1926.000000	98.011626 
1925.000000	98.012834 
1924.000000	98.013746 
1923.000000	98.014350 
1922.000000	98.014776 
1921.000000	98.014760 
1920.000000	98.014264 
1919.000000	98.013986 
1918.000000	98.014427 
1917.000000	98.014759 
1916.000000	98.013965 
1915.000000	98.012804 
1914.000000	98.012762 
1913.000000	98.013887 
1912.000000	98.014937 
1911.000000	98.015397 
1910.000000	98.015955 
1909.000000	98.016925 
1908.000000	98.017878 
1907.000000	98.018494 
1906.000000	98.018749 
1905.000000	98.018426 
1904.000000	98.017350 
1903.000000	98.016225 
1902.000000	98.016002 
1901.000000	98.016586 
1900.000000	98.017211 
1899.000000	98.017570 
1898.000000	98.017952 
1897.000000	98.018527 
1896.000000	98.019013 
1895.000000	98.019167 
1894.000000	98.019070 
1893.000000	98.018927 
1892.000000	98.018909 
1891.000000	98.019142 
1890.000000	98.019619 
1889.000000	98.020176 
1888.000000	98.020676 
1887.000000	98.021151 
1886.000000	98.021654 
1885.000000	98.022159 
1884.000000	98.022660 
1883.000000	98.023190 
1882.000000	98.023773 
1881.000000	98.024419 
1880.000000	98.025138 
1879.000000	98.025924 
1878.000000	98.026766 
1877.000000	98.027655 
1876.000000	98.028590 
1875.000000	98.029578 
1874.000000	98.030625 
1873.000000	98.031725 
1872.000000	98.032857 
1871.000000	98.034002 
1870.000000	98.035154 
1869.000000	98.036317 
1868.000000	98.037502 
1867.000000	98.038723 
1866.000000	98.039990 
1865.000000	98.041295 
1864.000000	98.042619 
1863.000000	98.043967 
1862.000000	98.045384 
1861.000000	98.046894 
1860.000000	98.048453 
1859.000000	98.050013 
1858.000000	98.051593 
1857.000000	98.053213 
1856.000000	98.054852 
1855.000000	98.056488 
1854.000000	98.058129 
1853.000000	98.059778 
1852.000000	98.061439 
1851.000000	98.063145 
1850.000000	98.064911 
1849.000000	98.066675 
1848.000000	98.068336 
1847.000000	98.069872 
1846.000000	98.071367 
1845.000000	98.072893 
1844.000000	98.074395 
1843.000000	98.075823 
1842.000000	98.077250 
1841.000000	98.078734 
1840.000000	98.080272 
1839.000000	98.081858 
1838.000000	98.083453 
1837.000000	98.084880 
1836.000000	98.085921 
1835.000000	98.086675 
1834.000000	98.087557 
1833.000000	98.088756 
1832.000000	98.090122 
1831.000000	98.091282 
1830.000000	98.091869 
1829.000000	98.092034 
1828.000000	98.092416 
1827.000000	98.093454 
1826.000000	98.095021 
1825.000000	98.096497 
1824.000000	98.097323 
1823.000000	98.097473 
1822.000000	98.097453 
1821.000000	98.097584 
1820.000000	98.097649 
1819.000000	98.097420 
1818.000000	98.097507 
1817.000000	98.098679 
1816.000000	98.100232 
1815.000000	98.101093 
1814.000000	98.101640 
1813.000000	98.103068 
1812.000000	98.104967 
1811.000000	98.104969 
1810.000000	98.102601 
1809.000000	98.100239 
1808.000000	98.099318 
1807.000000	98.099190 
1806.000000	98.099512 
1805.000000	98.100631 
1804.000000	98.101734 
1803.000000	98.101317 
1802.000000	98.099114 
1801.000000	98.096760 
1800.000000	98.095378 
1799.000000	98.094173 
1798.000000	98.093236 
1797.000000	98.093112 
1796.000000	98.092951 
1795.000000	98.092403 
1794.000000	98.092762 
1793.000000	98.094915 
1792.000000	98.096703 
1791.000000	98.095599 
1790.000000	98.093729 
1789.000000	98.094534 
1788.000000	98.098115 
1787.000000	98.102073 
1786.000000	98.104759 
1785.000000	98.106196 
1784.000000	98.106499 
1783.000000	98.106418 
1782.000000	98.106779 
1781.000000	98.107714 
1780.000000	98.109219 
1779.000000	98.111126 
1778.000000	98.113760 
1777.000000	98.116655 
1776.000000	98.118711 
1775.000000	98.119827 
1774.000000	98.120408 
1773.000000	98.120977 
1772.000000	98.122102 
1771.000000	98.123284 
1770.000000	98.123818 
1769.000000	98.124204 
1768.000000	98.125005 
1767.000000	98.125990 
1766.000000	98.126844 
1765.000000	98.128114 
1764.000000	98.130459 
1763.000000	98.133147 
1762.000000	98.134584 
1761.000000	98.134761 
1760.000000	98.135037 
1759.000000	98.135914 
1758.000000	98.136811 
1757.000000	98.137002 
1756.000000	98.137124 
1755.000000	98.137710 
1754.000000	98.137994 
1753.000000	98.137310 
1752.000000	98.136472 
1751.000000	98.137112 
1750.000000	98.139435 
1749.000000	98.141906 
1748.000000	98.143375 
1747.000000	98.144295 
1746.000000	98.144972 
1745.000000	98.145524 
1744.000000	98.146495 
1743.000000	98.147645 
1742.000000	98.147834 
1741.000000	98.146936 
1740.000000	98.146351 
1739.000000	98.147172 
1738.000000	98.148396 
1737.000000	98.148791 
1736.000000	98.148317 
1735.000000	98.147479 
1734.000000	98.146950 
1733.000000	98.146802 
1732.000000	98.146940 
1731.000000	98.148214 
1730.000000	98.151040 
1729.000000	98.153379 
1728.000000	98.153937 
1727.000000	98.153519 
1726.000000	98.153400 
1725.000000	98.153802 
1724.000000	98.154151 
1723.000000	98.153807 
1722.000000	98.153234 
1721.000000	98.153001 
1720.000000	98.153277 
1719.000000	98.153418 
1718.000000	98.152961 
1717.000000	98.152640 
1716.000000	98.151501 
1715.000000	98.148807 
1714.000000	98.146790 
1713.000000	98.146419 
1712.000000	98.146121 
1711.000000	98.145261 
1710.000000	98.144792 
1709.000000	98.144903 
1708.000000	98.144723 
1707.000000	98.143846 
1706.000000	98.142846 
1705.000000	98.141931 
1704.000000	98.139798 
1703.000000	98.136249 
1702.000000	98.132494 
1701.000000	98.130235 
1700.000000	98.129355 
1699.000000	98.127860 
1698.000000	98.126042 
1697.000000	98.125165 
1696.000000	98.124769 
1695.000000	98.123806 
1694.000000	98.122262 
1693.000000	98.120635 
1692.000000	98.119065 
1691.000000	98.117377 
1690.000000	98.115497 
1689.000000	98.113471 
1688.000000	98.111409 
1687.000000	98.109429 
1686.000000	98.107601 
1685.000000	98.105939 
1684.000000	98.104129 
1683.000000	98.102012 
1682.000000	98.099770 
1681.000000	98.097497 
1680.000000	98.095325 
1679.000000	98.093257 
1678.000000	98.091226 
1677.000000	98.089118 
1676.000000	98.087007 
1675.000000	98.084964 
1674.000000	98.082600 
1673.000000	98.079626 
1672.000000	98.076636 
1671.000000	98.074469 
1670.000000	98.073182 
1669.000000	98.071613 
1668.000000	98.069481 
1667.000000	98.067709 
1666.000000	98.066289 
1665.000000	98.064904 
1664.000000	98.063795 
1663.000000	98.063311 
1662.000000	98.062510 
1661.000000	98.059346 
1660.000000	98.054971 
1659.000000	98.052257 
1658.000000	98.052094 
1657.000000	98.051536 
1656.000000	98.050060 
1655.000000	98.048734 
1654.000000	98.047208 
1653.000000	98.042960 
1652.000000	98.035629 
1651.000000	98.027636 
1650.000000	98.019269 
1649.000000	98.014174 
1648.000000	98.011339 
1647.000000	98.010646 
1646.000000	98.011317 
1645.000000	98.013560 
1644.000000	98.013999 
1643.000000	98.013100 
1642.000000	98.012848 
1641.000000	98.013597 
1640.000000	98.014001 
1639.000000	98.012584 
1638.000000	98.010101 
1637.000000	98.007751 
1636.000000	98.005725 
1635.000000	98.006113 
1634.000000	98.008757 
1633.000000	98.010171 
1632.000000	98.008785 
1631.000000	98.006814 
1630.000000	98.007611 
1629.000000	98.010793 
1628.000000	98.013367 
1627.000000	98.014940 
1626.000000	98.016770 
1625.000000	98.018668 
1624.000000	98.020440 
1623.000000	98.023449 
1622.000000	98.027750 
1621.000000	98.029707 
1620.000000	98.028910 
1619.000000	98.029319 
1618.000000	98.033482 
1617.000000	98.037508 
1616.000000	98.036701 
1615.000000	98.034752 
1614.000000	98.035484 
1613.000000	98.037251 
1612.000000	98.037719 
1611.000000	98.038377 
1610.000000	98.041325 
1609.000000	98.045212 
1608.000000	98.048754 
1607.000000	98.053571 
1606.000000	98.059312 
1605.000000	98.062917 
1604.000000	98.065067 
1603.000000	98.068834 
1602.000000	98.074063 
1601.000000	98.077848 
1600.000000	98.080189 
1599.000000	98.084170 
1598.000000	98.089829 
1597.000000	98.093789 
1596.000000	98.094647 
1595.000000	98.095134 
1594.000000	98.097746 
1593.000000	98.100968 
1592.000000	98.102883 
1591.000000	98.104805 
1590.000000	98.108144 
1589.000000	98.111240 
1588.000000	98.113258 
1587.000000	98.116699 
1586.000000	98.122358 
1585.000000	98.125667 
1584.000000	98.125053 
1583.000000	98.125933 
1582.000000	98.130396 
1581.000000	98.133725 
1580.000000	98.133367 
1579.000000	98.133826 
1578.000000	98.138985 
1577.000000	98.146180 
1576.000000	98.150195 
1575.000000	98.152282 
1574.000000	98.153465 
1573.000000	98.152337 
1572.000000	98.152444 
1571.000000	98.157132 
1570.000000	98.162482 
1569.000000	98.157967 
1568.000000	98.146787 
1567.000000	98.140022 
1566.000000	98.139758 
1565.000000	98.139795 
1564.000000	98.139554 
1563.000000	98.140243 
1562.000000	98.141577 
1561.000000	98.137970 
1560.000000	98.132669 
1559.000000	98.129420 
1558.000000	98.126265 
1557.000000	98.123696 
1556.000000	98.117334 
1555.000000	98.116016 
1554.000000	98.112957 
1553.000000	98.108757 
1552.000000	98.104604 
1551.000000	98.100643 
1550.000000	98.090902 
1549.000000	98.075534 
1548.000000	98.061328 
1547.000000	98.054079 
1546.000000	98.050482 
1545.000000	98.043391 
1544.000000	98.031274 
1543.000000	98.018041 
1542.000000	98.008106 
1541.000000	98.002080 
1540.000000	97.990020 
1539.000000	97.971839 
1538.000000	97.954804 
1537.000000	97.936926 
1536.000000	97.919730 
1535.000000	97.907210 
1534.000000	97.900444 
1533.000000	97.894102 
1532.000000	97.883569 
1531.000000	97.867550 
1530.000000	97.850800 
1529.000000	97.837447 
1528.000000	97.825225 
1527.000000	97.809934 
1526.000000	97.790414 
1525.000000	97.770019 
1524.000000	97.753640 
1523.000000	97.742852 
1522.000000	97.733532 
1521.000000	97.718865 
1520.000000	97.697453 
1519.000000	97.674066 
1518.000000	97.652567 
1517.000000	97.632710 
1516.000000	97.612547 
1515.000000	97.593627 
1514.000000	97.578267 
1513.000000	97.567247 
1512.000000	97.557363 
1511.000000	97.542273 
1510.000000	97.520434 
1509.000000	97.496545 
1508.000000	97.475188 
1507.000000	97.451875 
1506.000000	97.428313 
1505.000000	97.410208 
1504.000000	97.392911 
1503.000000	97.374897 
1502.000000	97.355397 
1501.000000	97.335751 
1500.000000	97.317434 
1499.000000	97.299754 
1498.000000	97.278585 
1497.000000	97.255742 
1496.000000	97.237129 
1495.000000	97.223030 
1494.000000	97.210845 
1493.000000	97.200872 
1492.000000	97.194597 
1491.000000	97.190061 
1490.000000	97.181976 
1489.000000	97.168841 
1488.000000	97.151212 
1487.000000	97.128783 
1486.000000	97.105660 
1485.000000	97.082796 
1484.000000	97.059812 
1483.000000	97.039498 
1482.000000	97.022792 
1481.000000	97.007779 
1480.000000	96.991297 
1479.000000	96.973593 
1478.000000	96.957188 
1477.000000	96.942948 
1476.000000	96.926840 
1475.000000	96.905942 
1474.000000	96.884215 
1473.000000	96.868274 
1472.000000	96.859675 
1471.000000	96.851439 
1470.000000	96.838940 
1469.000000	96.824104 
1468.000000	96.808929 
1467.000000	96.793534 
1466.000000	96.779682 
1465.000000	96.769584 
1464.000000	96.762626 
1463.000000	96.752489 
1462.000000	96.735515 
1461.000000	96.716437 
1460.000000	96.702750 
1459.000000	96.697423 
1458.000000	96.690471 
1457.000000	96.672075 
1456.000000	96.649935 
1455.000000	96.630585 
1454.000000	96.611223 
1453.000000	96.596165 
1452.000000	96.589623 
1451.000000	96.591101 
1450.000000	96.596593 
1449.000000	96.605920 
1448.000000	96.617280 
1447.000000	96.624190 
1446.000000	96.622250 
1445.000000	96.615637 
1444.000000	96.613009 
1443.000000	96.614563 
1442.000000	96.614506 
1441.000000	96.610158 
1440.000000	96.605084 
1439.000000	96.602432 
1438.000000	96.600877 
1437.000000	96.599641 
1436.000000	96.599708 
1435.000000	96.597821 
1434.000000	96.591249 
1433.000000	96.586160 
1432.000000	96.588302 
1431.000000	96.596000 
1430.000000	96.601783 
1429.000000	96.602956 
1428.000000	96.602434 
1427.000000	96.603177 
1426.000000	96.605669 
1425.000000	96.608594 
1424.000000	96.612999 
1423.000000	96.616773 
1422.000000	96.616802 
1421.000000	96.616986 
1420.000000	96.624985 
1419.000000	96.635103 
1418.000000	96.631416 
1417.000000	96.617270 
1416.000000	96.609103 
1415.000000	96.611798 
1414.000000	96.616126 
1413.000000	96.614906 
1412.000000	96.612396 
1411.000000	96.614484 
1410.000000	96.618900 
1409.000000	96.623447 
1408.000000	96.631044 
1407.000000	96.644495 
1406.000000	96.662205 
1405.000000	96.681740 
1404.000000	96.705337 
1403.000000	96.731754 
1402.000000	96.756027 
1401.000000	96.779699 
1400.000000	96.809253 
1399.000000	96.843421 
1398.000000	96.869020 
1397.000000	96.876692 
1396.000000	96.871683 
1395.000000	96.869663 
1394.000000	96.883059 
1393.000000	96.913626 
1392.000000	96.957188 
1391.000000	97.005445 
1390.000000	97.048745 
1389.000000	97.081360 
1388.000000	97.102979 
1387.000000	97.116347 
1386.000000	97.125679 
1385.000000	97.136517 
1384.000000	97.154128 
1383.000000	97.178484 
1382.000000	97.204386 
1381.000000	97.228323 
1380.000000	97.250944 
1379.000000	97.274741 
1378.000000	97.300978 
1377.000000	97.329602 
1376.000000	97.359829 
1375.000000	97.389671 
1374.000000	97.416234 
1373.000000	97.439671 
1372.000000	97.463500 
1371.000000	97.490558 
1370.000000	97.520085 
1369.000000	97.547582 
1368.000000	97.571459 
1367.000000	97.593979 
1366.000000	97.617832 
1365.000000	97.644378 
1364.000000	97.671820 
1363.000000	97.694896 
1362.000000	97.710633 
1361.000000	97.722705 
1360.000000	97.737206 
1359.000000	97.756948 
1358.000000	97.779993 
1357.000000	97.802245 
1356.000000	97.821307 
1355.000000	97.837160 
1354.000000	97.851200 
1353.000000	97.866278 
1352.000000	97.883427 
1351.000000	97.901657 
1350.000000	97.919940 
1349.000000	97.935420 
1348.000000	97.946652 
1347.000000	97.955013 
1346.000000	97.963793 
1345.000000	97.974845 
1344.000000	97.987811 
1343.000000	98.001900 
1342.000000	98.017277 
1341.000000	98.033084 
1340.000000	98.046095 
1339.000000	98.053573 
1338.000000	98.056098 
1337.000000	98.056706 
1336.000000	98.057967 
1335.000000	98.060381 
1334.000000	98.063866 
1333.000000	98.069172 
1332.000000	98.076388 
1331.000000	98.083925 
1330.000000	98.089903 
1329.000000	98.093952 
1328.000000	98.097040 
1327.000000	98.100456 
1326.000000	98.104567 
1325.000000	98.107873 
1324.000000	98.109679 
1323.000000	98.110480 
1322.000000	98.110906 
1321.000000	98.111645 
1320.000000	98.113911 
1319.000000	98.118072 
1318.000000	98.122738 
1317.000000	98.126663 
1316.000000	98.130024 
1315.000000	98.132781 
1314.000000	98.133591 
1313.000000	98.132493 
1312.000000	98.132257 
1311.000000	98.135004 
1310.000000	98.139192 
1309.000000	98.142409 
1308.000000	98.144864 
1307.000000	98.148299 
1306.000000	98.152740 
1305.000000	98.156190 
1304.000000	98.158201 
1303.000000	98.159348 
1302.000000	98.158898 
1301.000000	98.155731 
1300.000000	98.151522 
1299.000000	98.149705 
1298.000000	98.151267 
1297.000000	98.153787 
1296.000000	98.154721 
1295.000000	98.154048 
1294.000000	98.153084 
1293.000000	98.152943 
1292.000000	98.154256 
1291.000000	98.156673 
1290.000000	98.158730 
1289.000000	98.159265 
1288.000000	98.158535 
1287.000000	98.157122 
1286.000000	98.154692 
1285.000000	98.151486 
1284.000000	98.149901 
1283.000000	98.151900 
1282.000000	98.155583 
1281.000000	98.156807 
1280.000000	98.154321 
1279.000000	98.151264 
1278.000000	98.150972 
1277.000000	98.153487 
1276.000000	98.156471 
1275.000000	98.158002 
1274.000000	98.157345 
1273.000000	98.154561 
1272.000000	98.150413 
1271.000000	98.145811 
1270.000000	98.140595 
1269.000000	98.133589 
1268.000000	98.124441 
1267.000000	98.114238 
1266.000000	98.103893 
1265.000000	98.093856 
1264.000000	98.085466 
1263.000000	98.080482 
1262.000000	98.078660 
1261.000000	98.077600 
1260.000000	98.076240 
1259.000000	98.076685 
1258.000000	98.080346 
1257.000000	98.084304 
1256.000000	98.083734 
1255.000000	98.077700 
1254.000000	98.070506 
1253.000000	98.066582 
1252.000000	98.065399 
1251.000000	98.063119 
1250.000000	98.058626 
1249.000000	98.055989 
1248.000000	98.060115 
1247.000000	98.070619 
1246.000000	98.080877 
1245.000000	98.083562 
1244.000000	98.076536 
1243.000000	98.064387 
1242.000000	98.055803 
1241.000000	98.058143 
1240.000000	98.071360 
1239.000000	98.086371 
1238.000000	98.091964 
1237.000000	98.084544 
1236.000000	98.069595 
1235.000000	98.053923 
1234.000000	98.039342 
1233.000000	98.024712 
1232.000000	98.010263 
1231.000000	97.996935 
1230.000000	97.984132 
1229.000000	97.971364 
1228.000000	97.960039 
1227.000000	97.950611 
1226.000000	97.939729 
1225.000000	97.923405 
1224.000000	97.901970 
1223.000000	97.879016 
1222.000000	97.856236 
1221.000000	97.831976 
1220.000000	97.804531 
1219.000000	97.774278 
1218.000000	97.742474 
1217.000000	97.709839 
1216.000000	97.675933 
1215.000000	97.638634 
1214.000000	97.595576 
1213.000000	97.548044 
1212.000000	97.501539 
1211.000000	97.459354 
1210.000000	97.417351 
1209.000000	97.368852 
1208.000000	97.313634 
1207.000000	97.258255 
1206.000000	97.207729 
1205.000000	97.160259 
1204.000000	97.110699 
1203.000000	97.056220 
1202.000000	96.997952 
1201.000000	96.939338 
1200.000000	96.883445 
1199.000000	96.830480 
1198.000000	96.777853 
1197.000000	96.723826 
1196.000000	96.669767 
1195.000000	96.617220 
1194.000000	96.564677 
1193.000000	96.509563 
1192.000000	96.452078 
1191.000000	96.394265 
1190.000000	96.336374 
1189.000000	96.276834 
1188.000000	96.214927 
1187.000000	96.150965 
1186.000000	96.084975 
1185.000000	96.017566 
1184.000000	95.950520 
1183.000000	95.884100 
1182.000000	95.815694 
1181.000000	95.743734 
1180.000000	95.670451 
1179.000000	95.597533 
1178.000000	95.521763 
1177.000000	95.439276 
1176.000000	95.351684 
1175.000000	95.263197 
1174.000000	95.173944 
1173.000000	95.081666 
1172.000000	94.988346 
1171.000000	94.898566 
1170.000000	94.811980 
1169.000000	94.724228 
1168.000000	94.635657 
1167.000000	94.552893 
1166.000000	94.481504 
1165.000000	94.423871 
1164.000000	94.385012 
1163.000000	94.372800 
1162.000000	94.389228 
1161.000000	94.425792 
1160.000000	94.468814 
1159.000000	94.505263 
1158.000000	94.523661 
1157.000000	94.516019 
1156.000000	94.481677 
1155.000000	94.426062 
1154.000000	94.355002 
1153.000000	94.273434 
1152.000000	94.188573 
1151.000000	94.107951 
1150.000000	94.032822 
1149.000000	93.958936 
1148.000000	93.884971 
1147.000000	93.814370 
1146.000000	93.747502 
1145.000000	93.678505 
1144.000000	93.602870 
1143.000000	93.522962 
1142.000000	93.443156 
1141.000000	93.364096 
1140.000000	93.284547 
1139.000000	93.204754 
1138.000000	93.125288 
1137.000000	93.045866 
1136.000000	92.966924 
1135.000000	92.889036 
1134.000000	92.810158 
1133.000000	92.727359 
1132.000000	92.641523 
1131.000000	92.555857 
1130.000000	92.469912 
1129.000000	92.380456 
1128.000000	92.288259 
1127.000000	92.197867 
1126.000000	92.109945 
1125.000000	92.019971 
1124.000000	91.925578 
1123.000000	91.829296 
1122.000000	91.733161 
1121.000000	91.636773 
1120.000000	91.541541 
1119.000000	91.450017 
1118.000000	91.359859 
1117.000000	91.265554 
1116.000000	91.167585 
1115.000000	91.073027 
1114.000000	90.985551 
1113.000000	90.901841 
1112.000000	90.819232 
1111.000000	90.739203 
1110.000000	90.661732 
1109.000000	90.583802 
1108.000000	90.504951 
1107.000000	90.427351 
1106.000000	90.350026 
1105.000000	90.269695 
1104.000000	90.187561 
1103.000000	90.108367 
1102.000000	90.032033 
1101.000000	89.954662 
1100.000000	89.877163 
1099.000000	89.803789 
1098.000000	89.735057 
1097.000000	89.667578 
1096.000000	89.601587 
1095.000000	89.538515 
1094.000000	89.472145 
1093.000000	89.392910 
1092.000000	89.302357 
1091.000000	89.213530 
1090.000000	89.135391 
1089.000000	89.065604 
1088.000000	88.999079 
1087.000000	88.933388 
1086.000000	88.864864 
1085.000000	88.790139 
1084.000000	88.713577 
1083.000000	88.643534 
1082.000000	88.579873 
1081.000000	88.515047 
1080.000000	88.448269 
1079.000000	88.387415 
1078.000000	88.335238 
1077.000000	88.285008 
1076.000000	88.232039 
1075.000000	88.178397 
1074.000000	88.123985 
1073.000000	88.063728 
1072.000000	87.994593 
1071.000000	87.913239 
1070.000000	87.805954 
1069.000000	87.656654 
1068.000000	87.470691 
1067.000000	87.279299 
1066.000000	87.113022 
1065.000000	86.978255 
1064.000000	86.863157 
1063.000000	86.752365 
1062.000000	86.629192 
1061.000000	86.477872 
1060.000000	86.296642 
1059.000000	86.103594 
1058.000000	85.921591 
1057.000000	85.760352 
1056.000000	85.615859 
1055.000000	85.478939 
1054.000000	85.339868 
1053.000000	85.192803 
1052.000000	85.041447 
1051.000000	84.894573 
1050.000000	84.753128 
1049.000000	84.609239 
1048.000000	84.458943 
1047.000000	84.306015 
1046.000000	84.152975 
1045.000000	83.998904 
1044.000000	83.846094 
1043.000000	83.698314 
1042.000000	83.552276 
1041.000000	83.401006 
1040.000000	83.246266 
1039.000000	83.098186 
1038.000000	82.963285 
1037.000000	82.842641 
1036.000000	82.739515 
1035.000000	82.656803 
1034.000000	82.588404 
1033.000000	82.524596 
1032.000000	82.463033 
1031.000000	82.402830 
1030.000000	82.334776 
1029.000000	82.254831 
1028.000000	82.182382 
1027.000000	82.144266 
1026.000000	82.140976 
1025.000000	82.146595 
1024.000000	82.142087 
1023.000000	82.129865 
1022.000000	82.115188 
1021.000000	82.095004 
1020.000000	82.069592 
1019.000000	82.046564 
1018.000000	82.027841 
1017.000000	82.007727 
1016.000000	81.987030 
1015.000000	81.973809 
1014.000000	81.967924 
1013.000000	81.960674 
1012.000000	81.951741 
1011.000000	81.950426 
1010.000000	81.958315 
1009.000000	81.967179 
1008.000000	81.976124 
1007.000000	81.994315 
1006.000000	82.024481 
1005.000000	82.060056 
1004.000000	82.100513 
1003.000000	82.152469 
1002.000000	82.213162 
1001.000000	82.270333 
1000.000000	82.322332 
999.000000	 82.381735 
998.000000	 82.454811 
997.000000	 82.533076 
996.000000	 82.609065 
995.000000	 82.685627 
994.000000	 82.765855 
993.000000	 82.848242 
992.000000	 82.934900 
991.000000	 83.030327 
990.000000	 83.129577 
989.000000	 83.222255 
988.000000	 83.310541 
987.000000	 83.408248 
986.000000	 83.520059 
985.000000	 83.637524 
984.000000	 83.757721 
983.000000	 83.889048 
982.000000	 84.034536 
981.000000	 84.185174 
980.000000	 84.334561 
979.000000	 84.486271 
978.000000	 84.642285 
977.000000	 84.798350 
976.000000	 84.955308 
975.000000	 85.121336 
974.000000	 85.298111 
973.000000	 85.477156 
972.000000	 85.653932 
971.000000	 85.833288 
970.000000	 86.017141 
969.000000	 86.199008 
968.000000	 86.375021 
967.000000	 86.549206 
966.000000	 86.724230 
965.000000	 86.897625 
964.000000	 87.070152 
963.000000	 87.246807 
962.000000	 87.426185 
961.000000	 87.599377 
960.000000	 87.762537 
959.000000	 87.920613 
958.000000	 88.076281 
957.000000	 88.225370 
956.000000	 88.366140 
955.000000	 88.503370 
954.000000	 88.640291 
953.000000	 88.775126 
952.000000	 88.907459 
951.000000	 89.038906 
950.000000	 89.166071 
949.000000	 89.282358 
948.000000	 89.388106 
947.000000	 89.489783 
946.000000	 89.588264 
945.000000	 89.677874 
944.000000	 89.758382 
943.000000	 89.837581 
942.000000	 89.919663 
941.000000	 90.000721 
940.000000	 90.078405 
939.000000	 90.156457 
938.000000	 90.237003 
937.000000	 90.317330 
936.000000	 90.397031 
935.000000	 90.479773 
934.000000	 90.565363 
933.000000	 90.648404 
932.000000	 90.727327 
931.000000	 90.807123 
930.000000	 90.890887 
929.000000	 90.975629 
928.000000	 91.058204 
927.000000	 91.138532 
926.000000	 91.215676 
925.000000	 91.287062 
924.000000	 91.352173 
923.000000	 91.411534 
922.000000	 91.463340 
921.000000	 91.507792 
920.000000	 91.552515 
919.000000	 91.605071 
918.000000	 91.661198 
917.000000	 91.709269 
916.000000	 91.746397 
915.000000	 91.782228 
914.000000	 91.827230 
913.000000	 91.885124 
912.000000	 91.956066 
911.000000	 92.038690 
910.000000	 92.129079 
909.000000	 92.225584 
908.000000	 92.333653 
907.000000	 92.458382 
906.000000	 92.594731 
905.000000	 92.733304 
904.000000	 92.872509 
903.000000	 93.015702 
902.000000	 93.160194 
901.000000	 93.300071 
900.000000	 93.437202 
899.000000	 93.578531 
898.000000	 93.724294 
897.000000	 93.868393 
896.000000	 94.007639 
895.000000	 94.140406 
894.000000	 94.260298 
893.000000	 94.363378 
892.000000	 94.459079 
891.000000	 94.561223 
890.000000	 94.668263 
889.000000	 94.762828 
888.000000	 94.829385 
887.000000	 94.862749 
886.000000	 94.863958 
885.000000	 94.840725 
884.000000	 94.808971 
883.000000	 94.779436 
882.000000	 94.744212 
881.000000	 94.691903 
880.000000	 94.634806 
879.000000	 94.602646 
878.000000	 94.607547 
877.000000	 94.634349 
876.000000	 94.669306 
875.000000	 94.719155 
874.000000	 94.795726 
873.000000	 94.901166 
872.000000	 95.036605 
871.000000	 95.207158 
870.000000	 95.407348 
869.000000	 95.614683 
868.000000	 95.807428 
867.000000	 95.979907 
866.000000	 96.135626 
865.000000	 96.276914 
864.000000	 96.407870 
863.000000	 96.537291 
862.000000	 96.670214 
861.000000	 96.802181 
860.000000	 96.926739 
859.000000	 97.042402 
858.000000	 97.148949 
857.000000	 97.244339 
856.000000	 97.329476 
855.000000	 97.409313 
854.000000	 97.485128 
853.000000	 97.551558 
852.000000	 97.604753 
851.000000	 97.648235 
850.000000	 97.688778 
849.000000	 97.732091 
848.000000	 97.783009 
847.000000	 97.842060 
846.000000	 97.900324 
845.000000	 97.945866 
844.000000	 97.977127 
843.000000	 98.002665 
842.000000	 98.027157 
841.000000	 98.046335 
840.000000	 98.056522 
839.000000	 98.059091 
838.000000	 98.053747 
837.000000	 98.038093 
836.000000	 98.017283 
835.000000	 98.004033 
834.000000	 98.003885 
833.000000	 98.008692 
832.000000	 98.009219 
831.000000	 98.005938 
830.000000	 98.003288 
829.000000	 98.002405 
828.000000	 98.005676 
827.000000	 98.020206 
826.000000	 98.049206 
825.000000	 98.086033 
824.000000	 98.122192 
823.000000	 98.154138 
822.000000	 98.178669 
821.000000	 98.191201 
820.000000	 98.192726 
819.000000	 98.189379 
818.000000	 98.181103 
817.000000	 98.158218 
816.000000	 98.112679 
815.000000	 98.046197 
814.000000	 97.963626 
813.000000	 97.863612 
812.000000	 97.738805 
811.000000	 97.579790 
810.000000	 97.375931 
809.000000	 97.118383 
808.000000	 96.806916 
807.000000	 96.451190 
806.000000	 96.064499 
805.000000	 95.660947 
804.000000	 95.258634 
803.000000	 94.876823 
802.000000	 94.527100 
801.000000	 94.215871 
800.000000	 93.957001 
799.000000	 93.770319 
798.000000	 93.663589 
797.000000	 93.626139 
796.000000	 93.642278 
795.000000	 93.699250 
794.000000	 93.780918 
793.000000	 93.868508 
792.000000	 93.952291 
791.000000	 94.031449 
790.000000	 94.100227 
789.000000	 94.145525 
788.000000	 94.159451 
787.000000	 94.142196 
786.000000	 94.091397 
785.000000	 94.001279 
784.000000	 93.874966 
783.000000	 93.726282 
782.000000	 93.568149 
781.000000	 93.412189 
780.000000	 93.280174 
779.000000	 93.198705 
778.000000	 93.177348 
777.000000	 93.206097 
776.000000	 93.277238 
775.000000	 93.392711 
774.000000	 93.544990 
773.000000	 93.709228 
772.000000	 93.864069 
771.000000	 94.007354 
770.000000	 94.144568 
769.000000	 94.274976 
768.000000	 94.395412 
767.000000	 94.504481 
766.000000	 94.596337 
765.000000	 94.663425 
764.000000	 94.712703 
763.000000	 94.766420 
762.000000	 94.838292 
761.000000	 94.919507 
760.000000	 94.995437 
759.000000	 95.064644 
758.000000	 95.133665 
757.000000	 95.205174 
756.000000	 95.281522 
755.000000	 95.369777 
754.000000	 95.471184 
753.000000	 95.571291 
752.000000	 95.650489 
751.000000	 95.702158 
750.000000	 95.737071 
749.000000	 95.774607 
748.000000	 95.831299 
747.000000	 95.909978 
746.000000	 95.996214 
745.000000	 96.072411 
744.000000	 96.137912 
743.000000	 96.207586 
742.000000	 96.289819 
741.000000	 96.376855 
740.000000	 96.459621 
739.000000	 96.540097 
738.000000	 96.623292 
737.000000	 96.706305 
736.000000	 96.781817 
735.000000	 96.845982 
734.000000	 96.898875 
733.000000	 96.943517 
732.000000	 96.986361 
731.000000	 97.030854 
730.000000	 97.069430 
729.000000	 97.091323 
728.000000	 97.098999 
727.000000	 97.108147 
726.000000	 97.131588 
725.000000	 97.170937 
724.000000	 97.222423 
723.000000	 97.279873 
722.000000	 97.331836 
721.000000	 97.367800 
720.000000	 97.389704 
719.000000	 97.406626 
718.000000	 97.417248 
717.000000	 97.411294 
716.000000	 97.389763 
715.000000	 97.369400 
714.000000	 97.364393 
713.000000	 97.377154 
712.000000	 97.409439 
711.000000	 97.465729 
710.000000	 97.539248 
709.000000	 97.610565 
708.000000	 97.666431 
707.000000	 97.707785 
706.000000	 97.735409 
705.000000	 97.740738 
704.000000	 97.717438 
703.000000	 97.670458 
702.000000	 97.603837 
701.000000	 97.509872 
700.000000	 97.379503 
699.000000	 97.213896 
698.000000	 97.022446 
697.000000	 96.821119 
696.000000	 96.638917 
695.000000	 96.514467 
694.000000	 96.472886 
693.000000	 96.510869 
692.000000	 96.607403 
691.000000	 96.737681 
690.000000	 96.876445 
689.000000	 97.001633 
688.000000	 97.104271 
687.000000	 97.188894 
686.000000	 97.258192 
685.000000	 97.308987 
684.000000	 97.346218 
683.000000	 97.383605 
682.000000	 97.426379 
681.000000	 97.467697 
680.000000	 97.505768 
679.000000	 97.548901 
678.000000	 97.599039 
677.000000	 97.649398 
676.000000	 97.699443 
675.000000	 97.756221 
674.000000	 97.814076 
673.000000	 97.849116 
672.000000	 97.843117 
671.000000	 97.797683 
670.000000	 97.726947 
669.000000	 97.656809 
668.000000	 97.652826 
667.000000	 97.765672 
666.000000	 97.912665 
665.000000	 98.002856 
664.000000	 98.039537 
663.000000	 98.053105 
662.000000	 98.067946 
661.000000	 98.088820 
660.000000	 98.114656 
659.000000	 98.150860 
658.000000	 98.196289 
657.000000	 98.233468 
656.000000	 98.243413 
655.000000	 98.223943 
654.000000	 98.185921 
653.000000	 98.140121 
652.000000	 98.099748 
651.000000	 98.086820 
650.000000	 98.112722 

