4000.000000	97.127707 
3999.000000	97.123812 
3998.000000	97.118562 
3997.000000	97.114040 
3996.000000	97.111335 
3995.000000	97.110321 
3994.000000	97.110456 
3993.000000	97.111146 
3992.000000	97.111707 
3991.000000	97.111719 
3990.000000	97.111454 
3989.000000	97.111500 
3988.000000	97.111922 
3987.000000	97.112297 
3986.000000	97.112609 
3985.000000	97.113440 
3984.000000	97.114953 
3983.000000	97.116403 
3982.000000	97.117051 
3981.000000	97.117000 
3980.000000	97.116620 
3979.000000	97.115603 
3978.000000	97.113548 
3977.000000	97.111232 
3976.000000	97.110125 
3975.000000	97.110540 
3974.000000	97.111127 
3973.000000	97.110525 
3972.000000	97.108726 
3971.000000	97.106615 
3970.000000	97.105154 
3969.000000	97.104969 
3968.000000	97.106150 
3967.000000	97.107994 
3966.000000	97.109326 
3965.000000	97.109286 
3964.000000	97.107681 
3963.000000	97.104922 
3962.000000	97.101896 
3961.000000	97.099826 
3960.000000	97.099277 
3959.000000	97.099483 
3958.000000	97.099567 
3957.000000	97.099520 
3956.000000	97.099621 
3955.000000	97.099231 
3954.000000	97.097230 
3953.000000	97.093403 
3952.000000	97.088739 
3951.000000	97.084774 
3950.000000	97.082455 
3949.000000	97.081606 
3948.000000	97.081339 
3947.000000	97.081135 
3946.000000	97.081069 
3945.000000	97.081105 
3944.000000	97.081027 
3943.000000	97.081192 
3942.000000	97.082553 
3941.000000	97.085636 
3940.000000	97.089207 
3939.000000	97.090623 
3938.000000	97.088965 
3937.000000	97.085908 
3936.000000	97.083456 
3935.000000	97.081464 
3934.000000	97.078841 
3933.000000	97.076331 
3932.000000	97.075515 
3931.000000	97.076112 
3930.000000	97.076161 
3929.000000	97.075013 
3928.000000	97.074497 
3927.000000	97.075633 
3926.000000	97.076651 
3925.000000	97.075842 
3924.000000	97.074289 
3923.000000	97.073564 
3922.000000	97.072652 
3921.000000	97.070319 
3920.000000	97.068292 
3919.000000	97.068926 
3918.000000	97.071559 
3917.000000	97.073632 
3916.000000	97.074391 
3915.000000	97.074945 
3914.000000	97.075500 
3913.000000	97.075113 
3912.000000	97.073883 
3911.000000	97.072334 
3910.000000	97.070830 
3909.000000	97.069202 
3908.000000	97.067547 
3907.000000	97.066172 
3906.000000	97.065189 
3905.000000	97.064537 
3904.000000	97.064165 
3903.000000	97.063995 
3902.000000	97.063810 
3901.000000	97.063519 
3900.000000	97.063243 
3899.000000	97.062981 
3898.000000	97.062720 
3897.000000	97.062456 
3896.000000	97.062191 
3895.000000	97.061906 
3894.000000	97.061579 
3893.000000	97.061210 
3892.000000	97.060812 
3891.000000	97.060397 
3890.000000	97.059990 
3889.000000	97.059617 
3888.000000	97.059279 
3887.000000	97.058964 
3886.000000	97.058669 
3885.000000	97.058407 
3884.000000	97.058194 
3883.000000	97.058020 
3882.000000	97.057862 
3881.000000	97.057715 
3880.000000	97.057595 
3879.000000	97.057519 
3878.000000	97.057479 
3877.000000	97.057445 
3876.000000	97.057394 
3875.000000	97.057334 
3874.000000	97.057292 
3873.000000	97.057293 
3872.000000	97.057336 
3871.000000	97.057406 
3870.000000	97.057506 
3869.000000	97.057673 
3868.000000	97.057933 
3867.000000	97.058265 
3866.000000	97.058626 
3865.000000	97.059013 
3864.000000	97.059441 
3863.000000	97.059896 
3862.000000	97.060334 
3861.000000	97.060733 
3860.000000	97.061103 
3859.000000	97.061462 
3858.000000	97.061816 
3857.000000	97.062178 
3856.000000	97.062583 
3855.000000	97.063067 
3854.000000	97.063627 
3853.000000	97.064244 
3852.000000	97.064957 
3851.000000	97.065822 
3850.000000	97.066828 
3849.000000	97.067915 
3848.000000	97.069034 
3847.000000	97.070154 
3846.000000	97.071263 
3845.000000	97.072360 
3844.000000	97.073443 
3843.000000	97.074506 
3842.000000	97.075553 
3841.000000	97.076597 
3840.000000	97.077657 
3839.000000	97.078731 
3838.000000	97.079804 
3837.000000	97.080863 
3836.000000	97.081921 
3835.000000	97.082998 
3834.000000	97.084103 
3833.000000	97.085231 
3832.000000	97.086374 
3831.000000	97.087532 
3830.000000	97.088704 
3829.000000	97.089889 
3828.000000	97.091077 
3827.000000	97.092251 
3826.000000	97.093396 
3825.000000	97.094517 
3824.000000	97.095633 
3823.000000	97.096745 
3822.000000	97.097834 
3821.000000	97.098896 
3820.000000	97.099971 
3819.000000	97.101103 
3818.000000	97.102275 
3817.000000	97.103436 
3816.000000	97.104566 
3815.000000	97.105691 
3814.000000	97.106825 
3813.000000	97.107942 
3812.000000	97.109004 
3811.000000	97.110014 
3810.000000	97.110990 
3809.000000	97.111909 
3808.000000	97.112728 
3807.000000	97.113439 
3806.000000	97.114091 
3805.000000	97.114746 
3804.000000	97.115422 
3803.000000	97.116098 
3802.000000	97.116761 
3801.000000	97.117427 
3800.000000	97.118121 
3799.000000	97.118836 
3798.000000	97.119525 
3797.000000	97.120160 
3796.000000	97.120751 
3795.000000	97.121313 
3794.000000	97.121846 
3793.000000	97.122332 
3792.000000	97.122754 
3791.000000	97.123098 
3790.000000	97.123355 
3789.000000	97.123524 
3788.000000	97.123612 
3787.000000	97.123627 
3786.000000	97.123568 
3785.000000	97.123440 
3784.000000	97.123271 
3783.000000	97.123082 
3782.000000	97.122862 
3781.000000	97.122583 
3780.000000	97.122240 
3779.000000	97.121844 
3778.000000	97.121395 
3777.000000	97.120874 
3776.000000	97.120270 
3775.000000	97.119602 
3774.000000	97.118897 
3773.000000	97.118160 
3772.000000	97.117375 
3771.000000	97.116535 
3770.000000	97.115653 
3769.000000	97.114748 
3768.000000	97.113825 
3767.000000	97.112879 
3766.000000	97.111914 
3765.000000	97.110952 
3764.000000	97.110007 
3763.000000	97.109062 
3762.000000	97.108078 
3761.000000	97.107036 
3760.000000	97.105950 
3759.000000	97.104826 
3758.000000	97.103655 
3757.000000	97.102428 
3756.000000	97.101169 
3755.000000	97.099916 
3754.000000	97.098699 
3753.000000	97.097528 
3752.000000	97.096399 
3751.000000	97.095285 
3750.000000	97.094156 
3749.000000	97.092952 
3748.000000	97.091556 
3747.000000	97.090287 
3746.000000	97.089370 
3745.000000	97.088301 
3744.000000	97.086192 
3743.000000	97.084380 
3742.000000	97.085137 
3741.000000	97.085652 
3740.000000	97.082539 
3739.000000	97.077886 
3738.000000	97.075352 
3737.000000	97.074266 
3736.000000	97.071879 
3735.000000	97.069969 
3734.000000	97.071419 
3733.000000	97.072635 
3732.000000	97.068759 
3731.000000	97.063440 
3730.000000	97.063612 
3729.000000	97.067494 
3728.000000	97.067508 
3727.000000	97.062761 
3726.000000	97.060005 
3725.000000	97.063470 
3724.000000	97.067789 
3723.000000	97.066543 
3722.000000	97.061080 
3721.000000	97.056064 
3720.000000	97.053101 
3719.000000	97.049033 
3718.000000	97.041469 
3717.000000	97.033267 
3716.000000	97.028827 
3715.000000	97.027601 
3714.000000	97.026643 
3713.000000	97.027722 
3712.000000	97.031360 
3711.000000	97.029871 
3710.000000	97.018637 
3709.000000	97.001328 
3708.000000	96.982465 
3707.000000	96.964368 
3706.000000	96.948418 
3705.000000	96.934302 
3704.000000	96.919598 
3703.000000	96.901802 
3702.000000	96.879164 
3701.000000	96.852951 
3700.000000	96.830307 
3699.000000	96.815680 
3698.000000	96.803840 
3697.000000	96.790058 
3696.000000	96.777497 
3695.000000	96.769768 
3694.000000	96.762735 
3693.000000	96.750824 
3692.000000	96.736519 
3691.000000	96.725875 
3690.000000	96.717925 
3689.000000	96.705112 
3688.000000	96.689117 
3687.000000	96.683070 
3686.000000	96.689049 
3685.000000	96.693016 
3684.000000	96.687147 
3683.000000	96.677129 
3682.000000	96.668100 
3681.000000	96.655441 
3680.000000	96.633859 
3679.000000	96.609833 
3678.000000	96.592335 
3677.000000	96.579833 
3676.000000	96.561096 
3675.000000	96.532389 
3674.000000	96.510982 
3673.000000	96.504634 
3672.000000	96.495932 
3671.000000	96.476283 
3670.000000	96.453547 
3669.000000	96.435025 
3668.000000	96.422874 
3667.000000	96.412646 
3666.000000	96.399398 
3665.000000	96.384540 
3664.000000	96.371384 
3663.000000	96.358784 
3662.000000	96.342438 
3661.000000	96.320452 
3660.000000	96.295985 
3659.000000	96.274091 
3658.000000	96.255148 
3657.000000	96.233774 
3656.000000	96.204852 
3655.000000	96.175569 
3654.000000	96.153405 
3653.000000	96.128712 
3652.000000	96.093599 
3651.000000	96.062417 
3650.000000	96.049572 
3649.000000	96.043181 
3648.000000	96.026647 
3647.000000	96.007236 
3646.000000	96.001187 
3645.000000	96.008941 
3644.000000	96.018238 
3643.000000	96.019671 
3642.000000	96.014543 
3641.000000	96.007472 
3640.000000	95.997695 
3639.000000	95.980476 
3638.000000	95.956535 
3637.000000	95.933962 
3636.000000	95.914686 
3635.000000	95.889585 
3634.000000	95.852236 
3633.000000	95.810382 
3632.000000	95.774632 
3631.000000	95.747299 
3630.000000	95.730412 
3629.000000	95.718076 
3628.000000	95.704456 
3627.000000	95.704345 
3626.000000	95.713242 
3625.000000	95.705222 
3624.000000	95.677968 
3623.000000	95.646498 
3622.000000	95.618158 
3621.000000	95.593043 
3620.000000	95.576181 
3619.000000	95.573696 
3618.000000	95.586528 
3617.000000	95.612804 
3616.000000	95.645046 
3615.000000	95.674276 
3614.000000	95.698801 
3613.000000	95.722373 
3612.000000	95.747724 
3611.000000	95.772762 
3610.000000	95.792879 
3609.000000	95.807903 
3608.000000	95.822188 
3607.000000	95.838266 
3606.000000	95.854117 
3605.000000	95.866378 
3604.000000	95.876610 
3603.000000	95.890207 
3602.000000	95.906860 
3601.000000	95.918975 
3600.000000	95.921879 
3599.000000	95.918507 
3598.000000	95.914261 
3597.000000	95.915513 
3596.000000	95.926034 
3595.000000	95.943076 
3594.000000	95.958171 
3593.000000	95.964606 
3592.000000	95.960593 
3591.000000	95.947404 
3590.000000	95.929845 
3589.000000	95.917793 
3588.000000	95.919394 
3587.000000	95.933127 
3586.000000	95.952508 
3585.000000	95.971079 
3584.000000	95.983638 
3583.000000	95.990286 
3582.000000	95.995366 
3581.000000	96.001517 
3580.000000	96.007314 
3579.000000	96.010524 
3578.000000	96.010326 
3577.000000	96.007892 
3576.000000	96.005039 
3575.000000	96.002357 
3574.000000	95.998902 
3573.000000	95.992842 
3572.000000	95.982961 
3571.000000	95.969620 
3570.000000	95.955272 
3569.000000	95.944578 
3568.000000	95.942674 
3567.000000	95.950385 
3566.000000	95.963219 
3565.000000	95.975360 
3564.000000	95.982039 
3563.000000	95.982183 
3562.000000	95.979448 
3561.000000	95.978334 
3560.000000	95.979877 
3559.000000	95.981727 
3558.000000	95.981267 
3557.000000	95.977981 
3556.000000	95.973790 
3555.000000	95.971047 
3554.000000	95.970523 
3553.000000	95.971074 
3552.000000	95.971005 
3551.000000	95.969390 
3550.000000	95.966016 
3549.000000	95.961455 
3548.000000	95.958017 
3547.000000	95.958377 
3546.000000	95.962368 
3545.000000	95.967095 
3544.000000	95.970473 
3543.000000	95.972697 
3542.000000	95.974396 
3541.000000	95.975275 
3540.000000	95.975034 
3539.000000	95.974127 
3538.000000	95.973421 
3537.000000	95.973517 
3536.000000	95.974360 
3535.000000	95.975320 
3534.000000	95.975481 
3533.000000	95.974484 
3532.000000	95.973056 
3531.000000	95.972496 
3530.000000	95.973115 
3529.000000	95.973611 
3528.000000	95.972458 
3527.000000	95.969703 
3526.000000	95.966926 
3525.000000	95.965771 
3524.000000	95.966983 
3523.000000	95.970328 
3522.000000	95.974782 
3521.000000	95.978831 
3520.000000	95.981493 
3519.000000	95.982936 
3518.000000	95.983816 
3517.000000	95.984221 
3516.000000	95.983498 
3515.000000	95.981409 
3514.000000	95.979046 
3513.000000	95.978017 
3512.000000	95.978677 
3511.000000	95.979891 
3510.000000	95.980322 
3509.000000	95.979673 
3508.000000	95.978561 
3507.000000	95.977466 
3506.000000	95.976163 
3505.000000	95.974489 
3504.000000	95.972960 
3503.000000	95.972090 
3502.000000	95.971657 
3501.000000	95.971112 
3500.000000	95.970446 
3499.000000	95.970225 
3498.000000	95.970866 
3497.000000	95.972096 
3496.000000	95.973152 
3495.000000	95.973352 
3494.000000	95.972588 
3493.000000	95.971378 
3492.000000	95.970307 
3491.000000	95.969524 
3490.000000	95.968868 
3489.000000	95.968272 
3488.000000	95.967739 
3487.000000	95.966911 
3486.000000	95.965204 
3485.000000	95.962759 
3484.000000	95.960797 
3483.000000	95.960368 
3482.000000	95.960922 
3481.000000	95.961030 
3480.000000	95.960282 
3479.000000	95.959398 
3478.000000	95.958587 
3477.000000	95.956964 
3476.000000	95.953921 
3475.000000	95.950099 
3474.000000	95.946736 
3473.000000	95.944408 
3472.000000	95.942533 
3471.000000	95.940017 
3470.000000	95.936341 
3469.000000	95.932028 
3468.000000	95.928212 
3467.000000	95.925865 
3466.000000	95.925260 
3465.000000	95.925709 
3464.000000	95.925779 
3463.000000	95.924182 
3462.000000	95.920690 
3461.000000	95.916245 
3460.000000	95.912078 
3459.000000	95.908537 
3458.000000	95.904983 
3457.000000	95.900682 
3456.000000	95.895695 
3455.000000	95.891044 
3454.000000	95.887718 
3453.000000	95.885745 
3452.000000	95.884319 
3451.000000	95.882636 
3450.000000	95.880216 
3449.000000	95.876786 
3448.000000	95.872436 
3447.000000	95.867783 
3446.000000	95.863523 
3445.000000	95.859778 
3444.000000	95.856212 
3443.000000	95.852812 
3442.000000	95.849967 
3441.000000	95.847602 
3440.000000	95.844880 
3439.000000	95.840951 
3438.000000	95.835790 
3437.000000	95.830107 
3436.000000	95.824860 
3435.000000	95.821133 
3434.000000	95.819667 
3433.000000	95.820119 
3432.000000	95.821000 
3431.000000	95.820907 
3430.000000	95.819572 
3429.000000	95.817416 
3428.000000	95.814471 
3427.000000	95.810235 
3426.000000	95.804846 
3425.000000	95.799866 
3424.000000	95.797102 
3423.000000	95.796520 
3422.000000	95.796016 
3421.000000	95.793837 
3420.000000	95.790655 
3419.000000	95.788467 
3418.000000	95.787906 
3417.000000	95.787713 
3416.000000	95.786624 
3415.000000	95.784619 
3414.000000	95.782199 
3413.000000	95.779574 
3412.000000	95.777034 
3411.000000	95.775274 
3410.000000	95.774747 
3409.000000	95.775158 
3408.000000	95.775840 
3407.000000	95.776082 
3406.000000	95.775116 
3405.000000	95.772466 
3404.000000	95.768449 
3403.000000	95.763940 
3402.000000	95.759700 
3401.000000	95.756423 
3400.000000	95.754992 
3399.000000	95.755783 
3398.000000	95.757812 
3397.000000	95.759408 
3396.000000	95.759962 
3395.000000	95.760334 
3394.000000	95.761473 
3393.000000	95.763314 
3392.000000	95.765236 
3391.000000	95.767011 
3390.000000	95.768873 
3389.000000	95.770937 
3388.000000	95.772965 
3387.000000	95.774604 
3386.000000	95.775609 
3385.000000	95.775871 
3384.000000	95.775413 
3383.000000	95.774626 
3382.000000	95.774454 
3381.000000	95.775868 
3380.000000	95.778639 
3379.000000	95.781046 
3378.000000	95.781662 
3377.000000	95.781388 
3376.000000	95.782719 
3375.000000	95.786683 
3374.000000	95.791423 
3373.000000	95.794137 
3372.000000	95.794011 
3371.000000	95.792603 
3370.000000	95.792030 
3369.000000	95.793300 
3368.000000	95.796248 
3367.000000	95.800116 
3366.000000	95.803912 
3365.000000	95.806802 
3364.000000	95.808632 
3363.000000	95.809997 
3362.000000	95.811658 
3361.000000	95.813969 
3360.000000	95.816864 
3359.000000	95.820124 
3358.000000	95.823509 
3357.000000	95.826789 
3356.000000	95.829833 
3355.000000	95.832661 
3354.000000	95.835407 
3353.000000	95.838261 
3352.000000	95.841409 
3351.000000	95.844885 
3350.000000	95.848461 
3349.000000	95.851725 
3348.000000	95.854393 
3347.000000	95.856557 
3346.000000	95.858590 
3345.000000	95.860832 
3344.000000	95.863293 
3343.000000	95.865639 
3342.000000	95.867576 
3341.000000	95.869242 
3340.000000	95.871080 
3339.000000	95.873327 
3338.000000	95.875877 
3337.000000	95.878573 
3336.000000	95.881410 
3335.000000	95.884365 
3334.000000	95.887226 
3333.000000	95.889751 
3332.000000	95.891942 
3331.000000	95.894015 
3330.000000	95.896109 
3329.000000	95.898216 
3328.000000	95.900336 
3327.000000	95.902583 
3326.000000	95.905081 
3325.000000	95.907817 
3324.000000	95.910634 
3323.000000	95.913325 
3322.000000	95.915787 
3321.000000	95.918070 
3320.000000	95.920286 
3319.000000	95.922495 
3318.000000	95.924704 
3317.000000	95.926927 
3316.000000	95.929187 
3315.000000	95.931465 
3314.000000	95.933696 
3313.000000	95.935838 
3312.000000	95.937926 
3311.000000	95.940050 
3310.000000	95.942290 
3309.000000	95.944676 
3308.000000	95.947159 
3307.000000	95.949593 
3306.000000	95.951822 
3305.000000	95.953833 
3304.000000	95.955808 
3303.000000	95.958000 
3302.000000	95.960533 
3301.000000	95.963298 
3300.000000	95.965969 
3299.000000	95.968185 
3298.000000	95.969763 
3297.000000	95.970904 
3296.000000	95.972178 
3295.000000	95.974081 
3294.000000	95.976710 
3293.000000	95.979857 
3292.000000	95.983291 
3291.000000	95.986841 
3290.000000	95.990229 
3289.000000	95.993146 
3288.000000	95.995552 
3287.000000	95.997738 
3286.000000	95.999959 
3285.000000	96.002137 
3284.000000	96.004069 
3283.000000	96.005804 
3282.000000	96.007683 
3281.000000	96.009964 
3280.000000	96.012506 
3279.000000	96.014900 
3278.000000	96.016955 
3277.000000	96.018935 
3276.000000	96.021198 
3275.000000	96.023654 
3274.000000	96.025837 
3273.000000	96.027600 
3272.000000	96.029487 
3271.000000	96.032186 
3270.000000	96.035737 
3269.000000	96.039429 
3268.000000	96.042501 
3267.000000	96.044848 
3266.000000	96.047065 
3265.000000	96.049910 
3264.000000	96.053664 
3263.000000	96.057875 
3262.000000	96.061778 
3261.000000	96.064974 
3260.000000	96.067510 
3259.000000	96.069517 
3258.000000	96.071120 
3257.000000	96.072692 
3256.000000	96.074806 
3255.000000	96.077594 
3254.000000	96.080465 
3253.000000	96.082812 
3252.000000	96.084781 
3251.000000	96.087028 
3250.000000	96.089849 
3249.000000	96.092864 
3248.000000	96.095548 
3247.000000	96.097862 
3246.000000	96.100226 
3245.000000	96.102992 
3244.000000	96.106081 
3243.000000	96.109110 
3242.000000	96.111789 
3241.000000	96.114154 
3240.000000	96.116434 
3239.000000	96.118826 
3238.000000	96.121482 
3237.000000	96.124548 
3236.000000	96.128013 
3235.000000	96.131551 
3234.000000	96.134700 
3233.000000	96.137345 
3232.000000	96.139871 
3231.000000	96.142778 
3230.000000	96.146175 
3229.000000	96.149736 
3228.000000	96.153042 
3227.000000	96.155955 
3226.000000	96.158679 
3225.000000	96.161529 
3224.000000	96.164611 
3223.000000	96.167762 
3222.000000	96.170819 
3221.000000	96.173855 
3220.000000	96.177057 
3219.000000	96.180452 
3218.000000	96.183880 
3217.000000	96.187182 
3216.000000	96.190315 
3215.000000	96.193376 
3214.000000	96.196576 
3213.000000	96.200107 
3212.000000	96.203895 
3211.000000	96.207565 
3210.000000	96.210805 
3209.000000	96.213703 
3208.000000	96.216563 
3207.000000	96.219444 
3206.000000	96.222145 
3205.000000	96.224663 
3204.000000	96.227369 
3203.000000	96.230581 
3202.000000	96.234218 
3201.000000	96.237962 
3200.000000	96.241651 
3199.000000	96.245376 
3198.000000	96.249275 
3197.000000	96.253323 
3196.000000	96.257273 
3195.000000	96.260806 
3194.000000	96.263838 
3193.000000	96.266691 
3192.000000	96.269828 
3191.000000	96.273353 
3190.000000	96.276894 
3189.000000	96.280050 
3188.000000	96.282848 
3187.000000	96.285701 
3186.000000	96.288995 
3185.000000	96.292769 
3184.000000	96.296703 
3183.000000	96.300420 
3182.000000	96.303843 
3181.000000	96.307149 
3180.000000	96.310493 
3179.000000	96.313871 
3178.000000	96.317248 
3177.000000	96.320689 
3176.000000	96.324251 
3175.000000	96.327861 
3174.000000	96.331384 
3173.000000	96.334768 
3172.000000	96.338056 
3171.000000	96.341283 
3170.000000	96.344454 
3169.000000	96.347601 
3168.000000	96.350772 
3167.000000	96.353981 
3166.000000	96.357212 
3165.000000	96.360448 
3164.000000	96.363671 
3163.000000	96.366866 
3162.000000	96.370028 
3161.000000	96.373167 
3160.000000	96.376289 
3159.000000	96.379392 
3158.000000	96.382477 
3157.000000	96.385545 
3156.000000	96.388593 
3155.000000	96.391622 
3154.000000	96.394635 
3153.000000	96.397640 
3152.000000	96.400642 
3151.000000	96.403645 
3150.000000	96.406642 
3149.000000	96.409628 
3148.000000	96.412601 
3147.000000	96.415566 
3146.000000	96.418529 
3145.000000	96.421485 
3144.000000	96.424424 
3143.000000	96.427331 
3142.000000	96.430199 
3141.000000	96.433030 
3140.000000	96.435835 
3139.000000	96.438626 
3138.000000	96.441411 
3137.000000	96.444194 
3136.000000	96.446970 
3135.000000	96.449737 
3134.000000	96.452493 
3133.000000	96.455238 
3132.000000	96.457975 
3131.000000	96.460706 
3130.000000	96.463432 
3129.000000	96.466159 
3128.000000	96.468902 
3127.000000	96.471687 
3126.000000	96.474523 
3125.000000	96.477362 
3124.000000	96.480122 
3123.000000	96.482755 
3122.000000	96.485260 
3121.000000	96.487680 
3120.000000	96.490091 
3119.000000	96.492563 
3118.000000	96.495109 
3117.000000	96.497675 
3116.000000	96.500228 
3115.000000	96.502813 
3114.000000	96.505477 
3113.000000	96.508181 
3112.000000	96.510857 
3111.000000	96.513523 
3110.000000	96.516237 
3109.000000	96.518928 
3108.000000	96.521410 
3107.000000	96.523665 
3106.000000	96.525953 
3105.000000	96.528480 
3104.000000	96.531036 
3103.000000	96.533137 
3102.000000	96.534556 
3101.000000	96.535616 
3100.000000	96.536883 
3099.000000	96.538658 
3098.000000	96.540973 
3097.000000	96.543983 
3096.000000	96.547876 
3095.000000	96.552286 
3094.000000	96.556301 
3093.000000	96.559186 
3092.000000	96.560960 
3091.000000	96.562148 
3090.000000	96.563167 
3089.000000	96.564152 
3088.000000	96.565121 
3087.000000	96.566130 
3086.000000	96.567445 
3085.000000	96.569513 
3084.000000	96.572404 
3083.000000	96.575267 
3082.000000	96.576995 
3081.000000	96.577621 
3080.000000	96.578381 
3079.000000	96.580006 
3078.000000	96.581843 
3077.000000	96.583307 
3076.000000	96.585204 
3075.000000	96.588507 
3074.000000	96.592545 
3073.000000	96.595770 
3072.000000	96.597852 
3071.000000	96.599516 
3070.000000	96.600712 
3069.000000	96.600674 
3068.000000	96.599817 
3067.000000	96.599865 
3066.000000	96.601718 
3065.000000	96.604532 
3064.000000	96.607163 
3063.000000	96.609057 
3062.000000	96.609481 
3061.000000	96.607499 
3060.000000	96.603497 
3059.000000	96.599759 
3058.000000	96.598885 
3057.000000	96.602028 
3056.000000	96.608336 
3055.000000	96.615041 
3054.000000	96.618491 
3053.000000	96.616829 
3052.000000	96.612299 
3051.000000	96.609588 
3050.000000	96.611001 
3049.000000	96.614306 
3048.000000	96.615714 
3047.000000	96.613630 
3046.000000	96.608854 
3045.000000	96.602788 
3044.000000	96.597014 
3043.000000	96.593778 
3042.000000	96.595046 
3041.000000	96.600267 
3040.000000	96.605771 
3039.000000	96.607311 
3038.000000	96.603410 
3037.000000	96.596201 
3036.000000	96.588954 
3035.000000	96.582854 
3034.000000	96.576723 
3033.000000	96.569616 
3032.000000	96.562483 
3031.000000	96.556935 
3030.000000	96.553323 
3029.000000	96.550639 
3028.000000	96.547339 
3027.000000	96.541579 
3026.000000	96.531826 
3025.000000	96.518664 
3024.000000	96.505406 
3023.000000	96.495310 
3022.000000	96.488310 
3021.000000	96.481852 
3020.000000	96.474508 
3019.000000	96.466978 
3018.000000	96.459577 
3017.000000	96.450797 
3016.000000	96.439257 
3015.000000	96.425846 
3014.000000	96.413248 
3013.000000	96.403803 
3012.000000	96.397645 
3011.000000	96.392045 
3010.000000	96.382989 
3009.000000	96.368735 
3008.000000	96.351681 
3007.000000	96.335633 
3006.000000	96.321546 
3005.000000	96.307626 
3004.000000	96.293304 
3003.000000	96.280694 
3002.000000	96.271413 
3001.000000	96.264126 
3000.000000	96.256453 
2999.000000	96.247667 
2998.000000	96.238387 
2997.000000	96.228900 
2996.000000	96.218966 
2995.000000	96.208239 
2994.000000	96.195572 
2993.000000	96.178861 
2992.000000	96.157196 
2991.000000	96.133094 
2990.000000	96.111677 
2989.000000	96.097520 
2988.000000	96.092454 
2987.000000	96.095459 
2986.000000	96.103643 
2985.000000	96.113554 
2984.000000	96.122438 
2983.000000	96.128870 
2982.000000	96.132635 
2981.000000	96.134308 
2980.000000	96.134585 
2979.000000	96.133293 
2978.000000	96.129323 
2977.000000	96.122443 
2976.000000	96.114904 
2975.000000	96.109985 
2974.000000	96.108896 
2973.000000	96.110395 
2972.000000	96.113388 
2971.000000	96.118256 
2970.000000	96.125092 
2969.000000	96.132503 
2968.000000	96.139346 
2967.000000	96.146319 
2966.000000	96.154509 
2965.000000	96.163400 
2964.000000	96.171620 
2963.000000	96.178889 
2962.000000	96.185896 
2961.000000	96.192857 
2960.000000	96.199648 
2959.000000	96.207070 
2958.000000	96.216548 
2957.000000	96.228252 
2956.000000	96.240271 
2955.000000	96.249897 
2954.000000	96.255639 
2953.000000	96.258385 
2952.000000	96.260978 
2951.000000	96.266001 
2950.000000	96.273218 
2949.000000	96.279619 
2948.000000	96.282645 
2947.000000	96.282770 
2946.000000	96.282389 
2945.000000	96.282928 
2944.000000	96.284029 
2943.000000	96.284939 
2942.000000	96.285176 
2941.000000	96.283962 
2940.000000	96.280657 
2939.000000	96.276343 
2938.000000	96.273783 
2937.000000	96.274822 
2936.000000	96.278076 
2935.000000	96.279600 
2934.000000	96.275816 
2933.000000	96.265947 
2932.000000	96.252486 
2931.000000	96.239698 
2930.000000	96.231080 
2929.000000	96.227598 
2928.000000	96.227827 
2927.000000	96.229404 
2926.000000	96.230408 
2925.000000	96.230227 
2924.000000	96.229825 
2923.000000	96.230966 
2922.000000	96.234375 
2921.000000	96.238693 
2920.000000	96.241991 
2919.000000	96.244211 
2918.000000	96.247014 
2917.000000	96.250829 
2916.000000	96.253313 
2915.000000	96.251957 
2914.000000	96.247868 
2913.000000	96.245600 
2912.000000	96.248762 
2911.000000	96.256519 
2910.000000	96.264663 
2909.000000	96.269732 
2908.000000	96.271563 
2907.000000	96.272060 
2906.000000	96.272409 
2905.000000	96.271776 
2904.000000	96.268609 
2903.000000	96.263248 
2902.000000	96.259141 
2901.000000	96.260871 
2900.000000	96.270342 
2899.000000	96.285063 
2898.000000	96.300128 
2897.000000	96.312098 
2896.000000	96.320563 
2895.000000	96.326430 
2894.000000	96.330557 
2893.000000	96.334392 
2892.000000	96.340119 
2891.000000	96.348594 
2890.000000	96.357923 
2889.000000	96.365596 
2888.000000	96.371519 
2887.000000	96.377411 
2886.000000	96.383632 
2885.000000	96.388640 
2884.000000	96.391964 
2883.000000	96.395723 
2882.000000	96.402093 
2881.000000	96.410665 
2880.000000	96.419648 
2879.000000	96.428678 
2878.000000	96.438673 
2877.000000	96.449277 
2876.000000	96.458303 
2875.000000	96.464248 
2874.000000	96.468117 
2873.000000	96.472125 
2872.000000	96.477302 
2871.000000	96.483065 
2870.000000	96.488590 
2869.000000	96.493742 
2868.000000	96.498821 
2867.000000	96.504137 
2866.000000	96.509942 
2865.000000	96.516323 
2864.000000	96.523118 
2863.000000	96.530314 
2862.000000	96.538430 
2861.000000	96.547868 
2860.000000	96.557763 
2859.000000	96.566254 
2858.000000	96.572595 
2857.000000	96.578497 
2856.000000	96.586451 
2855.000000	96.596751 
2854.000000	96.606936 
2853.000000	96.614430 
2852.000000	96.619137 
2851.000000	96.623125 
2850.000000	96.628568 
2849.000000	96.636636 
2848.000000	96.647668 
2847.000000	96.661151 
2846.000000	96.675367 
2845.000000	96.688031 
2844.000000	96.697870 
2843.000000	96.705289 
2842.000000	96.711500 
2841.000000	96.717362 
2840.000000	96.723142 
2839.000000	96.728916 
2838.000000	96.734832 
2837.000000	96.741032 
2836.000000	96.747469 
2835.000000	96.753812 
2834.000000	96.759723 
2833.000000	96.765481 
2832.000000	96.772000 
2831.000000	96.779593 
2830.000000	96.786793 
2829.000000	96.791296 
2828.000000	96.792451 
2827.000000	96.792364 
2826.000000	96.794111 
2825.000000	96.798882 
2824.000000	96.805167 
2823.000000	96.810503 
2822.000000	96.813637 
2821.000000	96.815068 
2820.000000	96.815858 
2819.000000	96.816297 
2818.000000	96.815982 
2817.000000	96.815158 
2816.000000	96.815361 
2815.000000	96.818153 
2814.000000	96.823244 
2813.000000	96.828358 
2812.000000	96.831184 
2811.000000	96.831260 
2810.000000	96.830091 
2809.000000	96.829800 
2808.000000	96.831656 
2807.000000	96.835517 
2806.000000	96.840273 
2805.000000	96.844693 
2804.000000	96.847943 
2803.000000	96.849582 
2802.000000	96.849701 
2801.000000	96.849318 
2800.000000	96.850025 
2799.000000	96.852552 
2798.000000	96.855872 
2797.000000	96.858230 
2796.000000	96.858922 
2795.000000	96.858633 
2794.000000	96.858357 
2793.000000	96.858636 
2792.000000	96.859726 
2791.000000	96.861689 
2790.000000	96.864065 
2789.000000	96.866058 
2788.000000	96.867340 
2787.000000	96.868382 
2786.000000	96.869816 
2785.000000	96.871758 
2784.000000	96.873844 
2783.000000	96.875678 
2782.000000	96.877140 
2781.000000	96.878410 
2780.000000	96.879727 
2779.000000	96.881174 
2778.000000	96.882685 
2777.000000	96.884155 
2776.000000	96.885511 
2775.000000	96.886747 
2774.000000	96.887949 
2773.000000	96.889227 
2772.000000	96.890609 
2771.000000	96.892041 
2770.000000	96.893482 
2769.000000	96.894944 
2768.000000	96.896427 
2767.000000	96.897855 
2766.000000	96.899095 
2765.000000	96.900105 
2764.000000	96.901066 
2763.000000	96.902252 
2762.000000	96.903710 
2761.000000	96.905143 
2760.000000	96.906249 
2759.000000	96.907158 
2758.000000	96.908322 
2757.000000	96.909891 
2756.000000	96.911461 
2755.000000	96.912636 
2754.000000	96.913646 
2753.000000	96.915078 
2752.000000	96.917043 
2751.000000	96.918978 
2750.000000	96.920423 
2749.000000	96.921584 
2748.000000	96.922828 
2747.000000	96.923879 
2746.000000	96.924107 
2745.000000	96.923530 
2744.000000	96.923067 
2743.000000	96.923566 
2742.000000	96.924923 
2741.000000	96.926313 
2740.000000	96.927125 
2739.000000	96.927447 
2738.000000	96.927694 
2737.000000	96.928113 
2736.000000	96.928774 
2735.000000	96.929757 
2734.000000	96.931117 
2733.000000	96.932755 
2732.000000	96.934428 
2731.000000	96.935949 
2730.000000	96.937312 
2729.000000	96.938620 
2728.000000	96.939906 
2727.000000	96.941021 
2726.000000	96.941778 
2725.000000	96.942206 
2724.000000	96.942595 
2723.000000	96.943215 
2722.000000	96.944064 
2721.000000	96.944974 
2720.000000	96.945876 
2719.000000	96.946851 
2718.000000	96.947929 
2717.000000	96.948992 
2716.000000	96.949913 
2715.000000	96.950708 
2714.000000	96.951485 
2713.000000	96.952312 
2712.000000	96.953163 
2711.000000	96.953997 
2710.000000	96.954810 
2709.000000	96.955628 
2708.000000	96.956463 
2707.000000	96.957314 
2706.000000	96.958177 
2705.000000	96.959045 
2704.000000	96.959912 
2703.000000	96.960765 
2702.000000	96.961593 
2701.000000	96.962391 
2700.000000	96.963175 
2699.000000	96.963966 
2698.000000	96.964771 
2697.000000	96.965559 
2696.000000	96.966275 
2695.000000	96.966886 
2694.000000	96.967425 
2693.000000	96.967973 
2692.000000	96.968572 
2691.000000	96.969166 
2690.000000	96.969666 
2689.000000	96.970089 
2688.000000	96.970544 
2687.000000	96.971047 
2686.000000	96.971480 
2685.000000	96.971829 
2684.000000	96.972288 
2683.000000	96.972992 
2682.000000	96.973768 
2681.000000	96.974350 
2680.000000	96.974739 
2679.000000	96.975137 
2678.000000	96.975604 
2677.000000	96.976067 
2676.000000	96.976576 
2675.000000	96.977157 
2674.000000	96.977516 
2673.000000	96.977348 
2672.000000	96.976961 
2671.000000	96.977066 
2670.000000	96.977868 
2669.000000	96.978887 
2668.000000	96.979776 
2667.000000	96.980686 
2666.000000	96.981520 
2665.000000	96.981584 
2664.000000	96.980545 
2663.000000	96.979184 
2662.000000	96.978566 
2661.000000	96.978636 
2660.000000	96.978369 
2659.000000	96.977115 
2658.000000	96.975246 
2657.000000	96.973596 
2656.000000	96.972712 
2655.000000	96.972656 
2654.000000	96.973104 
2653.000000	96.973507 
2652.000000	96.973544 
2651.000000	96.973522 
2650.000000	96.974057 
2649.000000	96.975266 
2648.000000	96.976528 
2647.000000	96.977079 
2646.000000	96.976653 
2645.000000	96.975469 
2644.000000	96.973924 
2643.000000	96.972441 
2642.000000	96.971394 
2641.000000	96.970928 
2640.000000	96.970877 
2639.000000	96.970981 
2638.000000	96.971164 
2637.000000	96.971474 
2636.000000	96.971867 
2635.000000	96.972250 
2634.000000	96.972626 
2633.000000	96.973013 
2632.000000	96.973254 
2631.000000	96.973147 
2630.000000	96.972783 
2629.000000	96.972528 
2628.000000	96.972588 
2627.000000	96.972759 
2626.000000	96.972753 
2625.000000	96.972612 
2624.000000	96.972628 
2623.000000	96.972964 
2622.000000	96.973497 
2621.000000	96.973968 
2620.000000	96.974177 
2619.000000	96.974066 
2618.000000	96.973738 
2617.000000	96.973467 
2616.000000	96.973544 
2615.000000	96.974027 
2614.000000	96.974699 
2613.000000	96.975278 
2612.000000	96.975691 
2611.000000	96.976043 
2610.000000	96.976436 
2609.000000	96.976883 
2608.000000	96.977321 
2607.000000	96.977661 
2606.000000	96.977870 
2605.000000	96.978050 
2604.000000	96.978341 
2603.000000	96.978728 
2602.000000	96.979047 
2601.000000	96.979296 
2600.000000	96.979708 
2599.000000	96.980312 
2598.000000	96.980701 
2597.000000	96.980527 
2596.000000	96.979958 
2595.000000	96.979386 
2594.000000	96.978892 
2593.000000	96.978459 
2592.000000	96.978466 
2591.000000	96.979311 
2590.000000	96.980560 
2589.000000	96.981138 
2588.000000	96.980654 
2587.000000	96.979901 
2586.000000	96.979821 
2585.000000	96.980534 
2584.000000	96.981681 
2583.000000	96.983067 
2582.000000	96.984507 
2581.000000	96.985552 
2580.000000	96.985908 
2579.000000	96.985865 
2578.000000	96.986008 
2577.000000	96.986645 
2576.000000	96.987611 
2575.000000	96.988327 
2574.000000	96.988133 
2573.000000	96.986944 
2572.000000	96.985537 
2571.000000	96.984611 
2570.000000	96.983786 
2569.000000	96.982308 
2568.000000	96.980632 
2567.000000	96.980184 
2566.000000	96.981326 
2565.000000	96.982728 
2564.000000	96.983086 
2563.000000	96.982616 
2562.000000	96.982336 
2561.000000	96.982823 
2560.000000	96.984287 
2559.000000	96.986940 
2558.000000	96.990423 
2557.000000	96.993428 
2556.000000	96.994840 
2555.000000	96.994937 
2554.000000	96.994876 
2553.000000	96.995170 
2552.000000	96.995409 
2551.000000	96.995465 
2550.000000	96.995956 
2549.000000	96.997155 
2548.000000	96.998162 
2547.000000	96.997853 
2546.000000	96.996339 
2545.000000	96.994918 
2544.000000	96.994495 
2543.000000	96.994597 
2542.000000	96.994272 
2541.000000	96.993569 
2540.000000	96.993507 
2539.000000	96.994628 
2538.000000	96.996233 
2537.000000	96.997330 
2536.000000	96.997903 
2535.000000	96.998614 
2534.000000	96.999539 
2533.000000	96.999963 
2532.000000	96.999527 
2531.000000	96.998854 
2530.000000	96.998703 
2529.000000	96.998917 
2528.000000	96.998723 
2527.000000	96.997901 
2526.000000	96.997201 
2525.000000	96.997499 
2524.000000	96.998921 
2523.000000	97.000826 
2522.000000	97.002374 
2521.000000	97.003169 
2520.000000	97.003374 
2519.000000	97.003410 
2518.000000	97.003508 
2517.000000	97.003498 
2516.000000	97.003061 
2515.000000	97.002199 
2514.000000	97.001461 
2513.000000	97.001550 
2512.000000	97.002696 
2511.000000	97.004533 
2510.000000	97.006464 
2509.000000	97.008107 
2508.000000	97.009325 
2507.000000	97.010033 
2506.000000	97.010288 
2505.000000	97.010485 
2504.000000	97.011122 
2503.000000	97.012184 
2502.000000	97.013048 
2501.000000	97.013265 
2500.000000	97.013144 
2499.000000	97.013360 
2498.000000	97.014054 
2497.000000	97.014721 
2496.000000	97.014983 
2495.000000	97.015107 
2494.000000	97.015538 
2493.000000	97.016249 
2492.000000	97.016913 
2491.000000	97.017495 
2490.000000	97.018274 
2489.000000	97.019262 
2488.000000	97.019990 
2487.000000	97.020054 
2486.000000	97.019641 
2485.000000	97.019371 
2484.000000	97.019659 
2483.000000	97.020420 
2482.000000	97.021283 
2481.000000	97.021925 
2480.000000	97.022278 
2479.000000	97.022537 
2478.000000	97.023020 
2477.000000	97.023845 
2476.000000	97.024694 
2475.000000	97.025032 
2474.000000	97.024644 
2473.000000	97.023833 
2472.000000	97.022997 
2471.000000	97.022127 
2470.000000	97.021064 
2469.000000	97.020163 
2468.000000	97.020204 
2467.000000	97.021393 
2466.000000	97.022772 
2465.000000	97.023084 
2464.000000	97.022276 
2463.000000	97.021695 
2462.000000	97.022736 
2461.000000	97.025611 
2460.000000	97.029368 
2459.000000	97.032720 
2458.000000	97.034696 
2457.000000	97.034772 
2456.000000	97.032906 
2455.000000	97.029763 
2454.000000	97.026595 
2453.000000	97.024471 
2452.000000	97.023551 
2451.000000	97.023231 
2450.000000	97.023031 
2449.000000	97.023159 
2448.000000	97.023987 
2447.000000	97.025244 
2446.000000	97.026166 
2445.000000	97.026367 
2444.000000	97.026121 
2443.000000	97.025762 
2442.000000	97.025360 
2441.000000	97.025077 
2440.000000	97.025354 
2439.000000	97.026528 
2438.000000	97.028615 
2437.000000	97.031573 
2436.000000	97.035250 
2435.000000	97.038905 
2434.000000	97.041347 
2433.000000	97.041961 
2432.000000	97.041371 
2431.000000	97.040833 
2430.000000	97.041253 
2429.000000	97.042817 
2428.000000	97.045023 
2427.000000	97.046779 
2426.000000	97.046925 
2425.000000	97.045258 
2424.000000	97.043227 
2423.000000	97.042575 
2422.000000	97.043303 
2421.000000	97.044532 
2420.000000	97.046343 
2419.000000	97.049021 
2418.000000	97.051608 
2417.000000	97.052939 
2416.000000	97.053400 
2415.000000	97.054197 
2414.000000	97.055605 
2413.000000	97.057221 
2412.000000	97.059065 
2411.000000	97.061006 
2410.000000	97.061977 
2409.000000	97.061443 
2408.000000	97.060866 
2407.000000	97.061929 
2406.000000	97.063857 
2405.000000	97.064262 
2404.000000	97.062240 
2403.000000	97.059018 
2402.000000	97.056044 
2401.000000	97.054277 
2400.000000	97.054881 
2399.000000	97.058508 
2398.000000	97.063914 
2397.000000	97.068912 
2396.000000	97.072495 
2395.000000	97.074564 
2394.000000	97.074334 
2393.000000	97.071442 
2392.000000	97.068328 
2391.000000	97.068905 
2390.000000	97.074274 
2389.000000	97.081806 
2388.000000	97.088907 
2387.000000	97.095610 
2386.000000	97.102858 
2385.000000	97.110354 
2384.000000	97.117024 
2383.000000	97.121496 
2382.000000	97.120737 
2381.000000	97.110592 
2380.000000	97.089809 
2379.000000	97.062701 
2378.000000	97.036080 
2377.000000	97.014213 
2376.000000	96.999081 
2375.000000	96.993633 
2374.000000	97.000083 
2373.000000	97.015028 
2372.000000	97.030169 
2371.000000	97.040127 
2370.000000	97.046189 
2369.000000	97.051076 
2368.000000	97.054219 
2367.000000	97.054148 
2366.000000	97.051536 
2365.000000	97.047400 
2364.000000	97.041310 
2363.000000	97.034245 
2362.000000	97.029942 
2361.000000	97.030742 
2360.000000	97.035267 
2359.000000	97.040290 
2358.000000	97.042322 
2357.000000	97.040144 
2356.000000	97.034764 
2355.000000	97.029110 
2354.000000	97.023081 
2353.000000	97.017336 
2352.000000	97.016549 
2351.000000	97.022759 
2350.000000	97.031663 
2349.000000	97.036743 
2348.000000	97.036704 
2347.000000	97.034650 
2346.000000	97.033722 
2345.000000	97.035711 
2344.000000	97.039356 
2343.000000	97.042757 
2342.000000	97.043595 
2341.000000	97.041894 
2340.000000	97.039946 
2339.000000	97.039419 
2338.000000	97.039916 
2337.000000	97.039545 
2336.000000	97.039051 
2335.000000	97.039924 
2334.000000	97.042171 
2333.000000	97.043222 
2332.000000	97.044286 
2331.000000	97.047085 
2330.000000	97.052655 
2329.000000	97.057505 
2328.000000	97.061276 
2327.000000	97.064597 
2326.000000	97.067236 
2325.000000	97.068091 
2324.000000	97.068388 
2323.000000	97.071035 
2322.000000	97.074568 
2321.000000	97.073790 
2320.000000	97.068666 
2319.000000	97.064070 
2318.000000	97.065233 
2317.000000	97.068750 
2316.000000	97.071800 
2315.000000	97.073284 
2314.000000	97.077239 
2313.000000	97.083228 
2312.000000	97.091966 
2311.000000	97.102430 
2310.000000	97.114121 
2309.000000	97.121842 
2308.000000	97.123887 
2307.000000	97.122456 
2306.000000	97.122719 
2305.000000	97.124871 
2304.000000	97.127692 
2303.000000	97.130188 
2302.000000	97.134627 
2301.000000	97.140080 
2300.000000	97.144180 
2299.000000	97.142953 
2298.000000	97.136035 
2297.000000	97.123866 
2296.000000	97.109783 
2295.000000	97.097499 
2294.000000	97.090095 
2293.000000	97.086835 
2292.000000	97.085222 
2291.000000	97.083606 
2290.000000	97.081555 
2289.000000	97.078598 
2288.000000	97.073979 
2287.000000	97.068326 
2286.000000	97.063193 
2285.000000	97.060100 
2284.000000	97.059220 
2283.000000	97.059725 
2282.000000	97.059859 
2281.000000	97.058254 
2280.000000	97.055093 
2279.000000	97.051810 
2278.000000	97.049176 
2277.000000	97.046699 
2276.000000	97.044423 
2275.000000	97.043443 
2274.000000	97.044561 
2273.000000	97.047256 
2272.000000	97.050565 
2271.000000	97.053287 
2270.000000	97.053783 
2269.000000	97.051356 
2268.000000	97.048074 
2267.000000	97.047129 
2266.000000	97.049191 
2265.000000	97.051942 
2264.000000	97.053222 
2263.000000	97.052797 
2262.000000	97.050926 
2261.000000	97.047598 
2260.000000	97.043562 
2259.000000	97.040365 
2258.000000	97.038453 
2257.000000	97.036893 
2256.000000	97.035501 
2255.000000	97.035683 
2254.000000	97.038298 
2253.000000	97.041618 
2252.000000	97.042741 
2251.000000	97.040321 
2250.000000	97.034883 
2249.000000	97.027751 
2248.000000	97.020874 
2247.000000	97.016458 
2246.000000	97.015393 
2245.000000	97.016231 
2244.000000	97.016418 
2243.000000	97.014904 
2242.000000	97.012587 
2241.000000	97.010701 
2240.000000	97.009821 
2239.000000	97.010067 
2238.000000	97.011150 
2237.000000	97.012245 
2236.000000	97.012590 
2235.000000	97.012112 
2234.000000	97.011085 
2233.000000	97.009662 
2232.000000	97.008172 
2231.000000	97.007247 
2230.000000	97.006977 
2229.000000	97.006367 
2228.000000	97.004509 
2227.000000	97.001942 
2226.000000	97.000042 
2225.000000	96.999164 
2224.000000	96.998431 
2223.000000	96.997195 
2222.000000	96.995787 
2221.000000	96.994663 
2220.000000	96.993695 
2219.000000	96.992577 
2218.000000	96.991321 
2217.000000	96.990162 
2216.000000	96.989242 
2215.000000	96.988487 
2214.000000	96.987736 
2213.000000	96.986913 
2212.000000	96.986069 
2211.000000	96.985263 
2210.000000	96.984509 
2209.000000	96.983804 
2208.000000	96.983132 
2207.000000	96.982474 
2206.000000	96.981814 
2205.000000	96.981128 
2204.000000	96.980390 
2203.000000	96.979582 
2202.000000	96.978707 
2201.000000	96.977781 
2200.000000	96.976827 
2199.000000	96.975865 
2198.000000	96.974911 
2197.000000	96.973949 
2196.000000	96.972993 
2195.000000	96.972111 
2194.000000	96.971364 
2193.000000	96.970743 
2192.000000	96.970220 
2191.000000	96.969795 
2190.000000	96.969454 
2189.000000	96.969168 
2188.000000	96.969018 
2187.000000	96.969151 
2186.000000	96.969448 
2185.000000	96.969454 
2184.000000	96.968934 
2183.000000	96.968434 
2182.000000	96.968828 
2181.000000	96.970316 
2180.000000	96.972022 
2179.000000	96.972877 
2178.000000	96.972657 
2177.000000	96.972047 
2176.000000	96.971975 
2175.000000	96.972844 
2174.000000	96.974362 
2173.000000	96.975937 
2172.000000	96.977482 
2171.000000	96.979590 
2170.000000	96.982415 
2169.000000	96.984712 
2168.000000	96.984943 
2167.000000	96.983337 
2166.000000	96.981960 
2165.000000	96.982132 
2164.000000	96.982785 
2163.000000	96.982235 
2162.000000	96.980988 
2161.000000	96.981653 
2160.000000	96.986263 
2159.000000	96.994556 
2158.000000	97.004255 
2157.000000	97.012606 
2156.000000	97.018045 
2155.000000	97.020680 
2154.000000	97.021960 
2153.000000	97.023993 
2152.000000	97.028199 
2151.000000	97.033776 
2150.000000	97.037841 
2149.000000	97.038360 
2148.000000	97.036949 
2147.000000	97.037551 
2146.000000	97.041736 
2145.000000	97.047020 
2144.000000	97.050462 
2143.000000	97.052268 
2142.000000	97.054367 
2141.000000	97.057152 
2140.000000	97.059755 
2139.000000	97.062482 
2138.000000	97.066673 
2137.000000	97.072319 
2136.000000	97.077462 
2135.000000	97.079935 
2134.000000	97.078675 
2133.000000	97.074422 
2132.000000	97.070428 
2131.000000	97.070737 
2130.000000	97.076405 
2129.000000	97.084033 
2128.000000	97.089095 
2127.000000	97.090511 
2126.000000	97.090581 
2125.000000	97.091506 
2124.000000	97.093470 
2123.000000	97.095582 
2122.000000	97.096870 
2121.000000	97.096391 
2120.000000	97.093819 
2119.000000	97.090074 
2118.000000	97.086506 
2117.000000	97.083678 
2116.000000	97.081479 
2115.000000	97.079742 
2114.000000	97.077931 
2113.000000	97.075085 
2112.000000	97.071360 
2111.000000	97.068772 
2110.000000	97.069073 
2109.000000	97.071695 
2108.000000	97.074891 
2107.000000	97.077773 
2106.000000	97.079877 
2105.000000	97.080506 
2104.000000	97.080190 
2103.000000	97.080943 
2102.000000	97.083065 
2101.000000	97.083464 
2100.000000	97.079591 
2099.000000	97.073849 
2098.000000	97.071617 
2097.000000	97.075346 
2096.000000	97.083035 
2095.000000	97.091076 
2094.000000	97.096784 
2093.000000	97.098872 
2092.000000	97.097678 
2091.000000	97.095428 
2090.000000	97.094622 
2089.000000	97.095654 
2088.000000	97.096924 
2087.000000	97.096926 
2086.000000	97.095270 
2085.000000	97.092392 
2084.000000	97.089547 
2083.000000	97.088271 
2082.000000	97.088832 
2081.000000	97.089800 
2080.000000	97.090060 
2079.000000	97.090295 
2078.000000	97.091336 
2077.000000	97.092128 
2076.000000	97.091067 
2075.000000	97.088583 
2074.000000	97.086386 
2073.000000	97.084736 
2072.000000	97.082358 
2071.000000	97.078868 
2070.000000	97.075563 
2069.000000	97.073727 
2068.000000	97.073435 
2067.000000	97.074040 
2066.000000	97.074743 
2065.000000	97.074609 
2064.000000	97.073005 
2063.000000	97.070323 
2062.000000	97.067800 
2061.000000	97.066528 
2060.000000	97.066723 
2059.000000	97.067974 
2058.000000	97.069506 
2057.000000	97.070302 
2056.000000	97.069775 
2055.000000	97.068139 
2054.000000	97.066184 
2053.000000	97.064697 
2052.000000	97.063989 
2051.000000	97.063921 
2050.000000	97.064078 
2049.000000	97.063981 
2048.000000	97.063410 
2047.000000	97.062527 
2046.000000	97.061633 
2045.000000	97.060919 
2044.000000	97.060574 
2043.000000	97.060860 
2042.000000	97.061837 
2041.000000	97.063141 
2040.000000	97.064385 
2039.000000	97.065697 
2038.000000	97.067314 
2037.000000	97.068825 
2036.000000	97.069505 
2035.000000	97.069282 
2034.000000	97.068893 
2033.000000	97.069126 
2032.000000	97.070217 
2031.000000	97.071916 
2030.000000	97.073556 
2029.000000	97.074323 
2028.000000	97.074002 
2027.000000	97.073366 
2026.000000	97.073224 
2025.000000	97.073452 
2024.000000	97.073704 
2023.000000	97.074671 
2022.000000	97.077569 
2021.000000	97.082329 
2020.000000	97.086892 
2019.000000	97.088940 
2018.000000	97.087631 
2017.000000	97.083786 
2016.000000	97.079478 
2015.000000	97.076761 
2014.000000	97.076106 
2013.000000	97.076092 
2012.000000	97.075444 
2011.000000	97.075285 
2010.000000	97.077545 
2009.000000	97.081582 
2008.000000	97.084505 
2007.000000	97.085259 
2006.000000	97.085793 
2005.000000	97.087510 
2004.000000	97.089154 
2003.000000	97.089536 
2002.000000	97.089942 
2001.000000	97.091697 
2000.000000	97.093190 
1999.000000	97.091304 
1998.000000	97.085051 
1997.000000	97.076651 
1996.000000	97.069632 
1995.000000	97.066223 
1994.000000	97.066504 
1993.000000	97.068744 
1992.000000	97.070334 
1991.000000	97.069885 
1990.000000	97.068339 
1989.000000	97.067644 
1988.000000	97.068472 
1987.000000	97.069445 
1986.000000	97.068561 
1985.000000	97.065229 
1984.000000	97.060737 
1983.000000	97.056786 
1982.000000	97.053945 
1981.000000	97.051800 
1980.000000	97.050514 
1979.000000	97.050923 
1978.000000	97.052770 
1977.000000	97.054244 
1976.000000	97.054008 
1975.000000	97.052901 
1974.000000	97.052763 
1973.000000	97.054400 
1972.000000	97.057210 
1971.000000	97.060030 
1970.000000	97.061770 
1969.000000	97.061689 
1968.000000	97.059803 
1967.000000	97.057191 
1966.000000	97.055442 
1965.000000	97.055423 
1964.000000	97.056915 
1963.000000	97.059205 
1962.000000	97.061588 
1961.000000	97.063435 
1960.000000	97.064280 
1959.000000	97.064100 
1958.000000	97.063470 
1957.000000	97.063264 
1956.000000	97.063904 
1955.000000	97.065047 
1954.000000	97.065900 
1953.000000	97.066037 
1952.000000	97.065743 
1951.000000	97.065625 
1950.000000	97.065990 
1949.000000	97.066785 
1948.000000	97.067889 
1947.000000	97.069173 
1946.000000	97.070360 
1945.000000	97.071136 
1944.000000	97.071450 
1943.000000	97.071520 
1942.000000	97.071550 
1941.000000	97.071610 
1940.000000	97.071736 
1939.000000	97.071956 
1938.000000	97.072244 
1937.000000	97.072565 
1936.000000	97.072916 
1935.000000	97.073266 
1934.000000	97.073502 
1933.000000	97.073559 
1932.000000	97.073550 
1931.000000	97.073678 
1930.000000	97.073969 
1929.000000	97.074121 
1928.000000	97.073914 
1927.000000	97.073439 
1926.000000	97.072909 
1925.000000	97.072304 
1924.000000	97.071564 
1923.000000	97.070887 
1922.000000	97.070393 
1921.000000	97.069873 
1920.000000	97.069124 
1919.000000	97.068274 
1918.000000	97.067551 
1917.000000	97.066854 
1916.000000	97.065955 
1915.000000	97.064969 
1914.000000	97.064190 
1913.000000	97.063597 
1912.000000	97.062809 
1911.000000	97.061713 
1910.000000	97.060578 
1909.000000	97.059594 
1908.000000	97.058850 
1907.000000	97.058361 
1906.000000	97.057936 
1905.000000	97.057048 
1904.000000	97.055361 
1903.000000	97.053405 
1902.000000	97.051980 
1901.000000	97.051104 
1900.000000	97.050253 
1899.000000	97.049210 
1898.000000	97.048275 
1897.000000	97.047556 
1896.000000	97.046697 
1895.000000	97.045615 
1894.000000	97.044534 
1893.000000	97.043331 
1892.000000	97.041704 
1891.000000	97.040022 
1890.000000	97.039087 
1889.000000	97.038969 
1888.000000	97.039132 
1887.000000	97.039499 
1886.000000	97.040169 
1885.000000	97.040453 
1884.000000	97.039290 
1883.000000	97.036819 
1882.000000	97.034522 
1881.000000	97.033392 
1880.000000	97.033187 
1879.000000	97.032987 
1878.000000	97.032132 
1877.000000	97.030961 
1876.000000	97.030488 
1875.000000	97.031746 
1874.000000	97.034848 
1873.000000	97.038361 
1872.000000	97.040784 
1871.000000	97.042098 
1870.000000	97.042815 
1869.000000	97.042434 
1868.000000	97.041057 
1867.000000	97.041062 
1866.000000	97.043428 
1865.000000	97.045568 
1864.000000	97.045064 
1863.000000	97.043248 
1862.000000	97.043300 
1861.000000	97.045782 
1860.000000	97.048675 
1859.000000	97.051137 
1858.000000	97.053986 
1857.000000	97.056898 
1856.000000	97.058393 
1855.000000	97.058546 
1854.000000	97.058969 
1853.000000	97.059859 
1852.000000	97.061042 
1851.000000	97.063108 
1850.000000	97.066286 
1849.000000	97.069966 
1848.000000	97.073233 
1847.000000	97.076187 
1846.000000	97.079139 
1845.000000	97.081648 
1844.000000	97.082963 
1843.000000	97.084028 
1842.000000	97.085817 
1841.000000	97.086838 
1840.000000	97.086672 
1839.000000	97.086901 
1838.000000	97.088437 
1837.000000	97.089640 
1836.000000	97.088938 
1835.000000	97.087686 
1834.000000	97.087857 
1833.000000	97.089062 
1832.000000	97.089687 
1831.000000	97.088933 
1830.000000	97.087522 
1829.000000	97.086976 
1828.000000	97.087834 
1827.000000	97.089453 
1826.000000	97.091231 
1825.000000	97.092845 
1824.000000	97.093680 
1823.000000	97.093644 
1822.000000	97.093327 
1821.000000	97.093221 
1820.000000	97.093376 
1819.000000	97.093748 
1818.000000	97.094636 
1817.000000	97.095820 
1816.000000	97.096412 
1815.000000	97.096284 
1814.000000	97.096152 
1813.000000	97.096555 
1812.000000	97.097000 
1811.000000	97.096863 
1810.000000	97.096492 
1809.000000	97.096374 
1808.000000	97.096435 
1807.000000	97.096490 
1806.000000	97.096553 
1805.000000	97.096619 
1804.000000	97.096629 
1803.000000	97.096738 
1802.000000	97.097057 
1801.000000	97.097411 
1800.000000	97.097437 
1799.000000	97.097056 
1798.000000	97.096730 
1797.000000	97.096789 
1796.000000	97.097079 
1795.000000	97.097354 
1794.000000	97.097738 
1793.000000	97.098430 
1792.000000	97.099139 
1791.000000	97.099710 
1790.000000	97.100510 
1789.000000	97.101419 
1788.000000	97.102109 
1787.000000	97.102702 
1786.000000	97.103606 
1785.000000	97.104754 
1784.000000	97.105665 
1783.000000	97.106277 
1782.000000	97.106705 
1781.000000	97.107207 
1780.000000	97.107929 
1779.000000	97.108762 
1778.000000	97.109654 
1777.000000	97.110545 
1776.000000	97.111445 
1775.000000	97.112262 
1774.000000	97.112878 
1773.000000	97.113346 
1772.000000	97.113814 
1771.000000	97.114391 
1770.000000	97.115115 
1769.000000	97.115931 
1768.000000	97.116779 
1767.000000	97.117581 
1766.000000	97.118274 
1765.000000	97.118860 
1764.000000	97.119379 
1763.000000	97.119873 
1762.000000	97.120352 
1761.000000	97.120824 
1760.000000	97.121283 
1759.000000	97.121711 
1758.000000	97.122106 
1757.000000	97.122467 
1756.000000	97.122800 
1755.000000	97.123080 
1754.000000	97.123281 
1753.000000	97.123408 
1752.000000	97.123522 
1751.000000	97.123693 
1750.000000	97.123913 
1749.000000	97.124050 
1748.000000	97.123994 
1747.000000	97.123805 
1746.000000	97.123493 
1745.000000	97.123227 
1744.000000	97.123371 
1743.000000	97.123950 
1742.000000	97.124430 
1741.000000	97.124234 
1740.000000	97.123345 
1739.000000	97.122693 
1738.000000	97.123232 
1737.000000	97.124065 
1736.000000	97.123911 
1735.000000	97.123819 
1734.000000	97.123991 
1733.000000	97.122709 
1732.000000	97.121650 
1731.000000	97.121832 
1730.000000	97.123597 
1729.000000	97.125975 
1728.000000	97.126953 
1727.000000	97.125486 
1726.000000	97.122158 
1725.000000	97.119346 
1724.000000	97.117525 
1723.000000	97.116040 
1722.000000	97.115768 
1721.000000	97.116148 
1720.000000	97.115116 
1719.000000	97.112819 
1718.000000	97.112790 
1717.000000	97.114111 
1716.000000	97.111868 
1715.000000	97.107172 
1714.000000	97.104894 
1713.000000	97.104754 
1712.000000	97.102240 
1711.000000	97.097403 
1710.000000	97.094086 
1709.000000	97.092766 
1708.000000	97.089798 
1707.000000	97.083148 
1706.000000	97.076317 
1705.000000	97.072152 
1704.000000	97.068706 
1703.000000	97.062998 
1702.000000	97.056538 
1701.000000	97.054034 
1700.000000	97.049993 
1699.000000	97.041907 
1698.000000	97.037468 
1697.000000	97.033184 
1696.000000	97.026183 
1695.000000	97.018394 
1694.000000	97.013823 
1693.000000	97.009994 
1692.000000	97.002512 
1691.000000	96.993093 
1690.000000	96.985094 
1689.000000	96.979041 
1688.000000	96.974028 
1687.000000	96.967752 
1686.000000	96.960430 
1685.000000	96.953854 
1684.000000	96.946158 
1683.000000	96.938206 
1682.000000	96.932488 
1681.000000	96.925525 
1680.000000	96.918566 
1679.000000	96.913603 
1678.000000	96.908801 
1677.000000	96.901963 
1676.000000	96.894587 
1675.000000	96.888301 
1674.000000	96.881139 
1673.000000	96.872589 
1672.000000	96.862970 
1671.000000	96.854164 
1670.000000	96.846850 
1669.000000	96.838260 
1668.000000	96.830783 
1667.000000	96.826731 
1666.000000	96.822805 
1665.000000	96.816188 
1664.000000	96.807820 
1663.000000	96.801069 
1662.000000	96.794782 
1661.000000	96.786394 
1660.000000	96.778270 
1659.000000	96.771804 
1658.000000	96.765050 
1657.000000	96.756952 
1656.000000	96.748813 
1655.000000	96.743755 
1654.000000	96.745455 
1653.000000	96.734536 
1652.000000	96.706687 
1651.000000	96.698764 
1650.000000	96.698178 
1649.000000	96.691409 
1648.000000	96.684718 
1647.000000	96.684126 
1646.000000	96.684224 
1645.000000	96.682840 
1644.000000	96.680513 
1643.000000	96.678599 
1642.000000	96.677210 
1641.000000	96.675323 
1640.000000	96.674125 
1639.000000	96.673323 
1638.000000	96.672322 
1637.000000	96.671573 
1636.000000	96.671175 
1635.000000	96.667482 
1634.000000	96.665993 
1633.000000	96.669283 
1632.000000	96.669902 
1631.000000	96.669441 
1630.000000	96.670657 
1629.000000	96.672153 
1628.000000	96.673648 
1627.000000	96.679424 
1626.000000	96.687985 
1625.000000	96.693543 
1624.000000	96.696463 
1623.000000	96.702367 
1622.000000	96.712063 
1621.000000	96.721818 
1620.000000	96.730548 
1619.000000	96.739720 
1618.000000	96.750788 
1617.000000	96.756711 
1616.000000	96.756282 
1615.000000	96.763346 
1614.000000	96.778256 
1613.000000	96.788622 
1612.000000	96.792859 
1611.000000	96.798598 
1610.000000	96.807401 
1609.000000	96.816507 
1608.000000	96.829056 
1607.000000	96.848177 
1606.000000	96.865894 
1605.000000	96.875463 
1604.000000	96.882912 
1603.000000	96.893701 
1602.000000	96.905122 
1601.000000	96.913302 
1600.000000	96.920649 
1599.000000	96.929667 
1598.000000	96.937471 
1597.000000	96.941891 
1596.000000	96.945742 
1595.000000	96.952414 
1594.000000	96.960311 
1593.000000	96.966244 
1592.000000	96.971154 
1591.000000	96.977549 
1590.000000	96.984387 
1589.000000	96.989638 
1588.000000	96.994878 
1587.000000	97.002676 
1586.000000	97.011299 
1585.000000	97.016623 
1584.000000	97.021140 
1583.000000	97.028352 
1582.000000	97.034901 
1581.000000	97.038215 
1580.000000	97.042175 
1579.000000	97.048908 
1578.000000	97.055111 
1577.000000	97.058875 
1576.000000	97.061066 
1575.000000	97.066111 
1574.000000	97.074662 
1573.000000	97.081006 
1572.000000	97.084615 
1571.000000	97.090037 
1570.000000	97.095688 
1569.000000	97.095916 
1568.000000	97.096576 
1567.000000	97.100431 
1566.000000	97.101404 
1565.000000	97.097886 
1564.000000	97.095939 
1563.000000	97.097310 
1562.000000	97.095354 
1561.000000	97.088270 
1560.000000	97.094207 
1559.000000	97.110286 
1558.000000	97.108015 
1557.000000	97.102320 
1556.000000	97.101091 
1555.000000	97.103116 
1554.000000	97.104813 
1553.000000	97.103819 
1552.000000	97.100377 
1551.000000	97.095437 
1550.000000	97.091788 
1549.000000	97.088398 
1548.000000	97.083101 
1547.000000	97.076628 
1546.000000	97.070494 
1545.000000	97.066652 
1544.000000	97.064973 
1543.000000	97.062908 
1542.000000	97.060082 
1541.000000	97.055469 
1540.000000	97.042072 
1539.000000	97.023522 
1538.000000	97.013317 
1537.000000	97.008531 
1536.000000	97.000426 
1535.000000	96.990792 
1534.000000	96.984330 
1533.000000	96.980710 
1532.000000	96.976151 
1531.000000	96.968164 
1530.000000	96.957442 
1529.000000	96.945401 
1528.000000	96.933491 
1527.000000	96.924175 
1526.000000	96.917712 
1525.000000	96.910984 
1524.000000	96.900926 
1523.000000	96.888587 
1522.000000	96.878838 
1521.000000	96.871946 
1520.000000	96.863034 
1519.000000	96.848891 
1518.000000	96.830771 
1517.000000	96.814982 
1516.000000	96.804880 
1515.000000	96.797671 
1514.000000	96.789345 
1513.000000	96.779331 
1512.000000	96.767446 
1511.000000	96.752801 
1510.000000	96.736656 
1509.000000	96.722051 
1508.000000	96.713123 
1507.000000	96.707176 
1506.000000	96.694208 
1505.000000	96.674871 
1504.000000	96.656168 
1503.000000	96.638058 
1502.000000	96.619974 
1501.000000	96.603186 
1500.000000	96.587685 
1499.000000	96.571699 
1498.000000	96.555600 
1497.000000	96.542394 
1496.000000	96.531718 
1495.000000	96.522704 
1494.000000	96.515520 
1493.000000	96.508532 
1492.000000	96.500184 
1491.000000	96.491359 
1490.000000	96.483554 
1489.000000	96.474095 
1488.000000	96.457755 
1487.000000	96.436491 
1486.000000	96.416861 
1485.000000	96.398168 
1484.000000	96.378595 
1483.000000	96.359629 
1482.000000	96.344499 
1481.000000	96.333122 
1480.000000	96.320318 
1479.000000	96.303819 
1478.000000	96.287111 
1477.000000	96.273987 
1476.000000	96.262042 
1475.000000	96.248771 
1474.000000	96.235520 
1473.000000	96.225285 
1472.000000	96.216551 
1471.000000	96.205007 
1470.000000	96.190188 
1469.000000	96.172463 
1468.000000	96.152443 
1467.000000	96.133147 
1466.000000	96.118521 
1465.000000	96.109790 
1464.000000	96.104008 
1463.000000	96.094890 
1462.000000	96.080005 
1461.000000	96.061041 
1460.000000	96.041645 
1459.000000	96.025324 
1458.000000	96.016404 
1457.000000	96.015456 
1456.000000	96.013735 
1455.000000	96.004147 
1454.000000	95.985348 
1453.000000	95.964676 
1452.000000	95.951063 
1451.000000	95.945780 
1450.000000	95.945574 
1449.000000	95.948771 
1448.000000	95.953044 
1447.000000	95.954368 
1446.000000	95.948699 
1445.000000	95.939023 
1444.000000	95.931535 
1443.000000	95.925831 
1442.000000	95.919628 
1441.000000	95.912626 
1440.000000	95.905272 
1439.000000	95.895956 
1438.000000	95.889248 
1437.000000	95.894141 
1436.000000	95.906375 
1435.000000	95.910478 
1434.000000	95.902482 
1433.000000	95.891373 
1432.000000	95.885860 
1431.000000	95.886348 
1430.000000	95.888710 
1429.000000	95.892252 
1428.000000	95.895753 
1427.000000	95.897022 
1426.000000	95.895085 
1425.000000	95.896755 
1424.000000	95.908199 
1423.000000	95.919717 
1422.000000	95.919947 
1421.000000	95.913252 
1420.000000	95.915082 
1419.000000	95.927454 
1418.000000	95.937619 
1417.000000	95.941431 
1416.000000	95.942606 
1415.000000	95.942468 
1414.000000	95.939772 
1413.000000	95.936833 
1412.000000	95.938399 
1411.000000	95.943593 
1410.000000	95.948287 
1409.000000	95.952009 
1408.000000	95.956411 
1407.000000	95.964130 
1406.000000	95.976972 
1405.000000	95.997425 
1404.000000	96.025087 
1403.000000	96.050519 
1402.000000	96.066932 
1401.000000	96.079891 
1400.000000	96.100740 
1399.000000	96.129473 
1398.000000	96.152635 
1397.000000	96.161324 
1396.000000	96.161273 
1395.000000	96.165614 
1394.000000	96.180601 
1393.000000	96.204626 
1392.000000	96.233019 
1391.000000	96.259473 
1390.000000	96.280334 
1389.000000	96.297246 
1388.000000	96.314103 
1387.000000	96.331146 
1386.000000	96.344721 
1385.000000	96.354736 
1384.000000	96.366267 
1383.000000	96.381761 
1382.000000	96.398906 
1381.000000	96.414712 
1380.000000	96.430010 
1379.000000	96.447607 
1378.000000	96.467144 
1377.000000	96.486096 
1376.000000	96.504376 
1375.000000	96.524475 
1374.000000	96.546565 
1373.000000	96.568355 
1372.000000	96.588499 
1371.000000	96.608194 
1370.000000	96.628497 
1369.000000	96.649429 
1368.000000	96.670385 
1367.000000	96.688488 
1366.000000	96.701799 
1365.000000	96.713130 
1364.000000	96.728747 
1363.000000	96.751302 
1362.000000	96.775653 
1361.000000	96.795059 
1360.000000	96.809316 
1359.000000	96.822561 
1358.000000	96.836686 
1357.000000	96.850752 
1356.000000	96.864366 
1355.000000	96.877607 
1354.000000	96.890156 
1353.000000	96.902026 
1352.000000	96.913570 
1351.000000	96.926375 
1350.000000	96.940273 
1349.000000	96.953184 
1348.000000	96.964205 
1347.000000	96.973419 
1346.000000	96.981767 
1345.000000	96.989830 
1344.000000	96.997202 
1343.000000	97.002646 
1342.000000	97.006759 
1341.000000	97.013457 
1340.000000	97.026534 
1339.000000	97.043549 
1338.000000	97.057245 
1337.000000	97.064103 
1336.000000	97.066508 
1335.000000	97.067291 
1334.000000	97.067083 
1333.000000	97.066847 
1332.000000	97.068965 
1331.000000	97.074246 
1330.000000	97.080326 
1329.000000	97.084815 
1328.000000	97.088002 
1327.000000	97.091438 
1326.000000	97.095035 
1325.000000	97.097636 
1324.000000	97.098759 
1323.000000	97.098029 
1322.000000	97.095609 
1321.000000	97.093397 
1320.000000	97.093947 
1319.000000	97.097424 
1318.000000	97.101709 
1317.000000	97.105448 
1316.000000	97.108652 
1315.000000	97.110548 
1314.000000	97.110101 
1313.000000	97.108877 
1312.000000	97.110072 
1311.000000	97.113948 
1310.000000	97.117312 
1309.000000	97.118376 
1308.000000	97.119041 
1307.000000	97.121727 
1306.000000	97.125758 
1305.000000	97.129037 
1304.000000	97.131016 
1303.000000	97.131663 
1302.000000	97.130053 
1301.000000	97.125803 
1300.000000	97.120994 
1299.000000	97.118800 
1298.000000	97.120606 
1297.000000	97.124882 
1296.000000	97.128615 
1295.000000	97.129606 
1294.000000	97.128116 
1293.000000	97.126316 
1292.000000	97.125476 
1291.000000	97.124623 
1290.000000	97.123039 
1289.000000	97.122579 
1288.000000	97.125250 
1287.000000	97.129375 
1286.000000	97.130927 
1285.000000	97.128633 
1284.000000	97.125209 
1283.000000	97.123441 
1282.000000	97.123178 
1281.000000	97.122617 
1280.000000	97.120940 
1279.000000	97.118771 
1278.000000	97.117446 
1277.000000	97.118326 
1276.000000	97.121326 
1275.000000	97.124217 
1274.000000	97.124935 
1273.000000	97.124553 
1272.000000	97.125852 
1271.000000	97.128925 
1270.000000	97.130621 
1269.000000	97.128991 
1268.000000	97.125842 
1267.000000	97.123719 
1266.000000	97.122753 
1265.000000	97.121993 
1264.000000	97.121720 
1263.000000	97.122672 
1262.000000	97.124144 
1261.000000	97.124632 
1260.000000	97.124348 
1259.000000	97.125501 
1258.000000	97.129495 
1257.000000	97.134299 
1256.000000	97.135240 
1255.000000	97.129630 
1254.000000	97.120564 
1253.000000	97.114187 
1252.000000	97.112528 
1251.000000	97.111727 
1250.000000	97.108869 
1249.000000	97.107461 
1248.000000	97.112759 
1247.000000	97.123438 
1246.000000	97.131930 
1245.000000	97.132381 
1244.000000	97.125130 
1243.000000	97.114952 
1242.000000	97.108447 
1241.000000	97.111518 
1240.000000	97.124461 
1239.000000	97.139331 
1238.000000	97.146352 
1237.000000	97.143509 
1236.000000	97.136524 
1235.000000	97.130011 
1234.000000	97.123158 
1233.000000	97.114459 
1232.000000	97.105514 
1231.000000	97.098044 
1230.000000	97.091167 
1229.000000	97.083906 
1228.000000	97.077091 
1227.000000	97.070473 
1226.000000	97.060525 
1225.000000	97.043474 
1224.000000	97.019056 
1223.000000	96.989987 
1222.000000	96.959222 
1221.000000	96.928484 
1220.000000	96.897641 
1219.000000	96.864595 
1218.000000	96.827171 
1217.000000	96.785245 
1216.000000	96.739184 
1215.000000	96.687048 
1214.000000	96.626948 
1213.000000	96.562476 
1212.000000	96.501228 
1211.000000	96.445668 
1210.000000	96.389090 
1209.000000	96.323606 
1208.000000	96.249236 
1207.000000	96.172163 
1206.000000	96.096330 
1205.000000	96.020038 
1204.000000	95.939696 
1203.000000	95.853970 
1202.000000	95.764895 
1201.000000	95.676638 
1200.000000	95.592261 
1199.000000	95.510274 
1198.000000	95.425612 
1197.000000	95.335349 
1196.000000	95.241774 
1195.000000	95.148618 
1194.000000	95.056355 
1193.000000	94.962948 
1192.000000	94.866998 
1191.000000	94.767933 
1190.000000	94.665109 
1189.000000	94.559047 
1188.000000	94.451780 
1187.000000	94.343951 
1186.000000	94.233659 
1185.000000	94.119982 
1184.000000	94.004785 
1183.000000	93.888759 
1182.000000	93.769198 
1181.000000	93.645012 
1180.000000	93.520318 
1179.000000	93.398513 
1178.000000	93.275864 
1177.000000	93.146114 
1176.000000	93.008869 
1175.000000	92.868174 
1174.000000	92.725371 
1173.000000	92.579455 
1172.000000	92.432535 
1171.000000	92.288005 
1170.000000	92.144410 
1169.000000	91.998102 
1168.000000	91.851976 
1167.000000	91.715632 
1166.000000	91.597905 
1165.000000	91.506081 
1164.000000	91.451008 
1163.000000	91.443338 
1162.000000	91.481719 
1161.000000	91.549644 
1160.000000	91.624217 
1159.000000	91.683477 
1158.000000	91.708490 
1157.000000	91.688179 
1156.000000	91.624548 
1155.000000	91.528666 
1154.000000	91.411057 
1153.000000	91.279342 
1152.000000	91.142410 
1151.000000	91.008754 
1150.000000	90.880034 
1149.000000	90.753093 
1148.000000	90.628381 
1147.000000	90.509253 
1146.000000	90.393213 
1145.000000	90.272463 
1144.000000	90.144531 
1143.000000	90.014810 
1142.000000	89.887311 
1141.000000	89.760317 
1140.000000	89.632363 
1139.000000	89.504786 
1138.000000	89.376753 
1137.000000	89.245072 
1136.000000	89.110264 
1135.000000	88.975838 
1134.000000	88.840860 
1133.000000	88.700854 
1132.000000	88.556436 
1131.000000	88.412566 
1130.000000	88.268516 
1129.000000	88.117603 
1128.000000	87.958335 
1127.000000	87.796853 
1126.000000	87.636459 
1125.000000	87.473479 
1124.000000	87.305565 
1123.000000	87.135394 
1122.000000	86.964177 
1121.000000	86.790247 
1120.000000	86.615916 
1119.000000	86.446822 
1118.000000	86.283166 
1117.000000	86.121173 
1116.000000	85.963983 
1115.000000	85.820431 
1114.000000	85.691896 
1113.000000	85.571189 
1112.000000	85.455005 
1111.000000	85.345303 
1110.000000	85.238122 
1109.000000	85.124674 
1108.000000	85.004354 
1107.000000	84.884076 
1106.000000	84.764068 
1105.000000	84.637507 
1104.000000	84.505299 
1103.000000	84.376887 
1102.000000	84.254550 
1101.000000	84.130711 
1100.000000	84.002757 
1099.000000	83.876886 
1098.000000	83.755453 
1097.000000	83.634009 
1096.000000	83.512094 
1095.000000	83.392870 
1094.000000	83.271406 
1093.000000	83.138852 
1092.000000	82.999800 
1091.000000	82.869930 
1090.000000	82.754360 
1089.000000	82.643308 
1088.000000	82.530063 
1087.000000	82.416660 
1086.000000	82.301065 
1085.000000	82.176993 
1084.000000	82.048825 
1083.000000	81.928685 
1082.000000	81.815676 
1081.000000	81.696052 
1080.000000	81.567090 
1079.000000	81.441913 
1078.000000	81.326213 
1077.000000	81.208288 
1076.000000	81.077050 
1075.000000	80.932011 
1074.000000	80.771332 
1073.000000	80.588260 
1072.000000	80.383516 
1071.000000	80.162670 
1070.000000	79.916868 
1069.000000	79.626520 
1068.000000	79.291173 
1067.000000	78.938042 
1066.000000	78.593634 
1065.000000	78.262786 
1064.000000	77.941019 
1063.000000	77.625966 
1062.000000	77.307312 
1061.000000	76.966512 
1060.000000	76.599490 
1059.000000	76.224851 
1058.000000	75.860121 
1057.000000	75.503932 
1056.000000	75.148427 
1055.000000	74.792084 
1054.000000	74.432299 
1053.000000	74.062077 
1052.000000	73.682968 
1051.000000	73.305617 
1050.000000	72.930280 
1049.000000	72.544921 
1048.000000	72.148000 
1047.000000	71.752096 
1046.000000	71.361451 
1045.000000	70.967993 
1044.000000	70.571766 
1043.000000	70.183097 
1042.000000	69.801807 
1041.000000	69.416506 
1040.000000	69.028429 
1039.000000	68.654062 
1038.000000	68.300271 
1037.000000	67.959188 
1036.000000	67.630810 
1035.000000	67.326858 
1034.000000	67.048575 
1033.000000	66.784492 
1032.000000	66.532908 
1031.000000	66.302455 
1030.000000	66.089696 
1029.000000	65.883368 
1028.000000	65.692095 
1027.000000	65.538237 
1026.000000	65.420693 
1025.000000	65.312334 
1024.000000	65.197849 
1023.000000	65.085058 
1022.000000	64.975699 
1021.000000	64.856879 
1020.000000	64.727138 
1019.000000	64.600800 
1018.000000	64.480236 
1017.000000	64.352393 
1016.000000	64.217455 
1015.000000	64.091328 
1014.000000	63.974757 
1013.000000	63.850170 
1012.000000	63.714588 
1011.000000	63.585704 
1010.000000	63.470154 
1009.000000	63.356557 
1008.000000	63.245577 
1007.000000	63.155561 
1006.000000	63.091645 
1005.000000	63.039880 
1004.000000	62.998079 
1003.000000	62.980960 
1002.000000	62.987652 
1001.000000	62.996303 
1000.000000	62.999971 
999.000000	 63.017505 
998.000000	 63.059595 
997.000000	 63.113477 
996.000000	 63.169781 
995.000000	 63.235817 
994.000000	 63.313387 
993.000000	 63.391290 
992.000000	 63.468153 
991.000000	 63.555991 
990.000000	 63.654405 
989.000000	 63.748558 
988.000000	 63.838895 
987.000000	 63.945011 
986.000000	 64.073947 
985.000000	 64.212941 
984.000000	 64.359128 
983.000000	 64.527093 
982.000000	 64.719939 
981.000000	 64.921830 
980.000000	 65.127067 
979.000000	 65.348995 
978.000000	 65.592468 
977.000000	 65.845117 
976.000000	 66.103478 
975.000000	 66.380780 
974.000000	 66.680799 
973.000000	 66.989915 
972.000000	 67.302582 
971.000000	 67.629648 
970.000000	 67.974193 
969.000000	 68.323404 
968.000000	 68.670989 
967.000000	 69.024434 
966.000000	 69.384641 
965.000000	 69.741788 
964.000000	 70.096050 
963.000000	 70.458761 
962.000000	 70.828191 
961.000000	 71.187493 
960.000000	 71.531441 
959.000000	 71.872399 
958.000000	 72.215494 
957.000000	 72.550687 
956.000000	 72.874053 
955.000000	 73.194271 
954.000000	 73.512877 
953.000000	 73.819258 
952.000000	 74.109617 
951.000000	 74.390440 
950.000000	 74.660337 
949.000000	 74.909624 
948.000000	 75.140513 
947.000000	 75.366084 
946.000000	 75.585983 
945.000000	 75.784863 
944.000000	 75.958635 
943.000000	 76.121121 
942.000000	 76.281159 
941.000000	 76.434328 
940.000000	 76.581622 
939.000000	 76.734580 
938.000000	 76.896365 
937.000000	 77.057991 
936.000000	 77.218351 
935.000000	 77.388047 
934.000000	 77.568848 
933.000000	 77.749314 
932.000000	 77.925225 
931.000000	 78.104573 
930.000000	 78.288142 
929.000000	 78.465122 
928.000000	 78.632659 
927.000000	 78.800214 
926.000000	 78.969312 
925.000000	 79.127289 
924.000000	 79.265899 
923.000000	 79.389083 
922.000000	 79.499375 
921.000000	 79.594487 
920.000000	 79.679940 
919.000000	 79.766159 
918.000000	 79.849661 
917.000000	 79.916103 
916.000000	 79.966324 
915.000000	 80.021617 
914.000000	 80.099670 
913.000000	 80.203138 
912.000000	 80.334214 
911.000000	 80.500712 
910.000000	 80.703688 
909.000000	 80.937395 
908.000000	 81.204131 
907.000000	 81.511031 
906.000000	 81.851499 
905.000000	 82.209348 
904.000000	 82.581217 
903.000000	 82.974165 
902.000000	 83.381833 
901.000000	 83.785815 
900.000000	 84.181648 
899.000000	 84.581286 
898.000000	 84.987528 
897.000000	 85.386857 
896.000000	 85.769509 
895.000000	 86.136503 
894.000000	 86.485636 
893.000000	 86.810684 
892.000000	 87.116815 
891.000000	 87.417661 
890.000000	 87.713929 
889.000000	 87.991694 
888.000000	 88.243109 
887.000000	 88.471991 
886.000000	 88.679391 
885.000000	 88.862179 
884.000000	 89.026282 
883.000000	 89.182150 
882.000000	 89.326557 
881.000000	 89.449899 
880.000000	 89.563346 
879.000000	 89.696058 
878.000000	 89.860539 
877.000000	 90.042461 
876.000000	 90.229756 
875.000000	 90.429477 
874.000000	 90.650582 
873.000000	 90.892599 
872.000000	 91.157518 
871.000000	 91.451140 
870.000000	 91.765451 
869.000000	 92.078625 
868.000000	 92.378440 
867.000000	 92.669178 
866.000000	 92.952747 
865.000000	 93.221456 
864.000000	 93.474036 
863.000000	 93.721114 
862.000000	 93.967916 
861.000000	 94.206202 
860.000000	 94.429632 
859.000000	 94.643652 
858.000000	 94.854068 
857.000000	 95.057412 
856.000000	 95.247746 
855.000000	 95.422446 
854.000000	 95.577735 
853.000000	 95.709383 
852.000000	 95.821570 
851.000000	 95.925587 
850.000000	 96.027286 
849.000000	 96.124596 
848.000000	 96.217032 
847.000000	 96.305971 
846.000000	 96.385797 
845.000000	 96.447834 
844.000000	 96.493624 
843.000000	 96.531227 
842.000000	 96.558025 
841.000000	 96.561231 
840.000000	 96.536514 
839.000000	 96.492104 
838.000000	 96.433738 
837.000000	 96.360968 
836.000000	 96.280971 
835.000000	 96.209860 
834.000000	 96.154452 
833.000000	 96.106648 
832.000000	 96.061305 
831.000000	 96.025917 
830.000000	 96.007188 
829.000000	 96.002685 
828.000000	 96.013099 
827.000000	 96.048391 
826.000000	 96.112875 
825.000000	 96.197036 
824.000000	 96.291162 
823.000000	 96.392566 
822.000000	 96.493748 
821.000000	 96.580229 
820.000000	 96.646265 
819.000000	 96.698403 
818.000000	 96.739380 
817.000000	 96.760429 
816.000000	 96.751926 
815.000000	 96.710426 
814.000000	 96.632643 
813.000000	 96.512564 
812.000000	 96.345956 
811.000000	 96.126579 
810.000000	 95.836275 
809.000000	 95.451731 
808.000000	 94.966016 
807.000000	 94.394695 
806.000000	 93.759674 
805.000000	 93.079938 
804.000000	 92.381600 
803.000000	 91.701212 
802.000000	 91.071099 
801.000000	 90.514154 
800.000000	 90.056585 
799.000000	 89.726303 
798.000000	 89.530297 
797.000000	 89.449876 
796.000000	 89.462965 
795.000000	 89.553063 
794.000000	 89.694576 
793.000000	 89.853326 
792.000000	 90.008722 
791.000000	 90.156849 
790.000000	 90.288397 
789.000000	 90.383335 
788.000000	 90.430266 
787.000000	 90.430552 
786.000000	 90.379645 
785.000000	 90.264905 
784.000000	 90.087353 
783.000000	 89.867355 
782.000000	 89.625484 
781.000000	 89.378345 
780.000000	 89.156626 
779.000000	 89.002252 
778.000000	 88.937647 
777.000000	 88.956908 
776.000000	 89.051773 
775.000000	 89.222013 
774.000000	 89.453031 
773.000000	 89.709099 
772.000000	 89.961167 
771.000000	 90.202438 
770.000000	 90.429155 
769.000000	 90.627533 
768.000000	 90.788872 
767.000000	 90.918141 
766.000000	 91.018879 
765.000000	 91.088310 
764.000000	 91.135576 
763.000000	 91.184984 
762.000000	 91.250091 
761.000000	 91.321176 
760.000000	 91.387229 
759.000000	 91.452954 
758.000000	 91.525603 
757.000000	 91.603976 
756.000000	 91.691138 
755.000000	 91.799919 
754.000000	 91.932652 
753.000000	 92.069117 
752.000000	 92.185665 
751.000000	 92.276687 
750.000000	 92.352614 
749.000000	 92.429408 
748.000000	 92.523841 
747.000000	 92.644086 
746.000000	 92.779116 
745.000000	 92.911027 
744.000000	 93.041145 
743.000000	 93.188364 
742.000000	 93.360270 
741.000000	 93.545267 
740.000000	 93.735486 
739.000000	 93.935765 
738.000000	 94.144557 
737.000000	 94.346661 
736.000000	 94.532222 
735.000000	 94.704190 
734.000000	 94.861438 
733.000000	 94.994117 
732.000000	 95.101237 
731.000000	 95.193037 
730.000000	 95.270723 
729.000000	 95.325418 
728.000000	 95.360449 
727.000000	 95.394770 
726.000000	 95.441850 
725.000000	 95.501869 
724.000000	 95.577350 
723.000000	 95.676197 
722.000000	 95.793075 
721.000000	 95.906661 
720.000000	 96.003102 
719.000000	 96.086238 
718.000000	 96.158669 
717.000000	 96.213160 
716.000000	 96.251385 
715.000000	 96.289033 
714.000000	 96.332725 
713.000000	 96.372747 
712.000000	 96.406899 
711.000000	 96.449425 
710.000000	 96.505269 
709.000000	 96.559852 
708.000000	 96.597007 
707.000000	 96.612508 
706.000000	 96.604755 
705.000000	 96.566183 
704.000000	 96.493806 
703.000000	 96.395237 
702.000000	 96.269248 
701.000000	 96.094251 
700.000000	 95.850676 
699.000000	 95.541403 
698.000000	 95.190130 
697.000000	 94.836259 
696.000000	 94.535058 
695.000000	 94.344492 
694.000000	 94.289561 
693.000000	 94.348801 
692.000000	 94.482698 
691.000000	 94.658013 
690.000000	 94.847359 
689.000000	 95.025726 
688.000000	 95.179781 
687.000000	 95.311566 
686.000000	 95.421269 
685.000000	 95.504137 
684.000000	 95.570003 
683.000000	 95.639508 
682.000000	 95.717153 
681.000000	 95.788078 
680.000000	 95.846879 
679.000000	 95.905050 
678.000000	 95.967915 
677.000000	 96.032058 
676.000000	 96.098202 
675.000000	 96.171839 
674.000000	 96.245901 
673.000000	 96.292440 
672.000000	 96.286415 
671.000000	 96.214486 
670.000000	 96.081513 
669.000000	 95.922522 
668.000000	 95.881702 
667.000000	 96.089859 
666.000000	 96.400168 
665.000000	 96.623664 
664.000000	 96.753749 
663.000000	 96.835605 
662.000000	 96.901867 
661.000000	 96.959876 
660.000000	 97.008165 
659.000000	 97.051872 
658.000000	 97.093481 
657.000000	 97.128256 
656.000000	 97.146751 
655.000000	 97.146168 
654.000000	 97.132376 
653.000000	 97.111738 
652.000000	 97.091300 
651.000000	 97.084078 
650.000000	 97.098101 

