4000.000000	99.482612 
3999.000000	99.481000 
3998.000000	99.477418 
3997.000000	99.473425 
3996.000000	99.470555 
3995.000000	99.469368 
3994.000000	99.469763 
3993.000000	99.471188 
3992.000000	99.472900 
3991.000000	99.474435 
3990.000000	99.475626 
3989.000000	99.476342 
3988.000000	99.476461 
3987.000000	99.476116 
3986.000000	99.475738 
3985.000000	99.475635 
3984.000000	99.475626 
3983.000000	99.475396 
3982.000000	99.475147 
3981.000000	99.475469 
3980.000000	99.476447 
3979.000000	99.477315 
3978.000000	99.477359 
3977.000000	99.476808 
3976.000000	99.476456 
3975.000000	99.476540 
3974.000000	99.476426 
3973.000000	99.475484 
3972.000000	99.473849 
3971.000000	99.472222 
3970.000000	99.471169 
3969.000000	99.470788 
3968.000000	99.470929 
3967.000000	99.471423 
3966.000000	99.472015 
3965.000000	99.472223 
3964.000000	99.471561 
3963.000000	99.470009 
3962.000000	99.468188 
3961.000000	99.466854 
3960.000000	99.466221 
3959.000000	99.466033 
3958.000000	99.466118 
3957.000000	99.466512 
3956.000000	99.466994 
3955.000000	99.466838 
3954.000000	99.465388 
3953.000000	99.462741 
3952.000000	99.459818 
3951.000000	99.457733 
3950.000000	99.457023 
3949.000000	99.457465 
3948.000000	99.458301 
3947.000000	99.458754 
3946.000000	99.458540 
3945.000000	99.457994 
3944.000000	99.457726 
3943.000000	99.458128 
3942.000000	99.459156 
3941.000000	99.460493 
3940.000000	99.461779 
3939.000000	99.462747 
3938.000000	99.463165 
3937.000000	99.462769 
3936.000000	99.461473 
3935.000000	99.459631 
3934.000000	99.458044 
3933.000000	99.457385 
3932.000000	99.457576 
3931.000000	99.457929 
3930.000000	99.457965 
3929.000000	99.457902 
3928.000000	99.458151 
3927.000000	99.458649 
3926.000000	99.459024 
3925.000000	99.459154 
3924.000000	99.459230 
3923.000000	99.459295 
3922.000000	99.459162 
3921.000000	99.458946 
3920.000000	99.459155 
3919.000000	99.460082 
3918.000000	99.461419 
3917.000000	99.462601 
3916.000000	99.463322 
3915.000000	99.463608 
3914.000000	99.463583 
3913.000000	99.463436 
3912.000000	99.463335 
3911.000000	99.463369 
3910.000000	99.463526 
3909.000000	99.463764 
3908.000000	99.464093 
3907.000000	99.464521 
3906.000000	99.465013 
3905.000000	99.465497 
3904.000000	99.465898 
3903.000000	99.466190 
3902.000000	99.466399 
3901.000000	99.466572 
3900.000000	99.466752 
3899.000000	99.466946 
3898.000000	99.467134 
3897.000000	99.467305 
3896.000000	99.467462 
3895.000000	99.467606 
3894.000000	99.467734 
3893.000000	99.467843 
3892.000000	99.467933 
3891.000000	99.468004 
3890.000000	99.468064 
3889.000000	99.468109 
3888.000000	99.468120 
3887.000000	99.468086 
3886.000000	99.468039 
3885.000000	99.468025 
3884.000000	99.468050 
3883.000000	99.468035 
3882.000000	99.467899 
3881.000000	99.467702 
3880.000000	99.467628 
3879.000000	99.467791 
3878.000000	99.468102 
3877.000000	99.468350 
3876.000000	99.468460 
3875.000000	99.468542 
3874.000000	99.468765 
3873.000000	99.469117 
3872.000000	99.469304 
3871.000000	99.469070 
3870.000000	99.468607 
3869.000000	99.468529 
3868.000000	99.469081 
3867.000000	99.469725 
3866.000000	99.469899 
3865.000000	99.469653 
3864.000000	99.469375 
3863.000000	99.469270 
3862.000000	99.469238 
3861.000000	99.469239 
3860.000000	99.469385 
3859.000000	99.469443 
3858.000000	99.468812 
3857.000000	99.467277 
3856.000000	99.465869 
3855.000000	99.465979 
3854.000000	99.466470 
3853.000000	99.465090 
3852.000000	99.463567 
3851.000000	99.463879 
3850.000000	99.465145 
3849.000000	99.466553 
3848.000000	99.468125 
3847.000000	99.469960 
3846.000000	99.471689 
3845.000000	99.472790 
3844.000000	99.473139 
3843.000000	99.473149 
3842.000000	99.473256 
3841.000000	99.473691 
3840.000000	99.474567 
3839.000000	99.475686 
3838.000000	99.476590 
3837.000000	99.477052 
3836.000000	99.477316 
3835.000000	99.477488 
3834.000000	99.477344 
3833.000000	99.476858 
3832.000000	99.476405 
3831.000000	99.476349 
3830.000000	99.476653 
3829.000000	99.476970 
3828.000000	99.477176 
3827.000000	99.477686 
3826.000000	99.478949 
3825.000000	99.480728 
3824.000000	99.482093 
3823.000000	99.482253 
3822.000000	99.481136 
3821.000000	99.479604 
3820.000000	99.478994 
3819.000000	99.479086 
3818.000000	99.478570 
3817.000000	99.477220 
3816.000000	99.475933 
3815.000000	99.475530 
3814.000000	99.475875 
3813.000000	99.476305 
3812.000000	99.476563 
3811.000000	99.476870 
3810.000000	99.477299 
3809.000000	99.477554 
3808.000000	99.477347 
3807.000000	99.476826 
3806.000000	99.476459 
3805.000000	99.476359 
3804.000000	99.476126 
3803.000000	99.475490 
3802.000000	99.474590 
3801.000000	99.473877 
3800.000000	99.473692 
3799.000000	99.473865 
3798.000000	99.473944 
3797.000000	99.473816 
3796.000000	99.473676 
3795.000000	99.473628 
3794.000000	99.473540 
3793.000000	99.473292 
3792.000000	99.472962 
3791.000000	99.472715 
3790.000000	99.472606 
3789.000000	99.472571 
3788.000000	99.472541 
3787.000000	99.472500 
3786.000000	99.472468 
3785.000000	99.472533 
3784.000000	99.472807 
3783.000000	99.473231 
3782.000000	99.473588 
3781.000000	99.473741 
3780.000000	99.473764 
3779.000000	99.473856 
3778.000000	99.474115 
3777.000000	99.474439 
3776.000000	99.474693 
3775.000000	99.474893 
3774.000000	99.475146 
3773.000000	99.475486 
3772.000000	99.475839 
3771.000000	99.476120 
3770.000000	99.476318 
3769.000000	99.476478 
3768.000000	99.476636 
3767.000000	99.476788 
3766.000000	99.476938 
3765.000000	99.477115 
3764.000000	99.477374 
3763.000000	99.477779 
3762.000000	99.478315 
3761.000000	99.478862 
3760.000000	99.479265 
3759.000000	99.479487 
3758.000000	99.479613 
3757.000000	99.479667 
3756.000000	99.479478 
3755.000000	99.478792 
3754.000000	99.477871 
3753.000000	99.477830 
3752.000000	99.479125 
3751.000000	99.479763 
3750.000000	99.478045 
3749.000000	99.475821 
3748.000000	99.474801 
3747.000000	99.473910 
3746.000000	99.473145 
3745.000000	99.474645 
3744.000000	99.479336 
3743.000000	99.485580 
3742.000000	99.488956 
3741.000000	99.485817 
3740.000000	99.478057 
3739.000000	99.471498 
3738.000000	99.470735 
3737.000000	99.475126 
3736.000000	99.480658 
3735.000000	99.483601 
3734.000000	99.481943 
3733.000000	99.475408 
3732.000000	99.467309 
3731.000000	99.462719 
3730.000000	99.462929 
3729.000000	99.464750 
3728.000000	99.465819 
3727.000000	99.466978 
3726.000000	99.469737 
3725.000000	99.473366 
3724.000000	99.475548 
3723.000000	99.475083 
3722.000000	99.472352 
3721.000000	99.467720 
3720.000000	99.460883 
3719.000000	99.453909 
3718.000000	99.451945 
3717.000000	99.457803 
3716.000000	99.467138 
3715.000000	99.471471 
3714.000000	99.467996 
3713.000000	99.461131 
3712.000000	99.456055 
3711.000000	99.451313 
3710.000000	99.443065 
3709.000000	99.429589 
3708.000000	99.412192 
3707.000000	99.394580 
3706.000000	99.378777 
3705.000000	99.365940 
3704.000000	99.354857 
3703.000000	99.344155 
3702.000000	99.332044 
3701.000000	99.318823 
3700.000000	99.305541 
3699.000000	99.292763 
3698.000000	99.280922 
3697.000000	99.271681 
3696.000000	99.266859 
3695.000000	99.265991 
3694.000000	99.267038 
3693.000000	99.266377 
3692.000000	99.261190 
3691.000000	99.248488 
3690.000000	99.228818 
3689.000000	99.208096 
3688.000000	99.195100 
3687.000000	99.192528 
3686.000000	99.194701 
3685.000000	99.196107 
3684.000000	99.195713 
3683.000000	99.196237 
3682.000000	99.197911 
3681.000000	99.198019 
3680.000000	99.193560 
3679.000000	99.184439 
3678.000000	99.172006 
3677.000000	99.157895 
3676.000000	99.143682 
3675.000000	99.133977 
3674.000000	99.132672 
3673.000000	99.133760 
3672.000000	99.129497 
3671.000000	99.120299 
3670.000000	99.111310 
3669.000000	99.105962 
3668.000000	99.103499 
3667.000000	99.099750 
3666.000000	99.092907 
3665.000000	99.084889 
3664.000000	99.077930 
3663.000000	99.072384 
3662.000000	99.067612 
3661.000000	99.063231 
3660.000000	99.059676 
3659.000000	99.057750 
3658.000000	99.058081 
3657.000000	99.060741 
3656.000000	99.065201 
3655.000000	99.071048 
3654.000000	99.076543 
3653.000000	99.079656 
3652.000000	99.081147 
3651.000000	99.083057 
3650.000000	99.084005 
3649.000000	99.081284 
3648.000000	99.077303 
3647.000000	99.076326 
3646.000000	99.078355 
3645.000000	99.080771 
3644.000000	99.082149 
3643.000000	99.083259 
3642.000000	99.085036 
3641.000000	99.086814 
3640.000000	99.087198 
3639.000000	99.085908 
3638.000000	99.084214 
3637.000000	99.083542 
3636.000000	99.083857 
3635.000000	99.083839 
3634.000000	99.081914 
3633.000000	99.077829 
3632.000000	99.073060 
3631.000000	99.070867 
3630.000000	99.073510 
3629.000000	99.077994 
3628.000000	99.079679 
3627.000000	99.077941 
3626.000000	99.073707 
3625.000000	99.068490 
3624.000000	99.063922 
3623.000000	99.060100 
3622.000000	99.056014 
3621.000000	99.051360 
3620.000000	99.047370 
3619.000000	99.045845 
3618.000000	99.047858 
3617.000000	99.053264 
3616.000000	99.061150 
3615.000000	99.070424 
3614.000000	99.079240 
3613.000000	99.085175 
3612.000000	99.086900 
3611.000000	99.085029 
3610.000000	99.082027 
3609.000000	99.079917 
3608.000000	99.078414 
3607.000000	99.076424 
3606.000000	99.073785 
3605.000000	99.071846 
3604.000000	99.072054 
3603.000000	99.074865 
3602.000000	99.078671 
3601.000000	99.080801 
3600.000000	99.079741 
3599.000000	99.076171 
3598.000000	99.072540 
3597.000000	99.071038 
3596.000000	99.072214 
3595.000000	99.074412 
3594.000000	99.075508 
3593.000000	99.074288 
3592.000000	99.071140 
3591.000000	99.066932 
3590.000000	99.062971 
3589.000000	99.060566 
3588.000000	99.060551 
3587.000000	99.062631 
3586.000000	99.065252 
3585.000000	99.066696 
3584.000000	99.066286 
3583.000000	99.064869 
3582.000000	99.063469 
3581.000000	99.062343 
3580.000000	99.060863 
3579.000000	99.058332 
3578.000000	99.054914 
3577.000000	99.051368 
3576.000000	99.048471 
3575.000000	99.046165 
3574.000000	99.043950 
3573.000000	99.041234 
3572.000000	99.037941 
3571.000000	99.034272 
3570.000000	99.030742 
3569.000000	99.027954 
3568.000000	99.026422 
3567.000000	99.026083 
3566.000000	99.026183 
3565.000000	99.025531 
3564.000000	99.023399 
3563.000000	99.020021 
3562.000000	99.016367 
3561.000000	99.013346 
3560.000000	99.011147 
3559.000000	99.009235 
3558.000000	99.007023 
3557.000000	99.004419 
3556.000000	99.001783 
3555.000000	98.999422 
3554.000000	98.997351 
3553.000000	98.995396 
3552.000000	98.993367 
3551.000000	98.991052 
3550.000000	98.988324 
3549.000000	98.985403 
3548.000000	98.982794 
3547.000000	98.980750 
3546.000000	98.978964 
3545.000000	98.976974 
3544.000000	98.974758 
3543.000000	98.972615 
3542.000000	98.970677 
3541.000000	98.968810 
3540.000000	98.966872 
3539.000000	98.964845 
3538.000000	98.962780 
3537.000000	98.960709 
3536.000000	98.958630 
3535.000000	98.956519 
3534.000000	98.954356 
3533.000000	98.952171 
3532.000000	98.950045 
3531.000000	98.948041 
3530.000000	98.946125 
3529.000000	98.944157 
3528.000000	98.942013 
3527.000000	98.939672 
3526.000000	98.937240 
3525.000000	98.934904 
3524.000000	98.932819 
3523.000000	98.931018 
3522.000000	98.929384 
3521.000000	98.927715 
3520.000000	98.925913 
3519.000000	98.924011 
3518.000000	98.922024 
3517.000000	98.919861 
3516.000000	98.917447 
3515.000000	98.914881 
3514.000000	98.912404 
3513.000000	98.910170 
3512.000000	98.908130 
3511.000000	98.906098 
3510.000000	98.903925 
3509.000000	98.901617 
3508.000000	98.899284 
3507.000000	98.897000 
3506.000000	98.894743 
3505.000000	98.892451 
3504.000000	98.890111 
3503.000000	98.887765 
3502.000000	98.885459 
3501.000000	98.883180 
3500.000000	98.880877 
3499.000000	98.878519 
3498.000000	98.876128 
3497.000000	98.873726 
3496.000000	98.871300 
3495.000000	98.868819 
3494.000000	98.866299 
3493.000000	98.863830 
3492.000000	98.861496 
3491.000000	98.859272 
3490.000000	98.857047 
3489.000000	98.854744 
3488.000000	98.852361 
3487.000000	98.849904 
3486.000000	98.847348 
3485.000000	98.844730 
3484.000000	98.842172 
3483.000000	98.839750 
3482.000000	98.837410 
3481.000000	98.835070 
3480.000000	98.832752 
3479.000000	98.830516 
3478.000000	98.828289 
3477.000000	98.825873 
3476.000000	98.823137 
3475.000000	98.820201 
3474.000000	98.817385 
3473.000000	98.814934 
3472.000000	98.812796 
3471.000000	98.810676 
3470.000000	98.808310 
3469.000000	98.805745 
3468.000000	98.803371 
3467.000000	98.801604 
3466.000000	98.800463 
3465.000000	98.799453 
3464.000000	98.797905 
3463.000000	98.795478 
3462.000000	98.792348 
3461.000000	98.789042 
3460.000000	98.786037 
3459.000000	98.783424 
3458.000000	98.780880 
3457.000000	98.777990 
3456.000000	98.774677 
3455.000000	98.771372 
3454.000000	98.768761 
3453.000000	98.767348 
3452.000000	98.767142 
3451.000000	98.767574 
3450.000000	98.767746 
3449.000000	98.766943 
3448.000000	98.765008 
3447.000000	98.762293 
3446.000000	98.759274 
3445.000000	98.756284 
3444.000000	98.753578 
3443.000000	98.751380 
3442.000000	98.749655 
3441.000000	98.748031 
3440.000000	98.746145 
3439.000000	98.743957 
3438.000000	98.741620 
3437.000000	98.739176 
3436.000000	98.736697 
3435.000000	98.734627 
3434.000000	98.733578 
3433.000000	98.733614 
3432.000000	98.733985 
3431.000000	98.733825 
3430.000000	98.732980 
3429.000000	98.731901 
3428.000000	98.730851 
3427.000000	98.729606 
3426.000000	98.728069 
3425.000000	98.726727 
3424.000000	98.726116 
3423.000000	98.726019 
3422.000000	98.725625 
3421.000000	98.724513 
3420.000000	98.723094 
3419.000000	98.722003 
3418.000000	98.721367 
3417.000000	98.720899 
3416.000000	98.720386 
3415.000000	98.719791 
3414.000000	98.719011 
3413.000000	98.717877 
3412.000000	98.716447 
3411.000000	98.715101 
3410.000000	98.714225 
3409.000000	98.713896 
3408.000000	98.713852 
3407.000000	98.713688 
3406.000000	98.713149 
3405.000000	98.712242 
3404.000000	98.711178 
3403.000000	98.710224 
3402.000000	98.709545 
3401.000000	98.709153 
3400.000000	98.708975 
3399.000000	98.708910 
3398.000000	98.708844 
3397.000000	98.708684 
3396.000000	98.708428 
3395.000000	98.708182 
3394.000000	98.708042 
3393.000000	98.707969 
3392.000000	98.707819 
3391.000000	98.707505 
3390.000000	98.707116 
3389.000000	98.706864 
3388.000000	98.706915 
3387.000000	98.707286 
3386.000000	98.707855 
3385.000000	98.708389 
3384.000000	98.708621 
3383.000000	98.708434 
3382.000000	98.708051 
3381.000000	98.707934 
3380.000000	98.708323 
3379.000000	98.708988 
3378.000000	98.709571 
3377.000000	98.710133 
3376.000000	98.711054 
3375.000000	98.712389 
3374.000000	98.713591 
3373.000000	98.714033 
3372.000000	98.713682 
3371.000000	98.713218 
3370.000000	98.713452 
3369.000000	98.714662 
3368.000000	98.716524 
3367.000000	98.718434 
3366.000000	98.719934 
3365.000000	98.720929 
3364.000000	98.721637 
3363.000000	98.722366 
3362.000000	98.723256 
3361.000000	98.724217 
3360.000000	98.725123 
3359.000000	98.726014 
3358.000000	98.727038 
3357.000000	98.728235 
3356.000000	98.729464 
3355.000000	98.730604 
3354.000000	98.731785 
3353.000000	98.733356 
3352.000000	98.735601 
3351.000000	98.738471 
3350.000000	98.741526 
3349.000000	98.744137 
3348.000000	98.745902 
3347.000000	98.746998 
3346.000000	98.748064 
3345.000000	98.749592 
3344.000000	98.751400 
3343.000000	98.752864 
3342.000000	98.753685 
3341.000000	98.754254 
3340.000000	98.755152 
3339.000000	98.756427 
3338.000000	98.757694 
3337.000000	98.758740 
3336.000000	98.759769 
3335.000000	98.761061 
3334.000000	98.762632 
3333.000000	98.764284 
3332.000000	98.765867 
3331.000000	98.767400 
3330.000000	98.768976 
3329.000000	98.770633 
3328.000000	98.772340 
3327.000000	98.774055 
3326.000000	98.775752 
3325.000000	98.777405 
3324.000000	98.778965 
3323.000000	98.780402 
3322.000000	98.781751 
3321.000000	98.783098 
3320.000000	98.784513 
3319.000000	98.786002 
3318.000000	98.787531 
3317.000000	98.789061 
3316.000000	98.790566 
3315.000000	98.792039 
3314.000000	98.793482 
3313.000000	98.794904 
3312.000000	98.796315 
3311.000000	98.797719 
3310.000000	98.799118 
3309.000000	98.800508 
3308.000000	98.801884 
3307.000000	98.803242 
3306.000000	98.804586 
3305.000000	98.805921 
3304.000000	98.807259 
3303.000000	98.808610 
3302.000000	98.809978 
3301.000000	98.811362 
3300.000000	98.812749 
3299.000000	98.814131 
3298.000000	98.815499 
3297.000000	98.816852 
3296.000000	98.818199 
3295.000000	98.819554 
3294.000000	98.820928 
3293.000000	98.822325 
3292.000000	98.823737 
3291.000000	98.825146 
3290.000000	98.826520 
3289.000000	98.827835 
3288.000000	98.829093 
3287.000000	98.830320 
3286.000000	98.831533 
3285.000000	98.832719 
3284.000000	98.833863 
3283.000000	98.834981 
3282.000000	98.836126 
3281.000000	98.837342 
3280.000000	98.838621 
3279.000000	98.839903 
3278.000000	98.841142 
3277.000000	98.842359 
3276.000000	98.843607 
3275.000000	98.844900 
3274.000000	98.846203 
3273.000000	98.847489 
3272.000000	98.848774 
3271.000000	98.850084 
3270.000000	98.851415 
3269.000000	98.852729 
3268.000000	98.853983 
3267.000000	98.855169 
3266.000000	98.856337 
3265.000000	98.857571 
3264.000000	98.858919 
3263.000000	98.860362 
3262.000000	98.861821 
3261.000000	98.863233 
3260.000000	98.864589 
3259.000000	98.865894 
3258.000000	98.867144 
3257.000000	98.868371 
3256.000000	98.869671 
3255.000000	98.871106 
3254.000000	98.872600 
3253.000000	98.874020 
3252.000000	98.875344 
3251.000000	98.876693 
3250.000000	98.878158 
3249.000000	98.879684 
3248.000000	98.881141 
3247.000000	98.882475 
3246.000000	98.883751 
3245.000000	98.885066 
3244.000000	98.886448 
3243.000000	98.887831 
3242.000000	98.889144 
3241.000000	98.890404 
3240.000000	98.891708 
3239.000000	98.893150 
3238.000000	98.894772 
3237.000000	98.896569 
3236.000000	98.898497 
3235.000000	98.900423 
3234.000000	98.902142 
3233.000000	98.903511 
3232.000000	98.904572 
3231.000000	98.905562 
3230.000000	98.906707 
3229.000000	98.908035 
3228.000000	98.909478 
3227.000000	98.911101 
3226.000000	98.913126 
3225.000000	98.915620 
3224.000000	98.918240 
3223.000000	98.920458 
3222.000000	98.922065 
3221.000000	98.923330 
3220.000000	98.924675 
3219.000000	98.926190 
3218.000000	98.927652 
3217.000000	98.928918 
3216.000000	98.930124 
3215.000000	98.931530 
3214.000000	98.933295 
3213.000000	98.935383 
3212.000000	98.937575 
3211.000000	98.939568 
3210.000000	98.941166 
3209.000000	98.942451 
3208.000000	98.943713 
3207.000000	98.945129 
3206.000000	98.946602 
3205.000000	98.947994 
3204.000000	98.949448 
3203.000000	98.951281 
3202.000000	98.953555 
3201.000000	98.955884 
3200.000000	98.957822 
3199.000000	98.959424 
3198.000000	98.961256 
3197.000000	98.963739 
3196.000000	98.966607 
3195.000000	98.969130 
3194.000000	98.970915 
3193.000000	98.972283 
3192.000000	98.973821 
3191.000000	98.975663 
3190.000000	98.977338 
3189.000000	98.978337 
3188.000000	98.978742 
3187.000000	98.979323 
3186.000000	98.980930 
3185.000000	98.983780 
3184.000000	98.987264 
3183.000000	98.990533 
3182.000000	98.993316 
3181.000000	98.995842 
3180.000000	98.998103 
3179.000000	98.999725 
3178.000000	99.000682 
3177.000000	99.001720 
3176.000000	99.003676 
3175.000000	99.006672 
3174.000000	99.010236 
3173.000000	99.013894 
3172.000000	99.017262 
3171.000000	99.019815 
3170.000000	99.021166 
3169.000000	99.021577 
3168.000000	99.021815 
3167.000000	99.022405 
3166.000000	99.023317 
3165.000000	99.024354 
3164.000000	99.025441 
3163.000000	99.026520 
3162.000000	99.027524 
3161.000000	99.028532 
3160.000000	99.029749 
3159.000000	99.031271 
3158.000000	99.033063 
3157.000000	99.035119 
3156.000000	99.037411 
3155.000000	99.039715 
3154.000000	99.041735 
3153.000000	99.043479 
3152.000000	99.045237 
3151.000000	99.047123 
3150.000000	99.048853 
3149.000000	99.050109 
3148.000000	99.050951 
3147.000000	99.051802 
3146.000000	99.053108 
3145.000000	99.055012 
3144.000000	99.057299 
3143.000000	99.059479 
3142.000000	99.061117 
3141.000000	99.062160 
3140.000000	99.062951 
3139.000000	99.063960 
3138.000000	99.065394 
3137.000000	99.067100 
3136.000000	99.068713 
3135.000000	99.069932 
3134.000000	99.070730 
3133.000000	99.071390 
3132.000000	99.072285 
3131.000000	99.073533 
3130.000000	99.074961 
3129.000000	99.076395 
3128.000000	99.077876 
3127.000000	99.079543 
3126.000000	99.081419 
3125.000000	99.083385 
3124.000000	99.085264 
3123.000000	99.086880 
3122.000000	99.088122 
3121.000000	99.089074 
3120.000000	99.090023 
3119.000000	99.091204 
3118.000000	99.092598 
3117.000000	99.094061 
3116.000000	99.095557 
3115.000000	99.097125 
3114.000000	99.098686 
3113.000000	99.100089 
3112.000000	99.101364 
3111.000000	99.102724 
3110.000000	99.104252 
3109.000000	99.105778 
3108.000000	99.107166 
3107.000000	99.108546 
3106.000000	99.110082 
3105.000000	99.111568 
3104.000000	99.112469 
3103.000000	99.112433 
3102.000000	99.111763 
3101.000000	99.111251 
3100.000000	99.111464 
3099.000000	99.112351 
3098.000000	99.113643 
3097.000000	99.115468 
3096.000000	99.118197 
3095.000000	99.121631 
3094.000000	99.124766 
3093.000000	99.126628 
3092.000000	99.127079 
3091.000000	99.126554 
3090.000000	99.125379 
3089.000000	99.123706 
3088.000000	99.121900 
3087.000000	99.120685 
3086.000000	99.120903 
3085.000000	99.122961 
3084.000000	99.126013 
3083.000000	99.127954 
3082.000000	99.127266 
3081.000000	99.125142 
3080.000000	99.124630 
3079.000000	99.127061 
3078.000000	99.130607 
3077.000000	99.133148 
3076.000000	99.135059 
3075.000000	99.137682 
3074.000000	99.140385 
3073.000000	99.141219 
3072.000000	99.139856 
3071.000000	99.137935 
3070.000000	99.136705 
3069.000000	99.136146 
3068.000000	99.136291 
3067.000000	99.137552 
3066.000000	99.139364 
3065.000000	99.140095 
3064.000000	99.138860 
3063.000000	99.136301 
3062.000000	99.133330 
3061.000000	99.130245 
3060.000000	99.127430 
3059.000000	99.125921 
3058.000000	99.126790 
3057.000000	99.130296 
3056.000000	99.135348 
3055.000000	99.139175 
3054.000000	99.138433 
3053.000000	99.132341 
3052.000000	99.124682 
3051.000000	99.120853 
3050.000000	99.122244 
3049.000000	99.124895 
3048.000000	99.124186 
3047.000000	99.119269 
3046.000000	99.112215 
3045.000000	99.104803 
3044.000000	99.097956 
3043.000000	99.093266 
3042.000000	99.092558 
3041.000000	99.095169 
3040.000000	99.097048 
3039.000000	99.093761 
3038.000000	99.084249 
3037.000000	99.071201 
3036.000000	99.057980 
3035.000000	99.045709 
3034.000000	99.033478 
3033.000000	99.020566 
3032.000000	99.007581 
3031.000000	98.995673 
3030.000000	98.985381 
3029.000000	98.976190 
3028.000000	98.966337 
3027.000000	98.953009 
3026.000000	98.934215 
3025.000000	98.911397 
3024.000000	98.889090 
3023.000000	98.870614 
3022.000000	98.854818 
3021.000000	98.838384 
3020.000000	98.820321 
3019.000000	98.802248 
3018.000000	98.784602 
3017.000000	98.764934 
3016.000000	98.740943 
3015.000000	98.713764 
3014.000000	98.687316 
3013.000000	98.664947 
3012.000000	98.646961 
3011.000000	98.630463 
3010.000000	98.611242 
3009.000000	98.586752 
3008.000000	98.557864 
3007.000000	98.527475 
3006.000000	98.497599 
3005.000000	98.468679 
3004.000000	98.441337 
3003.000000	98.416968 
3002.000000	98.395991 
3001.000000	98.376896 
3000.000000	98.357858 
2999.000000	98.338303 
2998.000000	98.318330 
2997.000000	98.297910 
2996.000000	98.277401 
2995.000000	98.257156 
2994.000000	98.235031 
2993.000000	98.205788 
2992.000000	98.165846 
2991.000000	98.119088 
2990.000000	98.076124 
2989.000000	98.046781 
2988.000000	98.034033 
2987.000000	98.034665 
2986.000000	98.043602 
2985.000000	98.056628 
2984.000000	98.070228 
2983.000000	98.081202 
2982.000000	98.087571 
2981.000000	98.089380 
2980.000000	98.087863 
2979.000000	98.083628 
2978.000000	98.076064 
2977.000000	98.064810 
2976.000000	98.051548 
2975.000000	98.039761 
2974.000000	98.032549 
2973.000000	98.031031 
2972.000000	98.034681 
2971.000000	98.042330 
2970.000000	98.052475 
2969.000000	98.063524 
2968.000000	98.074721 
2967.000000	98.086540 
2966.000000	98.099444 
2965.000000	98.112600 
2964.000000	98.124597 
2963.000000	98.135133 
2962.000000	98.145111 
2961.000000	98.155243 
2960.000000	98.165646 
2959.000000	98.176972 
2958.000000	98.190827 
2957.000000	98.208207 
2956.000000	98.227712 
2955.000000	98.245889 
2954.000000	98.259745 
2953.000000	98.269265 
2952.000000	98.277541 
2951.000000	98.287902 
2950.000000	98.300350 
2949.000000	98.311215 
2948.000000	98.316820 
2947.000000	98.316912 
2946.000000	98.314090 
2945.000000	98.310727 
2944.000000	98.307599 
2943.000000	98.305006 
2942.000000	98.303084 
2941.000000	98.300430 
2940.000000	98.294474 
2939.000000	98.284595 
2938.000000	98.273646 
2937.000000	98.265031 
2936.000000	98.258796 
2935.000000	98.251674 
2934.000000	98.240537 
2933.000000	98.224833 
2932.000000	98.206301 
2931.000000	98.187678 
2930.000000	98.171591 
2929.000000	98.159312 
2928.000000	98.149802 
2927.000000	98.140513 
2926.000000	98.129701 
2925.000000	98.118160 
2924.000000	98.108676 
2923.000000	98.103893 
2922.000000	98.104438 
2921.000000	98.108804 
2920.000000	98.115200 
2919.000000	98.123461 
2918.000000	98.134395 
2917.000000	98.146912 
2916.000000	98.156995 
2915.000000	98.161043 
2914.000000	98.160118 
2913.000000	98.159460 
2912.000000	98.163339 
2911.000000	98.171243 
2910.000000	98.179445 
2909.000000	98.185379 
2908.000000	98.189522 
2907.000000	98.193237 
2906.000000	98.195670 
2905.000000	98.193493 
2904.000000	98.184301 
2903.000000	98.170927 
2902.000000	98.161915 
2901.000000	98.166013 
2900.000000	98.185452 
2899.000000	98.214321 
2898.000000	98.243303 
2897.000000	98.266271 
2896.000000	98.282139 
2895.000000	98.292279 
2894.000000	98.298686 
2893.000000	98.304345 
2892.000000	98.312529 
2891.000000	98.323979 
2890.000000	98.335857 
2889.000000	98.345029 
2888.000000	98.351736 
2887.000000	98.358660 
2886.000000	98.367017 
2885.000000	98.375644 
2884.000000	98.384160 
2883.000000	98.394756 
2882.000000	98.409435 
2881.000000	98.426925 
2880.000000	98.444160 
2879.000000	98.460253 
2878.000000	98.476962 
2877.000000	98.495070 
2876.000000	98.512223 
2875.000000	98.525417 
2874.000000	98.534395 
2873.000000	98.541424 
2872.000000	98.548526 
2871.000000	98.556210 
2870.000000	98.564547 
2869.000000	98.573897 
2868.000000	98.584184 
2867.000000	98.594534 
2866.000000	98.604166 
2865.000000	98.613056 
2864.000000	98.621624 
2863.000000	98.630609 
2862.000000	98.641313 
2861.000000	98.654621 
2860.000000	98.669121 
2859.000000	98.681494 
2858.000000	98.689960 
2857.000000	98.696526 
2856.000000	98.704591 
2855.000000	98.715025 
2854.000000	98.725844 
2853.000000	98.735331 
2852.000000	98.744246 
2851.000000	98.754858 
2850.000000	98.768942 
2849.000000	98.787058 
2848.000000	98.808712 
2847.000000	98.832460 
2846.000000	98.856228 
2845.000000	98.878274 
2844.000000	98.898116 
2843.000000	98.916494 
2842.000000	98.934363 
2841.000000	98.951670 
2840.000000	98.967023 
2839.000000	98.978908 
2838.000000	98.987430 
2837.000000	98.994535 
2836.000000	99.002264 
2835.000000	99.011208 
2834.000000	99.021057 
2833.000000	99.031939 
2832.000000	99.044113 
2831.000000	99.056436 
2830.000000	99.066232 
2829.000000	99.071311 
2828.000000	99.071971 
2827.000000	99.071039 
2826.000000	99.072155 
2825.000000	99.077551 
2824.000000	99.086549 
2823.000000	99.095835 
2822.000000	99.101850 
2821.000000	99.103503 
2820.000000	99.102645 
2819.000000	99.101992 
2818.000000	99.102908 
2817.000000	99.105227 
2816.000000	99.108451 
2815.000000	99.112364 
2814.000000	99.116469 
2813.000000	99.119448 
2812.000000	99.119845 
2811.000000	99.117606 
2810.000000	99.114844 
2809.000000	99.114543 
2808.000000	99.118143 
2807.000000	99.124550 
2806.000000	99.131554 
2805.000000	99.137670 
2804.000000	99.142284 
2803.000000	99.144879 
2802.000000	99.145415 
2801.000000	99.145385 
2800.000000	99.147176 
2799.000000	99.151650 
2798.000000	99.156912 
2797.000000	99.160057 
2796.000000	99.159871 
2795.000000	99.157543 
2794.000000	99.155299 
2793.000000	99.154757 
2792.000000	99.156222 
2791.000000	99.158811 
2790.000000	99.161080 
2789.000000	99.161983 
2788.000000	99.161654 
2787.000000	99.161300 
2786.000000	99.162218 
2785.000000	99.164755 
2784.000000	99.168123 
2783.000000	99.171175 
2782.000000	99.173338 
2781.000000	99.174881 
2780.000000	99.176348 
2779.000000	99.177934 
2778.000000	99.179435 
2777.000000	99.180584 
2776.000000	99.181325 
2775.000000	99.181880 
2774.000000	99.182605 
2773.000000	99.183705 
2772.000000	99.185072 
2771.000000	99.186441 
2770.000000	99.187734 
2769.000000	99.189154 
2768.000000	99.190882 
2767.000000	99.192769 
2766.000000	99.194460 
2765.000000	99.195797 
2764.000000	99.196931 
2763.000000	99.198014 
2762.000000	99.198982 
2761.000000	99.199698 
2760.000000	99.200218 
2759.000000	99.200799 
2758.000000	99.201683 
2757.000000	99.202865 
2756.000000	99.204073 
2755.000000	99.205038 
2754.000000	99.205771 
2753.000000	99.206529 
2752.000000	99.207509 
2751.000000	99.208653 
2750.000000	99.209811 
2749.000000	99.210948 
2748.000000	99.212043 
2747.000000	99.212906 
2746.000000	99.213357 
2745.000000	99.213514 
2744.000000	99.213776 
2743.000000	99.214419 
2742.000000	99.215379 
2741.000000	99.216398 
2740.000000	99.217295 
2739.000000	99.218072 
2738.000000	99.218790 
2737.000000	99.219499 
2736.000000	99.220261 
2735.000000	99.221118 
2734.000000	99.222037 
2733.000000	99.222948 
2732.000000	99.223815 
2731.000000	99.224659 
2730.000000	99.225513 
2729.000000	99.226387 
2728.000000	99.227257 
2727.000000	99.228070 
2726.000000	99.228787 
2725.000000	99.229433 
2724.000000	99.230080 
2723.000000	99.230771 
2722.000000	99.231487 
2721.000000	99.232198 
2720.000000	99.232905 
2719.000000	99.233629 
2718.000000	99.234380 
2717.000000	99.235144 
2716.000000	99.235900 
2715.000000	99.236636 
2714.000000	99.237363 
2713.000000	99.238093 
2712.000000	99.238821 
2711.000000	99.239528 
2710.000000	99.240206 
2709.000000	99.240865 
2708.000000	99.241523 
2707.000000	99.242188 
2706.000000	99.242857 
2705.000000	99.243520 
2704.000000	99.244168 
2703.000000	99.244789 
2702.000000	99.245376 
2701.000000	99.245950 
2700.000000	99.246546 
2699.000000	99.247183 
2698.000000	99.247853 
2697.000000	99.248500 
2696.000000	99.249054 
2695.000000	99.249487 
2694.000000	99.249842 
2693.000000	99.250195 
2692.000000	99.250566 
2691.000000	99.250918 
2690.000000	99.251206 
2689.000000	99.251441 
2688.000000	99.251666 
2687.000000	99.251889 
2686.000000	99.252094 
2685.000000	99.252302 
2684.000000	99.252559 
2683.000000	99.252859 
2682.000000	99.253119 
2681.000000	99.253278 
2680.000000	99.253380 
2679.000000	99.253533 
2678.000000	99.253798 
2677.000000	99.254154 
2676.000000	99.254513 
2675.000000	99.254720 
2674.000000	99.254628 
2673.000000	99.254261 
2672.000000	99.253863 
2671.000000	99.253677 
2670.000000	99.253701 
2669.000000	99.253765 
2668.000000	99.253787 
2667.000000	99.253846 
2666.000000	99.253961 
2665.000000	99.253978 
2664.000000	99.253781 
2663.000000	99.253514 
2662.000000	99.253461 
2661.000000	99.253681 
2660.000000	99.253894 
2659.000000	99.253776 
2658.000000	99.253298 
2657.000000	99.252731 
2656.000000	99.252372 
2655.000000	99.252279 
2654.000000	99.252271 
2653.000000	99.252161 
2652.000000	99.251960 
2651.000000	99.251875 
2650.000000	99.252101 
2649.000000	99.252632 
2648.000000	99.253278 
2647.000000	99.253796 
2646.000000	99.254016 
2645.000000	99.253876 
2644.000000	99.253455 
2643.000000	99.253011 
2642.000000	99.252851 
2641.000000	99.253103 
2640.000000	99.253628 
2639.000000	99.254175 
2638.000000	99.254607 
2637.000000	99.254925 
2636.000000	99.255157 
2635.000000	99.255342 
2634.000000	99.255599 
2633.000000	99.256068 
2632.000000	99.256731 
2631.000000	99.257366 
2630.000000	99.257776 
2629.000000	99.257985 
2628.000000	99.258138 
2627.000000	99.258313 
2626.000000	99.258521 
2625.000000	99.258840 
2624.000000	99.259385 
2623.000000	99.260132 
2622.000000	99.260865 
2621.000000	99.261305 
2620.000000	99.261272 
2619.000000	99.260766 
2618.000000	99.260058 
2617.000000	99.259659 
2616.000000	99.259941 
2615.000000	99.260816 
2614.000000	99.261779 
2613.000000	99.262395 
2612.000000	99.262707 
2611.000000	99.263050 
2610.000000	99.263659 
2609.000000	99.264491 
2608.000000	99.265322 
2607.000000	99.265931 
2606.000000	99.266275 
2605.000000	99.266532 
2604.000000	99.266851 
2603.000000	99.267076 
2602.000000	99.266924 
2601.000000	99.266444 
2600.000000	99.266022 
2599.000000	99.265875 
2598.000000	99.265837 
2597.000000	99.265753 
2596.000000	99.265762 
2595.000000	99.265932 
2594.000000	99.266020 
2593.000000	99.265973 
2592.000000	99.266284 
2591.000000	99.267344 
2590.000000	99.268694 
2589.000000	99.269440 
2588.000000	99.269446 
2587.000000	99.269534 
2586.000000	99.270412 
2585.000000	99.271878 
2584.000000	99.273188 
2583.000000	99.273856 
2582.000000	99.273879 
2581.000000	99.273540 
2580.000000	99.273258 
2579.000000	99.273485 
2578.000000	99.274483 
2577.000000	99.276073 
2576.000000	99.277621 
2575.000000	99.278392 
2574.000000	99.278079 
2573.000000	99.277102 
2572.000000	99.276277 
2571.000000	99.275933 
2570.000000	99.275613 
2569.000000	99.274836 
2568.000000	99.273935 
2567.000000	99.273742 
2566.000000	99.274486 
2565.000000	99.275489 
2564.000000	99.275995 
2563.000000	99.275959 
2562.000000	99.275852 
2561.000000	99.276095 
2560.000000	99.276946 
2559.000000	99.278554 
2558.000000	99.280680 
2557.000000	99.282554 
2556.000000	99.283492 
2555.000000	99.283590 
2554.000000	99.283540 
2553.000000	99.283781 
2552.000000	99.284141 
2551.000000	99.284436 
2550.000000	99.284905 
2549.000000	99.285665 
2548.000000	99.286118 
2547.000000	99.285525 
2546.000000	99.284094 
2545.000000	99.282994 
2544.000000	99.282978 
2543.000000	99.283578 
2542.000000	99.283861 
2541.000000	99.283711 
2540.000000	99.283855 
2539.000000	99.284751 
2538.000000	99.286017 
2537.000000	99.286987 
2536.000000	99.287483 
2535.000000	99.287737 
2534.000000	99.287833 
2533.000000	99.287606 
2532.000000	99.287055 
2531.000000	99.286507 
2530.000000	99.286263 
2529.000000	99.286261 
2528.000000	99.286215 
2527.000000	99.286022 
2526.000000	99.285933 
2525.000000	99.286243 
2524.000000	99.286927 
2523.000000	99.287670 
2522.000000	99.288198 
2521.000000	99.288506 
2520.000000	99.288762 
2519.000000	99.289089 
2518.000000	99.289481 
2517.000000	99.289837 
2516.000000	99.290049 
2515.000000	99.290072 
2514.000000	99.289994 
2513.000000	99.290040 
2512.000000	99.290376 
2511.000000	99.290974 
2510.000000	99.291666 
2509.000000	99.292295 
2508.000000	99.292805 
2507.000000	99.293189 
2506.000000	99.293477 
2505.000000	99.293781 
2504.000000	99.294237 
2503.000000	99.294870 
2502.000000	99.295541 
2501.000000	99.296072 
2500.000000	99.296429 
2499.000000	99.296701 
2498.000000	99.296971 
2497.000000	99.297246 
2496.000000	99.297542 
2495.000000	99.297927 
2494.000000	99.298432 
2493.000000	99.298978 
2492.000000	99.299453 
2491.000000	99.299849 
2490.000000	99.300270 
2489.000000	99.300800 
2488.000000	99.301386 
2487.000000	99.301873 
2486.000000	99.302179 
2485.000000	99.302389 
2484.000000	99.302681 
2483.000000	99.303163 
2482.000000	99.303809 
2481.000000	99.304505 
2480.000000	99.305139 
2479.000000	99.305635 
2478.000000	99.305980 
2477.000000	99.306209 
2476.000000	99.306309 
2475.000000	99.306144 
2474.000000	99.305599 
2473.000000	99.304828 
2472.000000	99.304215 
2471.000000	99.304009 
2470.000000	99.304150 
2469.000000	99.304486 
2468.000000	99.304920 
2467.000000	99.305266 
2466.000000	99.305191 
2465.000000	99.304546 
2464.000000	99.303736 
2463.000000	99.303545 
2462.000000	99.304555 
2461.000000	99.306768 
2460.000000	99.309498 
2459.000000	99.311692 
2458.000000	99.312501 
2457.000000	99.311729 
2456.000000	99.309880 
2455.000000	99.307861 
2454.000000	99.306518 
2453.000000	99.306186 
2452.000000	99.306483 
2451.000000	99.306622 
2450.000000	99.306283 
2449.000000	99.306006 
2448.000000	99.306428 
2447.000000	99.307357 
2446.000000	99.307989 
2445.000000	99.307928 
2444.000000	99.307463 
2443.000000	99.306945 
2442.000000	99.306472 
2441.000000	99.306244 
2440.000000	99.306654 
2439.000000	99.307859 
2438.000000	99.309679 
2437.000000	99.311966 
2436.000000	99.314557 
2435.000000	99.316813 
2434.000000	99.317916 
2433.000000	99.317802 
2432.000000	99.317344 
2431.000000	99.317352 
2430.000000	99.317919 
2429.000000	99.318913 
2428.000000	99.320351 
2427.000000	99.321862 
2426.000000	99.322513 
2425.000000	99.321817 
2424.000000	99.320472 
2423.000000	99.319598 
2422.000000	99.319656 
2421.000000	99.320658 
2420.000000	99.322680 
2419.000000	99.325393 
2418.000000	99.327370 
2417.000000	99.327542 
2416.000000	99.327165 
2415.000000	99.328066 
2414.000000	99.329968 
2413.000000	99.331606 
2412.000000	99.333152 
2411.000000	99.335198 
2410.000000	99.336539 
2409.000000	99.335578 
2408.000000	99.333367 
2407.000000	99.332770 
2406.000000	99.334593 
2405.000000	99.336565 
2404.000000	99.336385 
2403.000000	99.334058 
2402.000000	99.331221 
2401.000000	99.329763 
2400.000000	99.331240 
2399.000000	99.336015 
2398.000000	99.342803 
2397.000000	99.349839 
2396.000000	99.356382 
2395.000000	99.361988 
2394.000000	99.365389 
2393.000000	99.366938 
2392.000000	99.368904 
2391.000000	99.373156 
2390.000000	99.378528 
2389.000000	99.383873 
2388.000000	99.388999 
2387.000000	99.393851 
2386.000000	99.398469 
2385.000000	99.402964 
2384.000000	99.407453 
2383.000000	99.412017 
2382.000000	99.416682 
2381.000000	99.421436 
2380.000000	99.426286 
2379.000000	99.431264 
2378.000000	99.436402 
2377.000000	99.441732 
2376.000000	99.447270 
2375.000000	99.453000 
2374.000000	99.458868 
2373.000000	99.464798 
2372.000000	99.470718 
2371.000000	99.476588 
2370.000000	99.482393 
2369.000000	99.488126 
2368.000000	99.493776 
2367.000000	99.499323 
2366.000000	99.504757 
2365.000000	99.510081 
2364.000000	99.515322 
2363.000000	99.520487 
2362.000000	99.525558 
2361.000000	99.530508 
2360.000000	99.535297 
2359.000000	99.539882 
2358.000000	99.544200 
2357.000000	99.548187 
2356.000000	99.551814 
2355.000000	99.555101 
2354.000000	99.558112 
2353.000000	99.560943 
2352.000000	99.563657 
2351.000000	99.566141 
2350.000000	99.568055 
2349.000000	99.569051 
2348.000000	99.569033 
2347.000000	99.568266 
2346.000000	99.567194 
2345.000000	99.566139 
2344.000000	99.565148 
2343.000000	99.564069 
2342.000000	99.562762 
2341.000000	99.561178 
2340.000000	99.559316 
2339.000000	99.557184 
2338.000000	99.554776 
2337.000000	99.552084 
2336.000000	99.549104 
2335.000000	99.545829 
2334.000000	99.542250 
2333.000000	99.538376 
2332.000000	99.534261 
2331.000000	99.529979 
2330.000000	99.525576 
2329.000000	99.521074 
2328.000000	99.516452 
2327.000000	99.511682 
2326.000000	99.506742 
2325.000000	99.501639 
2324.000000	99.496419 
2323.000000	99.491116 
2322.000000	99.485743 
2321.000000	99.480282 
2320.000000	99.474734 
2319.000000	99.469107 
2318.000000	99.463413 
2317.000000	99.457663 
2316.000000	99.451888 
2315.000000	99.446160 
2314.000000	99.440558 
2313.000000	99.435139 
2312.000000	99.429917 
2311.000000	99.424860 
2310.000000	99.419914 
2309.000000	99.415061 
2308.000000	99.410389 
2307.000000	99.405980 
2306.000000	99.401547 
2305.000000	99.396931 
2304.000000	99.391571 
2303.000000	99.386290 
2302.000000	99.383838 
2301.000000	99.384125 
2300.000000	99.384942 
2299.000000	99.384944 
2298.000000	99.382233 
2297.000000	99.377560 
2296.000000	99.371782 
2295.000000	99.367130 
2294.000000	99.364182 
2293.000000	99.362318 
2292.000000	99.360313 
2291.000000	99.357510 
2290.000000	99.354514 
2289.000000	99.351871 
2288.000000	99.350645 
2287.000000	99.350711 
2286.000000	99.351521 
2285.000000	99.351831 
2284.000000	99.351590 
2283.000000	99.351031 
2282.000000	99.350511 
2281.000000	99.349533 
2280.000000	99.347888 
2279.000000	99.345408 
2278.000000	99.342119 
2277.000000	99.338508 
2276.000000	99.335824 
2275.000000	99.336001 
2274.000000	99.339432 
2273.000000	99.345289 
2272.000000	99.352189 
2271.000000	99.358820 
2270.000000	99.363392 
2269.000000	99.364708 
2268.000000	99.363931 
2267.000000	99.363572 
2266.000000	99.364669 
2265.000000	99.366280 
2264.000000	99.367030 
2263.000000	99.366709 
2262.000000	99.365586 
2261.000000	99.363735 
2260.000000	99.361754 
2259.000000	99.360320 
2258.000000	99.359688 
2257.000000	99.359494 
2256.000000	99.359847 
2255.000000	99.361279 
2254.000000	99.363525 
2253.000000	99.365326 
2252.000000	99.365631 
2251.000000	99.364653 
2250.000000	99.363137 
2249.000000	99.361656 
2248.000000	99.360587 
2247.000000	99.360287 
2246.000000	99.360752 
2245.000000	99.361512 
2244.000000	99.362011 
2243.000000	99.362119 
2242.000000	99.362065 
2241.000000	99.362085 
2240.000000	99.362240 
2239.000000	99.362450 
2238.000000	99.362625 
2237.000000	99.362736 
2236.000000	99.362811 
2235.000000	99.362871 
2234.000000	99.362921 
2233.000000	99.362964 
2232.000000	99.362998 
2231.000000	99.363017 
2230.000000	99.363016 
2229.000000	99.362994 
2228.000000	99.362961 
2227.000000	99.362932 
2226.000000	99.362915 
2225.000000	99.362906 
2224.000000	99.362899 
2223.000000	99.362903 
2222.000000	99.362944 
2221.000000	99.363050 
2220.000000	99.363227 
2219.000000	99.363459 
2218.000000	99.363725 
2217.000000	99.364016 
2216.000000	99.364332 
2215.000000	99.364675 
2214.000000	99.365034 
2213.000000	99.365399 
2212.000000	99.365779 
2211.000000	99.366197 
2210.000000	99.366675 
2209.000000	99.367216 
2208.000000	99.367803 
2207.000000	99.368415 
2206.000000	99.369032 
2205.000000	99.369638 
2204.000000	99.370217 
2203.000000	99.370758 
2202.000000	99.371268 
2201.000000	99.371766 
2200.000000	99.372269 
2199.000000	99.372782 
2198.000000	99.373313 
2197.000000	99.373877 
2196.000000	99.374498 
2195.000000	99.375196 
2194.000000	99.375973 
2193.000000	99.376820 
2192.000000	99.377719 
2191.000000	99.378646 
2190.000000	99.379573 
2189.000000	99.380489 
2188.000000	99.381402 
2187.000000	99.382328 
2186.000000	99.383276 
2185.000000	99.384247 
2184.000000	99.385243 
2183.000000	99.386295 
2182.000000	99.387446 
2181.000000	99.388739 
2180.000000	99.390123 
2179.000000	99.391450 
2178.000000	99.392568 
2177.000000	99.393424 
2176.000000	99.394213 
2175.000000	99.395200 
2174.000000	99.396516 
2173.000000	99.398066 
2172.000000	99.399735 
2171.000000	99.401557 
2170.000000	99.403465 
2169.000000	99.405051 
2168.000000	99.405895 
2167.000000	99.406132 
2166.000000	99.406426 
2165.000000	99.407135 
2164.000000	99.407867 
2163.000000	99.408208 
2162.000000	99.408733 
2161.000000	99.410683 
2160.000000	99.414615 
2159.000000	99.419671 
2158.000000	99.424331 
2157.000000	99.427800 
2156.000000	99.430170 
2155.000000	99.431617 
2154.000000	99.432242 
2153.000000	99.432688 
2152.000000	99.433881 
2151.000000	99.435480 
2150.000000	99.435554 
2149.000000	99.432928 
2148.000000	99.429297 
2147.000000	99.427718 
2146.000000	99.428993 
2145.000000	99.431110 
2144.000000	99.432401 
2143.000000	99.433754 
2142.000000	99.436497 
2141.000000	99.439500 
2140.000000	99.440286 
2139.000000	99.438649 
2138.000000	99.437433 
2137.000000	99.439109 
2136.000000	99.442635 
2135.000000	99.444304 
2134.000000	99.441442 
2133.000000	99.434763 
2132.000000	99.428016 
2131.000000	99.424742 
2130.000000	99.425316 
2129.000000	99.427285 
2128.000000	99.428126 
2127.000000	99.427633 
2126.000000	99.427286 
2125.000000	99.427916 
2124.000000	99.428698 
2123.000000	99.428321 
2122.000000	99.426435 
2121.000000	99.423684 
2120.000000	99.420657 
2119.000000	99.417242 
2118.000000	99.413207 
2117.000000	99.409177 
2116.000000	99.406331 
2115.000000	99.404849 
2114.000000	99.403249 
2113.000000	99.400083 
2112.000000	99.396131 
2111.000000	99.393849 
2110.000000	99.394634 
2109.000000	99.397569 
2108.000000	99.400802 
2107.000000	99.403215 
2106.000000	99.404466 
2105.000000	99.404747 
2104.000000	99.405015 
2103.000000	99.406238 
2102.000000	99.407712 
2101.000000	99.407213 
2100.000000	99.403790 
2099.000000	99.399746 
2098.000000	99.398631 
2097.000000	99.401500 
2096.000000	99.406279 
2095.000000	99.410167 
2094.000000	99.412003 
2093.000000	99.412193 
2092.000000	99.411489 
2091.000000	99.410653 
2090.000000	99.410577 
2089.000000	99.411712 
2088.000000	99.413352 
2087.000000	99.414010 
2086.000000	99.412840 
2085.000000	99.410486 
2084.000000	99.408511 
2083.000000	99.407933 
2082.000000	99.408536 
2081.000000	99.409572 
2080.000000	99.410780 
2079.000000	99.412384 
2078.000000	99.414252 
2077.000000	99.415713 
2076.000000	99.416378 
2075.000000	99.416698 
2074.000000	99.417368 
2073.000000	99.418352 
2072.000000	99.418884 
2071.000000	99.418401 
2070.000000	99.417150 
2069.000000	99.415957 
2068.000000	99.415619 
2067.000000	99.416359 
2066.000000	99.417727 
2065.000000	99.418918 
2064.000000	99.419412 
2063.000000	99.419409 
2062.000000	99.419634 
2061.000000	99.420761 
2060.000000	99.422983 
2059.000000	99.426021 
2058.000000	99.429158 
2057.000000	99.431585 
2056.000000	99.432855 
2055.000000	99.432996 
2054.000000	99.432548 
2053.000000	99.432439 
2052.000000	99.433443 
2051.000000	99.435516 
2050.000000	99.437790 
2049.000000	99.439409 
2048.000000	99.440419 
2047.000000	99.441529 
2046.000000	99.443127 
2045.000000	99.444951 
2044.000000	99.446687 
2043.000000	99.448406 
2042.000000	99.450272 
2041.000000	99.452256 
2040.000000	99.454390 
2039.000000	99.456958 
2038.000000	99.460052 
2037.000000	99.463104 
2036.000000	99.465278 
2035.000000	99.466298 
2034.000000	99.466771 
2033.000000	99.467750 
2032.000000	99.469873 
2031.000000	99.472756 
2030.000000	99.475056 
2029.000000	99.475559 
2028.000000	99.474316 
2027.000000	99.472584 
2026.000000	99.471512 
2025.000000	99.471350 
2024.000000	99.472106 
2023.000000	99.474232 
2022.000000	99.478069 
2021.000000	99.482652 
2020.000000	99.485802 
2019.000000	99.485966 
2018.000000	99.483323 
2017.000000	99.479561 
2016.000000	99.476667 
2015.000000	99.475527 
2014.000000	99.475522 
2013.000000	99.475163 
2012.000000	99.473700 
2011.000000	99.472201 
2010.000000	99.472401 
2009.000000	99.474556 
2008.000000	99.476989 
2007.000000	99.477953 
2006.000000	99.477432 
2005.000000	99.476550 
2004.000000	99.476018 
2003.000000	99.475812 
2002.000000	99.475864 
2001.000000	99.476037 
2000.000000	99.475541 
1999.000000	99.473283 
1998.000000	99.469092 
1997.000000	99.464196 
1996.000000	99.460285 
1995.000000	99.458163 
1994.000000	99.457520 
1993.000000	99.457444 
1992.000000	99.457050 
1991.000000	99.456076 
1990.000000	99.455040 
1989.000000	99.454659 
1988.000000	99.454986 
1987.000000	99.455262 
1986.000000	99.454722 
1985.000000	99.453396 
1984.000000	99.451948 
1983.000000	99.450936 
1982.000000	99.450393 
1981.000000	99.450081 
1980.000000	99.449833 
1979.000000	99.449558 
1978.000000	99.449138 
1977.000000	99.448509 
1976.000000	99.447746 
1975.000000	99.447009 
1974.000000	99.446427 
1973.000000	99.446025 
1972.000000	99.445716 
1971.000000	99.445369 
1970.000000	99.444887 
1969.000000	99.444270 
1968.000000	99.443567 
1967.000000	99.442846 
1966.000000	99.442176 
1965.000000	99.441590 
1964.000000	99.441089 
1963.000000	99.440646 
1962.000000	99.440220 
1961.000000	99.439777 
1960.000000	99.439297 
1959.000000	99.438781 
1958.000000	99.438251 
1957.000000	99.437742 
1956.000000	99.437283 
1955.000000	99.436870 
1954.000000	99.436471 
1953.000000	99.436047 
1952.000000	99.435575 
1951.000000	99.435055 
1950.000000	99.434502 
1949.000000	99.433933 
1948.000000	99.433360 
1947.000000	99.432770 
1946.000000	99.432138 
1945.000000	99.431450 
1944.000000	99.430720 
1943.000000	99.429982 
1942.000000	99.429259 
1941.000000	99.428551 
1940.000000	99.427851 
1939.000000	99.427151 
1938.000000	99.426454 
1937.000000	99.425770 
1936.000000	99.425119 
1935.000000	99.424512 
1934.000000	99.423923 
1933.000000	99.423308 
1932.000000	99.422660 
1931.000000	99.422031 
1930.000000	99.421468 
1929.000000	99.420913 
1928.000000	99.420295 
1927.000000	99.419622 
1926.000000	99.418955 
1925.000000	99.418318 
1924.000000	99.417730 
1923.000000	99.417248 
1922.000000	99.416818 
1921.000000	99.416243 
1920.000000	99.415490 
1919.000000	99.414779 
1918.000000	99.414252 
1917.000000	99.413724 
1916.000000	99.412954 
1915.000000	99.412047 
1914.000000	99.411365 
1913.000000	99.411026 
1912.000000	99.410726 
1911.000000	99.410189 
1910.000000	99.409480 
1909.000000	99.408876 
1908.000000	99.408563 
1907.000000	99.408431 
1906.000000	99.408070 
1905.000000	99.407093 
1904.000000	99.405604 
1903.000000	99.404227 
1902.000000	99.403495 
1901.000000	99.403348 
1900.000000	99.403352 
1899.000000	99.403178 
1898.000000	99.402752 
1897.000000	99.402123 
1896.000000	99.401381 
1895.000000	99.400593 
1894.000000	99.399641 
1893.000000	99.398323 
1892.000000	99.396800 
1891.000000	99.395729 
1890.000000	99.395660 
1889.000000	99.396457 
1888.000000	99.397561 
1887.000000	99.398555 
1886.000000	99.399262 
1885.000000	99.399504 
1884.000000	99.399178 
1883.000000	99.398495 
1882.000000	99.397965 
1881.000000	99.398049 
1880.000000	99.398767 
1879.000000	99.399593 
1878.000000	99.399913 
1877.000000	99.399766 
1876.000000	99.399899 
1875.000000	99.400879 
1874.000000	99.402474 
1873.000000	99.403991 
1872.000000	99.405106 
1871.000000	99.405985 
1870.000000	99.406738 
1869.000000	99.407294 
1868.000000	99.407886 
1867.000000	99.408922 
1866.000000	99.410244 
1865.000000	99.411260 
1864.000000	99.411759 
1863.000000	99.412187 
1862.000000	99.413095 
1861.000000	99.414487 
1860.000000	99.415991 
1859.000000	99.417446 
1858.000000	99.418964 
1857.000000	99.420579 
1856.000000	99.422222 
1855.000000	99.423872 
1854.000000	99.425446 
1853.000000	99.426761 
1852.000000	99.427820 
1851.000000	99.428921 
1850.000000	99.430308 
1849.000000	99.431895 
1848.000000	99.433462 
1847.000000	99.434977 
1846.000000	99.436584 
1845.000000	99.438355 
1844.000000	99.440161 
1843.000000	99.441850 
1842.000000	99.443255 
1841.000000	99.444273 
1840.000000	99.445189 
1839.000000	99.446468 
1838.000000	99.448091 
1837.000000	99.449434 
1836.000000	99.450096 
1835.000000	99.450456 
1834.000000	99.451147 
1833.000000	99.452166 
1832.000000	99.453049 
1831.000000	99.453547 
1830.000000	99.453905 
1829.000000	99.454557 
1828.000000	99.455587 
1827.000000	99.456816 
1826.000000	99.458143 
1825.000000	99.459430 
1824.000000	99.460433 
1823.000000	99.461121 
1822.000000	99.461641 
1821.000000	99.462018 
1820.000000	99.462209 
1819.000000	99.462387 
1818.000000	99.462860 
1817.000000	99.463594 
1816.000000	99.464234 
1815.000000	99.464644 
1814.000000	99.465056 
1813.000000	99.465625 
1812.000000	99.466118 
1811.000000	99.466278 
1810.000000	99.466205 
1809.000000	99.466190 
1808.000000	99.466394 
1807.000000	99.466799 
1806.000000	99.467270 
1805.000000	99.467638 
1804.000000	99.467849 
1803.000000	99.468019 
1802.000000	99.468254 
1801.000000	99.468469 
1800.000000	99.468509 
1799.000000	99.468457 
1798.000000	99.468564 
1797.000000	99.468804 
1796.000000	99.468897 
1795.000000	99.468809 
1794.000000	99.468889 
1793.000000	99.469225 
1792.000000	99.469478 
1791.000000	99.469780 
1790.000000	99.470242 
1789.000000	99.470372 
1788.000000	99.470101 
1787.000000	99.470055 
1786.000000	99.470657 
1785.000000	99.471387 
1784.000000	99.471393 
1783.000000	99.470719 
1782.000000	99.470129 
1781.000000	99.470223 
1780.000000	99.471041 
1779.000000	99.472275 
1778.000000	99.473666 
1777.000000	99.474931 
1776.000000	99.475664 
1775.000000	99.475572 
1774.000000	99.474811 
1773.000000	99.473436 
1772.000000	99.471528 
1771.000000	99.470851 
1770.000000	99.472897 
1769.000000	99.476963 
1768.000000	99.481429 
1767.000000	99.484275 
1766.000000	99.484315 
1765.000000	99.482280 
1764.000000	99.479868 
1763.000000	99.478249 
1762.000000	99.477472 
1761.000000	99.477343 
1760.000000	99.477635 
1759.000000	99.477894 
1758.000000	99.478045 
1757.000000	99.478487 
1756.000000	99.479347 
1755.000000	99.479680 
1754.000000	99.478157 
1753.000000	99.474627 
1752.000000	99.470602 
1751.000000	99.467991 
1750.000000	99.467358 
1749.000000	99.467187 
1748.000000	99.465278 
1747.000000	99.461017 
1746.000000	99.455942 
1745.000000	99.452609 
1744.000000	99.452359 
1743.000000	99.454037 
1742.000000	99.455234 
1741.000000	99.454673 
1740.000000	99.453009 
1739.000000	99.452481 
1738.000000	99.454386 
1737.000000	99.457118 
1736.000000	99.459674 
1735.000000	99.462308 
1734.000000	99.461451 
1733.000000	99.457405 
1732.000000	99.455693 
1731.000000	99.458030 
1730.000000	99.463966 
1729.000000	99.471265 
1728.000000	99.476086 
1727.000000	99.476872 
1726.000000	99.475540 
1725.000000	99.474910 
1724.000000	99.475488 
1723.000000	99.476155 
1722.000000	99.476141 
1721.000000	99.475221 
1720.000000	99.473789 
1719.000000	99.473419 
1718.000000	99.474393 
1717.000000	99.474120 
1716.000000	99.471607 
1715.000000	99.468946 
1714.000000	99.467119 
1713.000000	99.464870 
1712.000000	99.461509 
1711.000000	99.458586 
1710.000000	99.457629 
1709.000000	99.457188 
1708.000000	99.454663 
1707.000000	99.450363 
1706.000000	99.446862 
1705.000000	99.444063 
1704.000000	99.439793 
1703.000000	99.433428 
1702.000000	99.428580 
1701.000000	99.426610 
1700.000000	99.420301 
1699.000000	99.411490 
1698.000000	99.407160 
1697.000000	99.405475 
1696.000000	99.403825 
1695.000000	99.402789 
1694.000000	99.402714 
1693.000000	99.400706 
1692.000000	99.394739 
1691.000000	99.386360 
1690.000000	99.378193 
1689.000000	99.371243 
1688.000000	99.364853 
1687.000000	99.358612 
1686.000000	99.354416 
1685.000000	99.351785 
1684.000000	99.345507 
1683.000000	99.337620 
1682.000000	99.331850 
1681.000000	99.327083 
1680.000000	99.323387 
1679.000000	99.320351 
1678.000000	99.316693 
1677.000000	99.312369 
1676.000000	99.308014 
1675.000000	99.302983 
1674.000000	99.296497 
1673.000000	99.289102 
1672.000000	99.281644 
1671.000000	99.274960 
1670.000000	99.269168 
1669.000000	99.264406 
1668.000000	99.261407 
1667.000000	99.259463 
1666.000000	99.257046 
1665.000000	99.253746 
1664.000000	99.250111 
1663.000000	99.246446 
1662.000000	99.242406 
1661.000000	99.237921 
1660.000000	99.233354 
1659.000000	99.228999 
1658.000000	99.224593 
1657.000000	99.219810 
1656.000000	99.214860 
1655.000000	99.210704 
1654.000000	99.207139 
1653.000000	99.200786 
1652.000000	99.193894 
1651.000000	99.190093 
1650.000000	99.187356 
1649.000000	99.184251 
1648.000000	99.181293 
1647.000000	99.178605 
1646.000000	99.175939 
1645.000000	99.173189 
1644.000000	99.170195 
1643.000000	99.166989 
1642.000000	99.163837 
1641.000000	99.160798 
1640.000000	99.157858 
1639.000000	99.155070 
1638.000000	99.152376 
1637.000000	99.149685 
1636.000000	99.145743 
1635.000000	99.140549 
1634.000000	99.136694 
1633.000000	99.134119 
1632.000000	99.131302 
1631.000000	99.128639 
1630.000000	99.126249 
1629.000000	99.123031 
1628.000000	99.119030 
1627.000000	99.116143 
1626.000000	99.114692 
1625.000000	99.112857 
1624.000000	99.109833 
1623.000000	99.106872 
1622.000000	99.105605 
1621.000000	99.105540 
1620.000000	99.104896 
1619.000000	99.103232 
1618.000000	99.100586 
1617.000000	99.094324 
1616.000000	99.086668 
1615.000000	99.084563 
1614.000000	99.086831 
1613.000000	99.088015 
1612.000000	99.086698 
1611.000000	99.083468 
1610.000000	99.078521 
1609.000000	99.074031 
1608.000000	99.074413 
1607.000000	99.079753 
1606.000000	99.084377 
1605.000000	99.084660 
1604.000000	99.083111 
1603.000000	99.082731 
1602.000000	99.082979 
1601.000000	99.083132 
1600.000000	99.084419 
1599.000000	99.087285 
1598.000000	99.089745 
1597.000000	99.090645 
1596.000000	99.091817 
1595.000000	99.095221 
1594.000000	99.099975 
1593.000000	99.104356 
1592.000000	99.108540 
1591.000000	99.113070 
1590.000000	99.117046 
1589.000000	99.120331 
1588.000000	99.125167 
1587.000000	99.132956 
1586.000000	99.141452 
1585.000000	99.147827 
1584.000000	99.152683 
1583.000000	99.157749 
1582.000000	99.162576 
1581.000000	99.166623 
1580.000000	99.171251 
1579.000000	99.177758 
1578.000000	99.186632 
1577.000000	99.197768 
1576.000000	99.209424 
1575.000000	99.221085 
1574.000000	99.232274 
1573.000000	99.241818 
1572.000000	99.251069 
1571.000000	99.261591 
1570.000000	99.269748 
1569.000000	99.273825 
1568.000000	99.279126 
1567.000000	99.287240 
1566.000000	99.294648 
1565.000000	99.299424 
1564.000000	99.302642 
1563.000000	99.304340 
1562.000000	99.305556 
1561.000000	99.310527 
1560.000000	99.327931 
1559.000000	99.339790 
1558.000000	99.335044 
1557.000000	99.332989 
1556.000000	99.338157 
1555.000000	99.346525 
1554.000000	99.355533 
1553.000000	99.361977 
1552.000000	99.365810 
1551.000000	99.368222 
1550.000000	99.370523 
1549.000000	99.372547 
1548.000000	99.373777 
1547.000000	99.374499 
1546.000000	99.374670 
1545.000000	99.373329 
1544.000000	99.370877 
1543.000000	99.370263 
1542.000000	99.373824 
1541.000000	99.377509 
1540.000000	99.371913 
1539.000000	99.361495 
1538.000000	99.356513 
1537.000000	99.354700 
1536.000000	99.352021 
1535.000000	99.349792 
1534.000000	99.349463 
1533.000000	99.349803 
1532.000000	99.349658 
1531.000000	99.348336 
1530.000000	99.345022 
1529.000000	99.339755 
1528.000000	99.333835 
1527.000000	99.329822 
1526.000000	99.328402 
1525.000000	99.326667 
1524.000000	99.322307 
1523.000000	99.317097 
1522.000000	99.313297 
1521.000000	99.309633 
1520.000000	99.303525 
1519.000000	99.294116 
1518.000000	99.283211 
1517.000000	99.274309 
1516.000000	99.269763 
1515.000000	99.268629 
1514.000000	99.268180 
1513.000000	99.266092 
1512.000000	99.260445 
1511.000000	99.250662 
1510.000000	99.239236 
1509.000000	99.229695 
1508.000000	99.225039 
1507.000000	99.223130 
1506.000000	99.218736 
1505.000000	99.210685 
1504.000000	99.201079 
1503.000000	99.191368 
1502.000000	99.182374 
1501.000000	99.174537 
1500.000000	99.167419 
1499.000000	99.160351 
1498.000000	99.153183 
1497.000000	99.145656 
1496.000000	99.137433 
1495.000000	99.129904 
1494.000000	99.124474 
1493.000000	99.120819 
1492.000000	99.118304 
1491.000000	99.116542 
1490.000000	99.114103 
1489.000000	99.108287 
1488.000000	99.097777 
1487.000000	99.085078 
1486.000000	99.072911 
1485.000000	99.060639 
1484.000000	99.047550 
1483.000000	99.035542 
1482.000000	99.026919 
1481.000000	99.020731 
1480.000000	99.013732 
1479.000000	99.005140 
1478.000000	98.996993 
1477.000000	98.989788 
1476.000000	98.981523 
1475.000000	98.971817 
1474.000000	98.963193 
1473.000000	98.957207 
1472.000000	98.952483 
1471.000000	98.947050 
1470.000000	98.939265 
1469.000000	98.928174 
1468.000000	98.914741 
1467.000000	98.902225 
1466.000000	98.894839 
1465.000000	98.893488 
1464.000000	98.894308 
1463.000000	98.892553 
1462.000000	98.886259 
1461.000000	98.875992 
1460.000000	98.863660 
1459.000000	98.852375 
1458.000000	98.846037 
1457.000000	98.844956 
1456.000000	98.843831 
1455.000000	98.837067 
1454.000000	98.825222 
1453.000000	98.813387 
1452.000000	98.805903 
1451.000000	98.804381 
1450.000000	98.809127 
1449.000000	98.819868 
1448.000000	98.833171 
1447.000000	98.843376 
1446.000000	98.847689 
1445.000000	98.847755 
1444.000000	98.846709 
1443.000000	98.846144 
1442.000000	98.845592 
1441.000000	98.842953 
1440.000000	98.836118 
1439.000000	98.826388 
1438.000000	98.820572 
1437.000000	98.824653 
1436.000000	98.833794 
1435.000000	98.837525 
1434.000000	98.833608 
1433.000000	98.826754 
1432.000000	98.821230 
1431.000000	98.818130 
1430.000000	98.816882 
1429.000000	98.816451 
1428.000000	98.814157 
1427.000000	98.808467 
1426.000000	98.802153 
1425.000000	98.799841 
1424.000000	98.800889 
1423.000000	98.798094 
1422.000000	98.787597 
1421.000000	98.774475 
1420.000000	98.765776 
1419.000000	98.760483 
1418.000000	98.753365 
1417.000000	98.743741 
1416.000000	98.733995 
1415.000000	98.725230 
1414.000000	98.715744 
1413.000000	98.703988 
1412.000000	98.691782 
1411.000000	98.682351 
1410.000000	98.676586 
1409.000000	98.672728 
1408.000000	98.669595 
1407.000000	98.669094 
1406.000000	98.674563 
1405.000000	98.687510 
1404.000000	98.704936 
1403.000000	98.720628 
1402.000000	98.732001 
1401.000000	98.743278 
1400.000000	98.760166 
1399.000000	98.780790 
1398.000000	98.794159 
1397.000000	98.790735 
1396.000000	98.772403 
1395.000000	98.754016 
1394.000000	98.753226 
1393.000000	98.774628 
1392.000000	98.807935 
1391.000000	98.839564 
1390.000000	98.862110 
1389.000000	98.875233 
1388.000000	98.881749 
1387.000000	98.884099 
1386.000000	98.884012 
1385.000000	98.884059 
1384.000000	98.887290 
1383.000000	98.894768 
1382.000000	98.904842 
1381.000000	98.915620 
1380.000000	98.927407 
1379.000000	98.941672 
1378.000000	98.958469 
1377.000000	98.976199 
1376.000000	98.993425 
1375.000000	99.009968 
1374.000000	99.026878 
1373.000000	99.045443 
1372.000000	99.065423 
1371.000000	99.085403 
1370.000000	99.104404 
1369.000000	99.122324 
1368.000000	99.139269 
1367.000000	99.154634 
1366.000000	99.168178 
1365.000000	99.181655 
1364.000000	99.197437 
1363.000000	99.215478 
1362.000000	99.232976 
1361.000000	99.248074 
1360.000000	99.262324 
1359.000000	99.278173 
1358.000000	99.295607 
1357.000000	99.312536 
1356.000000	99.327315 
1355.000000	99.339755 
1354.000000	99.350697 
1353.000000	99.361622 
1352.000000	99.373670 
1351.000000	99.386780 
1350.000000	99.399942 
1349.000000	99.411951 
1348.000000	99.421968 
1347.000000	99.430023 
1346.000000	99.437118 
1345.000000	99.443980 
1344.000000	99.449823 
1343.000000	99.453418 
1342.000000	99.455339 
1341.000000	99.458015 
1340.000000	99.462933 
1339.000000	99.468620 
1338.000000	99.472753 
1337.000000	99.475407 
1336.000000	99.478086 
1335.000000	99.480814 
1334.000000	99.482406 
1333.000000	99.482598 
1332.000000	99.482067 
1331.000000	99.481129 
1330.000000	99.480040 
1329.000000	99.479918 
1328.000000	99.481671 
1327.000000	99.484254 
1326.000000	99.485418 
1325.000000	99.483902 
1324.000000	99.479984 
1323.000000	99.474341 
1322.000000	99.467999 
1321.000000	99.462981 
1320.000000	99.461205 
1319.000000	99.462478 
1318.000000	99.464736 
1317.000000	99.466391 
1316.000000	99.467215 
1315.000000	99.467223 
1314.000000	99.466462 
1313.000000	99.466062 
1312.000000	99.467706 
1311.000000	99.471393 
1310.000000	99.475044 
1309.000000	99.476879 
1308.000000	99.477245 
1307.000000	99.477688 
1306.000000	99.479099 
1305.000000	99.481382 
1304.000000	99.484104 
1303.000000	99.486351 
1302.000000	99.486745 
1301.000000	99.484705 
1300.000000	99.481638 
1299.000000	99.480139 
1298.000000	99.481493 
1297.000000	99.484120 
1296.000000	99.484966 
1295.000000	99.482745 
1294.000000	99.479493 
1293.000000	99.478386 
1292.000000	99.480148 
1291.000000	99.482427 
1290.000000	99.482956 
1289.000000	99.482113 
1288.000000	99.481428 
1287.000000	99.480679 
1286.000000	99.478112 
1285.000000	99.473330 
1284.000000	99.468376 
1283.000000	99.465299 
1282.000000	99.463302 
1281.000000	99.459473 
1280.000000	99.452557 
1279.000000	99.444893 
1278.000000	99.440082 
1277.000000	99.439281 
1276.000000	99.440071 
1275.000000	99.438860 
1274.000000	99.434081 
1273.000000	99.426953 
1272.000000	99.419617 
1271.000000	99.413025 
1270.000000	99.406518 
1269.000000	99.398837 
1268.000000	99.389183 
1267.000000	99.377589 
1266.000000	99.364755 
1265.000000	99.351767 
1264.000000	99.339812 
1263.000000	99.329754 
1262.000000	99.321557 
1261.000000	99.314273 
1260.000000	99.307253 
1259.000000	99.301156 
1258.000000	99.296701 
1257.000000	99.292373 
1256.000000	99.284922 
1255.000000	99.273423 
1254.000000	99.261569 
1253.000000	99.253817 
1252.000000	99.249903 
1251.000000	99.245699 
1250.000000	99.239718 
1249.000000	99.236077 
1248.000000	99.239548 
1247.000000	99.249265 
1246.000000	99.258468 
1245.000000	99.259553 
1244.000000	99.249409 
1243.000000	99.232581 
1242.000000	99.220284 
1241.000000	99.222710 
1240.000000	99.239097 
1239.000000	99.256518 
1238.000000	99.261215 
1237.000000	99.250297 
1236.000000	99.230834 
1235.000000	99.210231 
1234.000000	99.190903 
1233.000000	99.172922 
1232.000000	99.156967 
1231.000000	99.143305 
1230.000000	99.131124 
1229.000000	99.120429 
1228.000000	99.112278 
1227.000000	99.105794 
1226.000000	99.097063 
1225.000000	99.082681 
1224.000000	99.063146 
1223.000000	99.041569 
1222.000000	99.020001 
1221.000000	98.997971 
1220.000000	98.973788 
1219.000000	98.946484 
1218.000000	98.916930 
1217.000000	98.887161 
1216.000000	98.857717 
1215.000000	98.826006 
1214.000000	98.789160 
1213.000000	98.748782 
1212.000000	98.710421 
1211.000000	98.676778 
1210.000000	98.643265 
1209.000000	98.602644 
1208.000000	98.553231 
1207.000000	98.500568 
1206.000000	98.451135 
1205.000000	98.405849 
1204.000000	98.360318 
1203.000000	98.310351 
1202.000000	98.256429 
1201.000000	98.202864 
1200.000000	98.152838 
1199.000000	98.104996 
1198.000000	98.055655 
1197.000000	98.003611 
1196.000000	97.950943 
1195.000000	97.899303 
1194.000000	97.847690 
1193.000000	97.794556 
1192.000000	97.740022 
1191.000000	97.684773 
1190.000000	97.628475 
1189.000000	97.570704 
1188.000000	97.511897 
1187.000000	97.452038 
1186.000000	97.390054 
1185.000000	97.325925 
1184.000000	97.261535 
1183.000000	97.197701 
1182.000000	97.132300 
1181.000000	97.063390 
1180.000000	96.992106 
1179.000000	96.919860 
1178.000000	96.844674 
1177.000000	96.763467 
1176.000000	96.676539 
1175.000000	96.586707 
1174.000000	96.495596 
1173.000000	96.404276 
1172.000000	96.315890 
1171.000000	96.232932 
1170.000000	96.152494 
1169.000000	96.069061 
1168.000000	95.982523 
1167.000000	95.899480 
1166.000000	95.826823 
1165.000000	95.768729 
1164.000000	95.730071 
1163.000000	95.716770 
1162.000000	95.729878 
1161.000000	95.762233 
1160.000000	95.802116 
1159.000000	95.837760 
1158.000000	95.858783 
1157.000000	95.857898 
1156.000000	95.833345 
1155.000000	95.788196 
1154.000000	95.727209 
1153.000000	95.655935 
1152.000000	95.581542 
1151.000000	95.510357 
1150.000000	95.443727 
1149.000000	95.379182 
1148.000000	95.315620 
1147.000000	95.253892 
1146.000000	95.192573 
1145.000000	95.127753 
1144.000000	95.058139 
1143.000000	94.986671 
1142.000000	94.916101 
1141.000000	94.846309 
1140.000000	94.776771 
1139.000000	94.708105 
1138.000000	94.640275 
1137.000000	94.572426 
1136.000000	94.504993 
1135.000000	94.438744 
1134.000000	94.371716 
1133.000000	94.300910 
1132.000000	94.227142 
1131.000000	94.154169 
1130.000000	94.082837 
1129.000000	94.010404 
1128.000000	93.935771 
1127.000000	93.860680 
1126.000000	93.785249 
1125.000000	93.707328 
1124.000000	93.627327 
1123.000000	93.548936 
1122.000000	93.473715 
1121.000000	93.399213 
1120.000000	93.323623 
1119.000000	93.247986 
1118.000000	93.172807 
1117.000000	93.097063 
1116.000000	93.021614 
1115.000000	92.949220 
1114.000000	92.880082 
1113.000000	92.811396 
1112.000000	92.741767 
1111.000000	92.671835 
1110.000000	92.601001 
1109.000000	92.528350 
1108.000000	92.455788 
1107.000000	92.385635 
1106.000000	92.316091 
1105.000000	92.243974 
1104.000000	92.170753 
1103.000000	92.100483 
1102.000000	92.032789 
1101.000000	91.963997 
1100.000000	91.894221 
1099.000000	91.827587 
1098.000000	91.765785 
1097.000000	91.707211 
1096.000000	91.651310 
1095.000000	91.596971 
1094.000000	91.537519 
1093.000000	91.465217 
1092.000000	91.381859 
1091.000000	91.298380 
1090.000000	91.222828 
1089.000000	91.154497 
1088.000000	91.089807 
1087.000000	91.026643 
1086.000000	90.962304 
1085.000000	90.894872 
1084.000000	90.828202 
1083.000000	90.768772 
1082.000000	90.716517 
1081.000000	90.665702 
1080.000000	90.615458 
1079.000000	90.571402 
1078.000000	90.535550 
1077.000000	90.502965 
1076.000000	90.470329 
1075.000000	90.439631 
1074.000000	90.411311 
1073.000000	90.381416 
1072.000000	90.346248 
1071.000000	90.300292 
1070.000000	90.228871 
1069.000000	90.116079 
1068.000000	89.966350 
1067.000000	89.810443 
1066.000000	89.682094 
1065.000000	89.591992 
1064.000000	89.527777 
1063.000000	89.468907 
1062.000000	89.395156 
1061.000000	89.291057 
1060.000000	89.155065 
1059.000000	89.004488 
1058.000000	88.864203 
1057.000000	88.748539 
1056.000000	88.655297 
1055.000000	88.573227 
1054.000000	88.492129 
1053.000000	88.409426 
1052.000000	88.330257 
1051.000000	88.259506 
1050.000000	88.193685 
1049.000000	88.124365 
1048.000000	88.048373 
1047.000000	87.969009 
1046.000000	87.889168 
1045.000000	87.809890 
1044.000000	87.733901 
1043.000000	87.663414 
1042.000000	87.595027 
1041.000000	87.523249 
1040.000000	87.448913 
1039.000000	87.378860 
1038.000000	87.318890 
1037.000000	87.272335 
1036.000000	87.242201 
1035.000000	87.227433 
1034.000000	87.219715 
1033.000000	87.210511 
1032.000000	87.196944 
1031.000000	87.174579 
1030.000000	87.133784 
1029.000000	87.076078 
1028.000000	87.026774 
1027.000000	87.014245 
1026.000000	87.037904 
1025.000000	87.070020 
1024.000000	87.088263 
1023.000000	87.092354 
1022.000000	87.089618 
1021.000000	87.081669 
1020.000000	87.069064 
1019.000000	87.055216 
1018.000000	87.040881 
1017.000000	87.024597 
1016.000000	87.010386 
1015.000000	87.004853 
1014.000000	87.005805 
1013.000000	87.004486 
1012.000000	86.999511 
1011.000000	86.997551 
1010.000000	87.000487 
1009.000000	87.003919 
1008.000000	87.008515 
1007.000000	87.020495 
1006.000000	87.040268 
1005.000000	87.062651 
1004.000000	87.088469 
1003.000000	87.122911 
1002.000000	87.161858 
1001.000000	87.193886 
1000.000000	87.218208 
999.000000	 87.247297 
998.000000	 87.288495 
997.000000	 87.335368 
996.000000	 87.380443 
995.000000	 87.424940 
994.000000	 87.472360 
993.000000	 87.523089 
992.000000	 87.578464 
991.000000	 87.640139 
990.000000	 87.703166 
989.000000	 87.759757 
988.000000	 87.811728 
987.000000	 87.868949 
986.000000	 87.934611 
985.000000	 88.003499 
984.000000	 88.075375 
983.000000	 88.157145 
982.000000	 88.249862 
981.000000	 88.345449 
980.000000	 88.439099 
979.000000	 88.534241 
978.000000	 88.632394 
977.000000	 88.729779 
976.000000	 88.827367 
975.000000	 88.932731 
974.000000	 89.047534 
973.000000	 89.163474 
972.000000	 89.275200 
971.000000	 89.387989 
970.000000	 89.508069 
969.000000	 89.633693 
968.000000	 89.759962 
967.000000	 89.885076 
966.000000	 90.008294 
965.000000	 90.128607 
964.000000	 90.248392 
963.000000	 90.372083 
962.000000	 90.499021 
961.000000	 90.623607 
960.000000	 90.743468 
959.000000	 90.860902 
958.000000	 90.975798 
957.000000	 91.084563 
956.000000	 91.187268 
955.000000	 91.288830 
954.000000	 91.391850 
953.000000	 91.494499 
952.000000	 91.595890 
951.000000	 91.696693 
950.000000	 91.794452 
949.000000	 91.885756 
948.000000	 91.973137 
947.000000	 92.061990 
946.000000	 92.150010 
945.000000	 92.227919 
944.000000	 92.292277 
943.000000	 92.350633 
942.000000	 92.412377 
941.000000	 92.480489 
940.000000	 92.553707 
939.000000	 92.630055 
938.000000	 92.706232 
937.000000	 92.779304 
936.000000	 92.850783 
935.000000	 92.924473 
934.000000	 93.000049 
933.000000	 93.073877 
932.000000	 93.145703 
931.000000	 93.218773 
930.000000	 93.293620 
929.000000	 93.367559 
928.000000	 93.440208 
927.000000	 93.513622 
926.000000	 93.586830 
925.000000	 93.655501 
924.000000	 93.717038 
923.000000	 93.771717 
922.000000	 93.820307 
921.000000	 93.865659 
920.000000	 93.914311 
919.000000	 93.969930 
918.000000	 94.026386 
917.000000	 94.073690 
916.000000	 94.110473 
915.000000	 94.145397 
914.000000	 94.187306 
913.000000	 94.239191 
912.000000	 94.300043 
911.000000	 94.366487 
910.000000	 94.433801 
909.000000	 94.501045 
908.000000	 94.573621 
907.000000	 94.655922 
906.000000	 94.744767 
905.000000	 94.835638 
904.000000	 94.930847 
903.000000	 95.033824 
902.000000	 95.139460 
901.000000	 95.239208 
900.000000	 95.333347 
899.000000	 95.429629 
898.000000	 95.531317 
897.000000	 95.634372 
896.000000	 95.734103 
895.000000	 95.826811 
894.000000	 95.907775 
893.000000	 95.976574 
892.000000	 96.042820 
891.000000	 96.117908 
890.000000	 96.201314 
889.000000	 96.282150 
888.000000	 96.352257 
887.000000	 96.410484 
886.000000	 96.457737 
885.000000	 96.497004 
884.000000	 96.535419 
883.000000	 96.576229 
882.000000	 96.611521 
881.000000	 96.634665 
880.000000	 96.657715 
879.000000	 96.702297 
878.000000	 96.772835 
877.000000	 96.852651 
876.000000	 96.927798 
875.000000	 97.000450 
874.000000	 97.075690 
873.000000	 97.151432 
872.000000	 97.227948 
871.000000	 97.313437 
870.000000	 97.411718 
869.000000	 97.514108 
868.000000	 97.610192 
867.000000	 97.698678 
866.000000	 97.782701 
865.000000	 97.862743 
864.000000	 97.940067 
863.000000	 98.020178 
862.000000	 98.106289 
861.000000	 98.193638 
860.000000	 98.275219 
859.000000	 98.349880 
858.000000	 98.421627 
857.000000	 98.494017 
856.000000	 98.567281 
855.000000	 98.637829 
854.000000	 98.699418 
853.000000	 98.748200 
852.000000	 98.787364 
851.000000	 98.824292 
850.000000	 98.864509 
849.000000	 98.911586 
848.000000	 98.968923 
847.000000	 99.034301 
846.000000	 99.095319 
845.000000	 99.139345 
844.000000	 99.167900 
843.000000	 99.193769 
842.000000	 99.224230 
841.000000	 99.254554 
840.000000	 99.277350 
839.000000	 99.289788 
838.000000	 99.291910 
837.000000	 99.287054 
836.000000	 99.285124 
835.000000	 99.296284 
834.000000	 99.318339 
833.000000	 99.337751 
832.000000	 99.345644 
831.000000	 99.346148 
830.000000	 99.347720 
829.000000	 99.354392 
828.000000	 99.368156 
827.000000	 99.390946 
826.000000	 99.419322 
825.000000	 99.444774 
824.000000	 99.463788 
823.000000	 99.480583 
822.000000	 99.497341 
821.000000	 99.510291 
820.000000	 99.517382 
819.000000	 99.520124 
818.000000	 99.514911 
817.000000	 99.490792 
816.000000	 99.439744 
815.000000	 99.364068 
814.000000	 99.271192 
813.000000	 99.165342 
812.000000	 99.045316 
811.000000	 98.904136 
810.000000	 98.728170 
809.000000	 98.502842 
808.000000	 98.223681 
807.000000	 97.899358 
806.000000	 97.543219 
805.000000	 97.167128 
804.000000	 96.785111 
803.000000	 96.415541 
802.000000	 96.075440 
801.000000	 95.777692 
800.000000	 95.534686 
799.000000	 95.355730 
798.000000	 95.238638 
797.000000	 95.173117 
796.000000	 95.153990 
795.000000	 95.180874 
794.000000	 95.243992 
793.000000	 95.322424 
792.000000	 95.398888 
791.000000	 95.465716 
790.000000	 95.515595 
789.000000	 95.538750 
788.000000	 95.531541 
787.000000	 95.496809 
786.000000	 95.433492 
785.000000	 95.336407 
784.000000	 95.208671 
783.000000	 95.064136 
782.000000	 94.915407 
781.000000	 94.769914 
780.000000	 94.639199 
779.000000	 94.539725 
778.000000	 94.481735 
777.000000	 94.468808 
776.000000	 94.508890 
775.000000	 94.609642 
774.000000	 94.758060 
773.000000	 94.919334 
772.000000	 95.063349 
771.000000	 95.183251 
770.000000	 95.286820 
769.000000	 95.383671 
768.000000	 95.483977 
767.000000	 95.594118 
766.000000	 95.706055 
765.000000	 95.802598 
764.000000	 95.879399 
763.000000	 95.950932 
762.000000	 96.030053 
761.000000	 96.113626 
760.000000	 96.193690 
759.000000	 96.270256 
758.000000	 96.346139 
757.000000	 96.421237 
756.000000	 96.500347 
755.000000	 96.595223 
754.000000	 96.707576 
753.000000	 96.816877 
752.000000	 96.895343 
751.000000	 96.933327 
750.000000	 96.947382 
749.000000	 96.968032 
748.000000	 97.020429 
747.000000	 97.107890 
746.000000	 97.208123 
745.000000	 97.291560 
744.000000	 97.348402 
743.000000	 97.393645 
742.000000	 97.446204 
741.000000	 97.511807 
740.000000	 97.586977 
739.000000	 97.667901 
738.000000	 97.749405 
737.000000	 97.823282 
736.000000	 97.884119 
735.000000	 97.932448 
734.000000	 97.970638 
733.000000	 98.001619 
732.000000	 98.031392 
731.000000	 98.064478 
730.000000	 98.096914 
729.000000	 98.124352 
728.000000	 98.151742 
727.000000	 98.185661 
726.000000	 98.223125 
725.000000	 98.255468 
724.000000	 98.282304 
723.000000	 98.312963 
722.000000	 98.355070 
721.000000	 98.410012 
720.000000	 98.476400 
719.000000	 98.547405 
718.000000	 98.606625 
717.000000	 98.639598 
716.000000	 98.652603 
715.000000	 98.668050 
714.000000	 98.698084 
713.000000	 98.735551 
712.000000	 98.772743 
711.000000	 98.811902 
710.000000	 98.853014 
709.000000	 98.891726 
708.000000	 98.922969 
707.000000	 98.945362 
706.000000	 98.958008 
705.000000	 98.955914 
704.000000	 98.935240 
703.000000	 98.900345 
702.000000	 98.855110 
701.000000	 98.792387 
700.000000	 98.700872 
699.000000	 98.574675 
698.000000	 98.420794 
697.000000	 98.261151 
696.000000	 98.126955 
695.000000	 98.048898 
694.000000	 98.039138 
693.000000	 98.085782 
692.000000	 98.166598 
691.000000	 98.259324 
690.000000	 98.348585 
689.000000	 98.429042 
688.000000	 98.504095 
687.000000	 98.579296 
686.000000	 98.650834 
685.000000	 98.709194 
684.000000	 98.753437 
683.000000	 98.790300 
682.000000	 98.823267 
681.000000	 98.851969 
680.000000	 98.880047 
679.000000	 98.913133 
678.000000	 98.948952 
677.000000	 98.982105 
676.000000	 99.015529 
675.000000	 99.049644 
674.000000	 99.080425 
673.000000	 99.102746 
672.000000	 99.110246 
671.000000	 99.092108 
670.000000	 99.040113 
669.000000	 98.974382 
668.000000	 98.972844 
667.000000	 99.067730 
666.000000	 99.175461 
665.000000	 99.235795 
664.000000	 99.260969 
663.000000	 99.273925 
662.000000	 99.289355 
661.000000	 99.309886 
660.000000	 99.334633 
659.000000	 99.364274 
658.000000	 99.395747 
657.000000	 99.421667 
656.000000	 99.438338 
655.000000	 99.445849 
654.000000	 99.447864 
653.000000	 99.449180 
652.000000	 99.452940 
651.000000	 99.462774 
650.000000	 99.481428 

