4000.000000	98.240579 
3999.000000	98.239412 
3998.000000	98.236239 
3997.000000	98.232234 
3996.000000	98.228951 
3995.000000	98.227237 
3994.000000	98.227247 
3993.000000	98.228602 
3992.000000	98.230493 
3991.000000	98.232006 
3990.000000	98.232611 
3989.000000	98.232385 
3988.000000	98.231729 
3987.000000	98.231062 
3986.000000	98.230776 
3985.000000	98.231144 
3984.000000	98.231987 
3983.000000	98.232698 
3982.000000	98.232971 
3981.000000	98.233193 
3980.000000	98.233668 
3979.000000	98.233885 
3978.000000	98.233183 
3977.000000	98.231876 
3976.000000	98.231035 
3975.000000	98.231016 
3974.000000	98.230882 
3973.000000	98.229569 
3972.000000	98.227068 
3971.000000	98.224346 
3970.000000	98.222399 
3969.000000	98.221675 
3968.000000	98.222133 
3967.000000	98.223280 
3966.000000	98.224371 
3965.000000	98.224747 
3964.000000	98.223992 
3963.000000	98.222069 
3962.000000	98.219536 
3961.000000	98.217415 
3960.000000	98.216417 
3959.000000	98.216419 
3958.000000	98.216762 
3957.000000	98.216995 
3956.000000	98.216971 
3955.000000	98.216256 
3954.000000	98.214343 
3953.000000	98.211255 
3952.000000	98.207792 
3951.000000	98.204970 
3950.000000	98.203176 
3949.000000	98.202085 
3948.000000	98.200962 
3947.000000	98.199409 
3946.000000	98.197937 
3945.000000	98.197510 
3944.000000	98.198383 
3943.000000	98.199515 
3942.000000	98.200021 
3941.000000	98.200334 
3940.000000	98.201283 
3939.000000	98.202793 
3938.000000	98.203832 
3937.000000	98.203587 
3936.000000	98.202171 
3935.000000	98.199941 
3934.000000	98.197171 
3933.000000	98.194308 
3932.000000	98.192125 
3931.000000	98.190922 
3930.000000	98.190232 
3929.000000	98.189910 
3928.000000	98.190479 
3927.000000	98.192157 
3926.000000	98.193932 
3925.000000	98.194177 
3924.000000	98.192509 
3923.000000	98.189952 
3922.000000	98.187343 
3921.000000	98.184930 
3920.000000	98.183154 
3919.000000	98.182796 
3918.000000	98.183782 
3917.000000	98.184830 
3916.000000	98.184992 
3915.000000	98.184659 
3914.000000	98.184604 
3913.000000	98.184889 
3912.000000	98.185025 
3911.000000	98.184840 
3910.000000	98.184268 
3909.000000	98.183122 
3908.000000	98.181519 
3907.000000	98.179692 
3906.000000	98.177671 
3905.000000	98.174666 
3904.000000	98.170028 
3903.000000	98.164845 
3902.000000	98.161376 
3901.000000	98.160818 
3900.000000	98.162449 
3899.000000	98.164462 
3898.000000	98.165827 
3897.000000	98.166453 
3896.000000	98.166276 
3895.000000	98.165539 
3894.000000	98.164954 
3893.000000	98.165058 
3892.000000	98.165094 
3891.000000	98.163582 
3890.000000	98.160488 
3889.000000	98.157258 
3888.000000	98.155260 
3887.000000	98.154518 
3886.000000	98.154116 
3885.000000	98.153398 
3884.000000	98.152477 
3883.000000	98.151500 
3882.000000	98.150512 
3881.000000	98.149741 
3880.000000	98.149323 
3879.000000	98.148820 
3878.000000	98.147828 
3877.000000	98.146606 
3876.000000	98.145808 
3875.000000	98.145412 
3874.000000	98.144672 
3873.000000	98.143266 
3872.000000	98.141715 
3871.000000	98.140326 
3870.000000	98.138807 
3869.000000	98.137478 
3868.000000	98.137021 
3867.000000	98.137182 
3866.000000	98.137050 
3865.000000	98.136457 
3864.000000	98.136294 
3863.000000	98.136914 
3862.000000	98.137286 
3861.000000	98.136938 
3860.000000	98.136683 
3859.000000	98.137056 
3858.000000	98.137437 
3857.000000	98.136981 
3856.000000	98.135863 
3855.000000	98.134666 
3854.000000	98.132689 
3853.000000	98.129628 
3852.000000	98.127275 
3851.000000	98.126941 
3850.000000	98.127907 
3849.000000	98.129226 
3848.000000	98.130772 
3847.000000	98.132795 
3846.000000	98.134642 
3845.000000	98.135168 
3844.000000	98.134004 
3843.000000	98.131621 
3842.000000	98.128780 
3841.000000	98.126507 
3840.000000	98.125505 
3839.000000	98.125915 
3838.000000	98.127364 
3837.000000	98.128738 
3836.000000	98.129239 
3835.000000	98.129078 
3834.000000	98.129152 
3833.000000	98.130272 
3832.000000	98.132263 
3831.000000	98.134275 
3830.000000	98.135766 
3829.000000	98.136820 
3828.000000	98.138053 
3827.000000	98.139695 
3826.000000	98.140737 
3825.000000	98.140306 
3824.000000	98.138743 
3823.000000	98.137433 
3822.000000	98.137191 
3821.000000	98.136853 
3820.000000	98.135523 
3819.000000	98.133822 
3818.000000	98.132769 
3817.000000	98.133243 
3816.000000	98.135940 
3815.000000	98.141135 
3814.000000	98.147532 
3813.000000	98.152190 
3812.000000	98.153314 
3811.000000	98.152818 
3810.000000	98.153872 
3809.000000	98.156759 
3808.000000	98.158027 
3807.000000	98.154412 
3806.000000	98.146772 
3805.000000	98.138730 
3804.000000	98.132291 
3803.000000	98.128985 
3802.000000	98.129495 
3801.000000	98.132435 
3800.000000	98.136791 
3799.000000	98.141114 
3798.000000	98.144211 
3797.000000	98.147635 
3796.000000	98.153745 
3795.000000	98.161952 
3794.000000	98.168545 
3793.000000	98.171032 
3792.000000	98.171070 
3791.000000	98.172573 
3790.000000	98.176097 
3789.000000	98.178161 
3788.000000	98.176767 
3787.000000	98.174079 
3786.000000	98.173029 
3785.000000	98.173315 
3784.000000	98.172380 
3783.000000	98.169362 
3782.000000	98.165435 
3781.000000	98.162038 
3780.000000	98.160329 
3779.000000	98.161617 
3778.000000	98.166082 
3777.000000	98.171653 
3776.000000	98.174888 
3775.000000	98.173613 
3774.000000	98.168870 
3773.000000	98.163798 
3772.000000	98.160624 
3771.000000	98.158396 
3770.000000	98.155001 
3769.000000	98.151084 
3768.000000	98.148960 
3767.000000	98.148750 
3766.000000	98.148906 
3765.000000	98.148442 
3764.000000	98.148363 
3763.000000	98.149316 
3762.000000	98.149082 
3761.000000	98.145358 
3760.000000	98.139376 
3759.000000	98.135237 
3758.000000	98.132244 
3757.000000	98.124989 
3756.000000	98.111746 
3755.000000	98.094891 
3754.000000	98.076912 
3753.000000	98.059631 
3752.000000	98.047740 
3751.000000	98.045562 
3750.000000	98.047679 
3749.000000	98.045288 
3748.000000	98.039877 
3747.000000	98.040132 
3746.000000	98.050894 
3745.000000	98.063844 
3744.000000	98.070773 
3743.000000	98.075387 
3742.000000	98.078729 
3741.000000	98.074653 
3740.000000	98.062955 
3739.000000	98.053844 
3738.000000	98.055754 
3737.000000	98.062714 
3736.000000	98.064991 
3735.000000	98.064051 
3734.000000	98.067632 
3733.000000	98.075287 
3732.000000	98.081128 
3731.000000	98.084852 
3730.000000	98.089136 
3729.000000	98.093406 
3728.000000	98.095724 
3727.000000	98.096025 
3726.000000	98.096497 
3725.000000	98.098233 
3724.000000	98.099717 
3723.000000	98.099727 
3722.000000	98.099188 
3721.000000	98.099752 
3720.000000	98.099895 
3719.000000	98.098233 
3718.000000	98.095356 
3717.000000	98.091149 
3716.000000	98.085183 
3715.000000	98.075984 
3714.000000	98.063116 
3713.000000	98.050337 
3712.000000	98.042808 
3711.000000	98.041923 
3710.000000	98.043241 
3709.000000	98.041705 
3708.000000	98.035799 
3707.000000	98.025787 
3706.000000	98.013505 
3705.000000	98.002095 
3704.000000	97.994110 
3703.000000	97.989047 
3702.000000	97.982201 
3701.000000	97.969022 
3700.000000	97.950089 
3699.000000	97.930269 
3698.000000	97.914106 
3697.000000	97.902126 
3696.000000	97.892874 
3695.000000	97.885182 
3694.000000	97.877054 
3693.000000	97.866402 
3692.000000	97.853147 
3691.000000	97.839630 
3690.000000	97.827240 
3689.000000	97.816393 
3688.000000	97.809296 
3687.000000	97.807663 
3686.000000	97.809445 
3685.000000	97.810355 
3684.000000	97.808422 
3683.000000	97.805880 
3682.000000	97.804976 
3681.000000	97.801748 
3680.000000	97.788956 
3679.000000	97.764177 
3678.000000	97.733958 
3677.000000	97.708032 
3676.000000	97.689165 
3675.000000	97.675207 
3674.000000	97.664374 
3673.000000	97.655242 
3672.000000	97.646667 
3671.000000	97.641281 
3670.000000	97.641650 
3669.000000	97.645822 
3668.000000	97.648656 
3667.000000	97.646735 
3666.000000	97.641986 
3665.000000	97.638246 
3664.000000	97.636265 
3663.000000	97.634253 
3662.000000	97.629961 
3661.000000	97.621790 
3660.000000	97.610536 
3659.000000	97.598587 
3658.000000	97.588474 
3657.000000	97.579480 
3656.000000	97.568537 
3655.000000	97.555772 
3654.000000	97.543118 
3653.000000	97.530537 
3652.000000	97.515502 
3651.000000	97.496494 
3650.000000	97.476433 
3649.000000	97.461751 
3648.000000	97.457005 
3647.000000	97.461916 
3646.000000	97.474021 
3645.000000	97.490631 
3644.000000	97.508559 
3643.000000	97.524493 
3642.000000	97.535822 
3641.000000	97.541387 
3640.000000	97.542047 
3639.000000	97.538887 
3638.000000	97.533084 
3637.000000	97.526102 
3636.000000	97.518910 
3635.000000	97.510418 
3634.000000	97.498578 
3633.000000	97.484229 
3632.000000	97.470662 
3631.000000	97.459843 
3630.000000	97.449870 
3629.000000	97.437678 
3628.000000	97.425539 
3627.000000	97.419563 
3626.000000	97.420819 
3625.000000	97.426876 
3624.000000	97.436157 
3623.000000	97.447130 
3622.000000	97.456530 
3621.000000	97.460083 
3620.000000	97.455395 
3619.000000	97.444736 
3618.000000	97.433874 
3617.000000	97.428140 
3616.000000	97.430807 
3615.000000	97.442071 
3614.000000	97.457903 
3613.000000	97.472630 
3612.000000	97.483227 
3611.000000	97.490013 
3610.000000	97.494954 
3609.000000	97.500164 
3608.000000	97.506376 
3607.000000	97.513410 
3606.000000	97.521406 
3605.000000	97.531743 
3604.000000	97.546234 
3603.000000	97.564162 
3602.000000	97.581483 
3601.000000	97.593312 
3600.000000	97.597770 
3599.000000	97.597081 
3598.000000	97.595236 
3597.000000	97.594945 
3596.000000	97.597515 
3595.000000	97.601779 
3594.000000	97.604503 
3593.000000	97.604180 
3592.000000	97.601797 
3591.000000	97.599081 
3590.000000	97.597362 
3589.000000	97.597319 
3588.000000	97.598922 
3587.000000	97.601666 
3586.000000	97.605523 
3585.000000	97.611190 
3584.000000	97.619767 
3583.000000	97.631049 
3582.000000	97.643200 
3581.000000	97.653072 
3580.000000	97.658268 
3579.000000	97.658740 
3578.000000	97.656436 
3577.000000	97.653910 
3576.000000	97.652649 
3575.000000	97.652906 
3574.000000	97.653518 
3573.000000	97.652796 
3572.000000	97.649251 
3571.000000	97.642178 
3570.000000	97.632147 
3569.000000	97.621370 
3568.000000	97.613238 
3567.000000	97.610421 
3566.000000	97.612847 
3565.000000	97.618298 
3564.000000	97.624659 
3563.000000	97.631298 
3562.000000	97.638244 
3561.000000	97.645094 
3560.000000	97.650686 
3559.000000	97.653854 
3558.000000	97.654413 
3557.000000	97.653405 
3556.000000	97.652290 
3555.000000	97.652010 
3554.000000	97.652588 
3553.000000	97.653043 
3552.000000	97.652217 
3551.000000	97.649639 
3550.000000	97.646024 
3549.000000	97.643073 
3548.000000	97.642423 
3547.000000	97.643980 
3546.000000	97.645673 
3545.000000	97.645633 
3544.000000	97.644652 
3543.000000	97.645229 
3542.000000	97.648433 
3541.000000	97.652916 
3540.000000	97.656709 
3539.000000	97.658904 
3538.000000	97.659654 
3537.000000	97.659303 
3536.000000	97.658284 
3535.000000	97.656983 
3534.000000	97.655578 
3533.000000	97.654213 
3532.000000	97.653314 
3531.000000	97.653369 
3530.000000	97.653995 
3529.000000	97.653862 
3528.000000	97.652015 
3527.000000	97.649114 
3526.000000	97.646935 
3525.000000	97.646690 
3524.000000	97.648219 
3523.000000	97.650468 
3522.000000	97.652425 
3521.000000	97.653732 
3520.000000	97.654709 
3519.000000	97.655787 
3518.000000	97.656961 
3517.000000	97.657651 
3516.000000	97.657291 
3515.000000	97.655986 
3514.000000	97.654566 
3513.000000	97.653892 
3512.000000	97.654062 
3511.000000	97.654382 
3510.000000	97.654123 
3509.000000	97.653235 
3508.000000	97.652260 
3507.000000	97.651682 
3506.000000	97.651527 
3505.000000	97.651514 
3504.000000	97.651402 
3503.000000	97.651106 
3502.000000	97.650643 
3501.000000	97.650129 
3500.000000	97.649795 
3499.000000	97.649817 
3498.000000	97.650074 
3497.000000	97.650200 
3496.000000	97.649914 
3495.000000	97.649286 
3494.000000	97.648694 
3493.000000	97.648484 
3492.000000	97.648657 
3491.000000	97.648874 
3490.000000	97.648878 
3489.000000	97.648777 
3488.000000	97.648681 
3487.000000	97.648247 
3486.000000	97.647010 
3485.000000	97.645173 
3484.000000	97.643599 
3483.000000	97.642838 
3482.000000	97.642571 
3481.000000	97.642198 
3480.000000	97.641674 
3479.000000	97.641355 
3478.000000	97.641223 
3477.000000	97.640743 
3476.000000	97.639505 
3475.000000	97.637706 
3474.000000	97.635977 
3473.000000	97.634824 
3472.000000	97.634317 
3471.000000	97.634168 
3470.000000	97.634020 
3469.000000	97.633742 
3468.000000	97.633437 
3467.000000	97.633199 
3466.000000	97.632989 
3465.000000	97.632662 
3464.000000	97.631975 
3463.000000	97.630641 
3462.000000	97.628559 
3461.000000	97.626067 
3460.000000	97.623802 
3459.000000	97.622151 
3458.000000	97.620930 
3457.000000	97.619641 
3456.000000	97.618056 
3455.000000	97.616452 
3454.000000	97.615306 
3453.000000	97.614781 
3452.000000	97.614573 
3451.000000	97.614220 
3450.000000	97.613472 
3449.000000	97.612337 
3448.000000	97.610881 
3447.000000	97.609129 
3446.000000	97.607178 
3445.000000	97.605330 
3444.000000	97.603964 
3443.000000	97.603227 
3442.000000	97.602900 
3441.000000	97.602548 
3440.000000	97.601867 
3439.000000	97.600841 
3438.000000	97.599620 
3437.000000	97.598362 
3436.000000	97.597213 
3435.000000	97.596296 
3434.000000	97.595643 
3433.000000	97.595117 
3432.000000	97.594494 
3431.000000	97.593674 
3430.000000	97.592724 
3429.000000	97.591749 
3428.000000	97.590766 
3427.000000	97.589746 
3426.000000	97.588741 
3425.000000	97.587848 
3424.000000	97.587089 
3423.000000	97.586389 
3422.000000	97.585660 
3421.000000	97.584883 
3420.000000	97.584094 
3419.000000	97.583342 
3418.000000	97.582647 
3417.000000	97.582004 
3416.000000	97.581404 
3415.000000	97.580838 
3414.000000	97.580278 
3413.000000	97.579691 
3412.000000	97.579067 
3411.000000	97.578444 
3410.000000	97.577886 
3409.000000	97.577433 
3408.000000	97.577075 
3407.000000	97.576768 
3406.000000	97.576475 
3405.000000	97.576185 
3404.000000	97.575906 
3403.000000	97.575646 
3402.000000	97.575400 
3401.000000	97.575163 
3400.000000	97.574939 
3399.000000	97.574737 
3398.000000	97.574563 
3397.000000	97.574411 
3396.000000	97.574281 
3395.000000	97.574185 
3394.000000	97.574133 
3393.000000	97.574118 
3392.000000	97.574123 
3391.000000	97.574135 
3390.000000	97.574156 
3389.000000	97.574212 
3388.000000	97.574342 
3387.000000	97.574570 
3386.000000	97.574892 
3385.000000	97.575259 
3384.000000	97.575609 
3383.000000	97.575898 
3382.000000	97.576149 
3381.000000	97.576471 
3380.000000	97.576946 
3379.000000	97.577539 
3378.000000	97.578125 
3377.000000	97.578653 
3376.000000	97.579207 
3375.000000	97.579860 
3374.000000	97.580539 
3373.000000	97.581120 
3372.000000	97.581619 
3371.000000	97.582211 
3370.000000	97.583035 
3369.000000	97.584053 
3368.000000	97.585097 
3367.000000	97.585994 
3366.000000	97.586614 
3365.000000	97.586911 
3364.000000	97.586994 
3363.000000	97.587115 
3362.000000	97.587501 
3361.000000	97.588217 
3360.000000	97.589228 
3359.000000	97.590489 
3358.000000	97.591898 
3357.000000	97.593223 
3356.000000	97.594240 
3355.000000	97.594961 
3354.000000	97.595669 
3353.000000	97.596687 
3352.000000	97.598121 
3351.000000	97.599813 
3350.000000	97.601475 
3349.000000	97.602848 
3348.000000	97.603819 
3347.000000	97.604510 
3346.000000	97.605220 
3345.000000	97.606162 
3344.000000	97.607217 
3343.000000	97.608008 
3342.000000	97.608301 
3341.000000	97.608328 
3340.000000	97.608561 
3339.000000	97.609123 
3338.000000	97.609764 
3337.000000	97.610314 
3336.000000	97.610907 
3335.000000	97.611719 
3334.000000	97.612680 
3333.000000	97.613553 
3332.000000	97.614216 
3331.000000	97.614753 
3330.000000	97.615293 
3329.000000	97.615896 
3328.000000	97.616578 
3327.000000	97.617371 
3326.000000	97.618274 
3325.000000	97.619208 
3324.000000	97.620048 
3323.000000	97.620739 
3322.000000	97.621334 
3321.000000	97.621939 
3320.000000	97.622611 
3319.000000	97.623330 
3318.000000	97.624046 
3317.000000	97.624734 
3316.000000	97.625398 
3315.000000	97.626050 
3314.000000	97.626689 
3313.000000	97.627310 
3312.000000	97.627915 
3311.000000	97.628517 
3310.000000	97.629131 
3309.000000	97.629759 
3308.000000	97.630386 
3307.000000	97.630982 
3306.000000	97.631538 
3305.000000	97.632075 
3304.000000	97.632621 
3303.000000	97.633194 
3302.000000	97.633798 
3301.000000	97.634431 
3300.000000	97.635084 
3299.000000	97.635743 
3298.000000	97.636395 
3297.000000	97.637033 
3296.000000	97.637674 
3295.000000	97.638349 
3294.000000	97.639078 
3293.000000	97.639852 
3292.000000	97.640641 
3291.000000	97.641422 
3290.000000	97.642189 
3289.000000	97.642939 
3288.000000	97.643676 
3287.000000	97.644406 
3286.000000	97.645136 
3285.000000	97.645861 
3284.000000	97.646572 
3283.000000	97.647268 
3282.000000	97.647979 
3281.000000	97.648738 
3280.000000	97.649546 
3279.000000	97.650358 
3278.000000	97.651133 
3277.000000	97.651892 
3276.000000	97.652698 
3275.000000	97.653574 
3274.000000	97.654486 
3273.000000	97.655394 
3272.000000	97.656298 
3271.000000	97.657227 
3270.000000	97.658191 
3269.000000	97.659166 
3268.000000	97.660119 
3267.000000	97.661033 
3266.000000	97.661927 
3265.000000	97.662850 
3264.000000	97.663839 
3263.000000	97.664897 
3262.000000	97.665982 
3261.000000	97.667042 
3260.000000	97.668056 
3259.000000	97.669027 
3258.000000	97.669967 
3257.000000	97.670898 
3256.000000	97.671854 
3255.000000	97.672848 
3254.000000	97.673852 
3253.000000	97.674835 
3252.000000	97.675808 
3251.000000	97.676804 
3250.000000	97.677832 
3249.000000	97.678876 
3248.000000	97.679914 
3247.000000	97.680943 
3246.000000	97.681979 
3245.000000	97.683029 
3244.000000	97.684091 
3243.000000	97.685147 
3242.000000	97.686182 
3241.000000	97.687195 
3240.000000	97.688194 
3239.000000	97.689192 
3238.000000	97.690207 
3237.000000	97.691261 
3236.000000	97.692375 
3235.000000	97.693545 
3234.000000	97.694730 
3233.000000	97.695870 
3232.000000	97.696922 
3231.000000	97.697893 
3230.000000	97.698838 
3229.000000	97.699810 
3228.000000	97.700828 
3227.000000	97.701892 
3226.000000	97.703004 
3225.000000	97.704167 
3224.000000	97.705357 
3223.000000	97.706503 
3222.000000	97.707549 
3221.000000	97.708518 
3220.000000	97.709508 
3219.000000	97.710577 
3218.000000	97.711696 
3217.000000	97.712807 
3216.000000	97.713908 
3215.000000	97.715060 
3214.000000	97.716322 
3213.000000	97.717694 
3212.000000	97.719106 
3211.000000	97.720448 
3210.000000	97.721665 
3209.000000	97.722817 
3208.000000	97.724012 
3207.000000	97.725258 
3206.000000	97.726420 
3205.000000	97.727406 
3204.000000	97.728371 
3203.000000	97.729623 
3202.000000	97.731323 
3201.000000	97.733300 
3200.000000	97.735173 
3199.000000	97.736704 
3198.000000	97.738010 
3197.000000	97.739399 
3196.000000	97.740981 
3195.000000	97.742565 
3194.000000	97.744022 
3193.000000	97.745581 
3192.000000	97.747541 
3191.000000	97.749765 
3190.000000	97.751681 
3189.000000	97.752868 
3188.000000	97.753459 
3187.000000	97.754051 
3186.000000	97.755237 
3185.000000	97.757229 
3184.000000	97.759745 
3183.000000	97.762228 
3182.000000	97.764361 
3181.000000	97.766262 
3180.000000	97.768145 
3179.000000	97.769960 
3178.000000	97.771555 
3177.000000	97.773041 
3176.000000	97.774714 
3175.000000	97.776665 
3174.000000	97.778735 
3173.000000	97.780789 
3172.000000	97.782771 
3171.000000	97.784539 
3170.000000	97.785938 
3169.000000	97.787077 
3168.000000	97.788271 
3167.000000	97.789653 
3166.000000	97.791075 
3165.000000	97.792415 
3164.000000	97.793720 
3163.000000	97.795015 
3162.000000	97.796188 
3161.000000	97.797166 
3160.000000	97.798069 
3159.000000	97.799124 
3158.000000	97.800478 
3157.000000	97.802131 
3156.000000	97.803943 
3155.000000	97.805692 
3154.000000	97.807234 
3153.000000	97.808622 
3152.000000	97.810044 
3151.000000	97.811589 
3150.000000	97.813135 
3149.000000	97.814493 
3148.000000	97.815607 
3147.000000	97.816627 
3146.000000	97.817817 
3145.000000	97.819347 
3144.000000	97.821154 
3143.000000	97.822915 
3142.000000	97.824314 
3141.000000	97.825322 
3140.000000	97.826232 
3139.000000	97.827395 
3138.000000	97.828918 
3137.000000	97.830629 
3136.000000	97.832215 
3135.000000	97.833377 
3134.000000	97.833993 
3133.000000	97.834260 
3132.000000	97.834636 
3131.000000	97.835452 
3130.000000	97.836699 
3129.000000	97.838248 
3128.000000	97.840087 
3127.000000	97.842238 
3126.000000	97.844573 
3125.000000	97.846850 
3124.000000	97.848854 
3123.000000	97.850426 
3122.000000	97.851502 
3121.000000	97.852257 
3120.000000	97.853092 
3119.000000	97.854293 
3118.000000	97.855811 
3117.000000	97.857471 
3116.000000	97.859239 
3115.000000	97.861116 
3114.000000	97.862929 
3113.000000	97.864474 
3112.000000	97.865844 
3111.000000	97.867377 
3110.000000	97.869259 
3109.000000	97.871287 
3108.000000	97.873125 
3107.000000	97.874694 
3106.000000	97.876164 
3105.000000	97.877541 
3104.000000	97.878424 
3103.000000	97.878387 
3102.000000	97.877594 
3101.000000	97.876781 
3100.000000	97.876495 
3099.000000	97.876685 
3098.000000	97.877246 
3097.000000	97.878618 
3096.000000	97.881255 
3095.000000	97.884661 
3094.000000	97.887673 
3093.000000	97.889783 
3092.000000	97.891507 
3091.000000	97.893222 
3090.000000	97.894346 
3089.000000	97.894150 
3088.000000	97.892942 
3087.000000	97.892077 
3086.000000	97.892852 
3085.000000	97.895475 
3084.000000	97.898666 
3083.000000	97.900316 
3082.000000	97.899383 
3081.000000	97.897447 
3080.000000	97.897345 
3079.000000	97.899708 
3078.000000	97.902247 
3077.000000	97.903110 
3076.000000	97.903298 
3075.000000	97.904457 
3074.000000	97.906008 
3073.000000	97.906381 
3072.000000	97.905932 
3071.000000	97.906448 
3070.000000	97.908241 
3069.000000	97.909842 
3068.000000	97.910369 
3067.000000	97.910250 
3066.000000	97.909614 
3065.000000	97.907861 
3064.000000	97.905065 
3063.000000	97.902140 
3062.000000	97.899330 
3061.000000	97.896036 
3060.000000	97.892529 
3059.000000	97.890475 
3058.000000	97.891365 
3057.000000	97.895078 
3056.000000	97.899885 
3055.000000	97.902968 
3054.000000	97.901663 
3053.000000	97.895986 
3052.000000	97.889929 
3051.000000	97.888400 
3050.000000	97.892145 
3049.000000	97.896917 
3048.000000	97.897971 
3047.000000	97.893989 
3046.000000	97.886518 
3045.000000	97.877823 
3044.000000	97.870431 
3043.000000	97.867099 
3042.000000	97.868925 
3041.000000	97.873313 
3040.000000	97.875122 
3039.000000	97.870620 
3038.000000	97.860298 
3037.000000	97.847871 
3036.000000	97.836580 
3035.000000	97.826545 
3034.000000	97.815862 
3033.000000	97.803697 
3032.000000	97.791251 
3031.000000	97.779933 
3030.000000	97.769771 
3029.000000	97.759900 
3028.000000	97.749229 
3027.000000	97.736043 
3026.000000	97.718655 
3025.000000	97.697900 
3024.000000	97.677838 
3023.000000	97.662075 
3022.000000	97.649953 
3021.000000	97.638084 
3020.000000	97.624871 
3019.000000	97.611334 
3018.000000	97.597671 
3017.000000	97.581537 
3016.000000	97.560761 
3015.000000	97.536165 
3014.000000	97.510934 
3013.000000	97.488071 
3012.000000	97.468582 
3011.000000	97.450795 
3010.000000	97.431207 
3009.000000	97.407384 
3008.000000	97.380389 
3007.000000	97.353381 
3006.000000	97.327883 
3005.000000	97.302996 
3004.000000	97.278316 
3003.000000	97.255516 
3002.000000	97.236143 
3001.000000	97.219513 
3000.000000	97.203770 
2999.000000	97.187636 
2998.000000	97.170310 
2997.000000	97.151394 
2996.000000	97.132015 
2995.000000	97.114050 
2994.000000	97.096289 
2993.000000	97.072843 
2992.000000	97.038350 
2991.000000	96.995166 
2990.000000	96.953584 
2989.000000	96.924269 
2988.000000	96.911449 
2987.000000	96.912806 
2986.000000	96.923345 
2985.000000	96.938338 
2984.000000	96.953846 
2983.000000	96.966690 
2982.000000	96.975021 
2981.000000	96.978664 
2980.000000	96.978387 
2979.000000	96.974750 
2978.000000	96.967904 
2977.000000	96.958598 
2976.000000	96.948921 
2975.000000	96.941450 
2974.000000	96.937663 
2973.000000	96.937596 
2972.000000	96.940831 
2971.000000	96.947031 
2970.000000	96.955581 
2969.000000	96.965829 
2968.000000	96.978121 
2967.000000	96.993567 
2966.000000	97.012034 
2965.000000	97.031180 
2964.000000	97.048432 
2963.000000	97.063355 
2962.000000	97.077175 
2961.000000	97.090452 
2960.000000	97.102513 
2959.000000	97.113231 
2958.000000	97.124220 
2957.000000	97.137527 
2956.000000	97.153286 
2955.000000	97.169046 
2954.000000	97.181754 
2953.000000	97.190819 
2952.000000	97.199162 
2951.000000	97.210500 
2950.000000	97.225045 
2949.000000	97.238552 
2948.000000	97.246458 
2947.000000	97.248323 
2946.000000	97.247663 
2945.000000	97.248059 
2944.000000	97.250380 
2943.000000	97.253628 
2942.000000	97.256768 
2941.000000	97.258974 
2940.000000	97.259484 
2939.000000	97.258358 
2938.000000	97.256788 
2937.000000	97.255864 
2936.000000	97.255341 
2935.000000	97.254051 
2934.000000	97.251192 
2933.000000	97.246752 
2932.000000	97.241090 
2931.000000	97.234770 
2930.000000	97.228700 
2929.000000	97.223789 
2928.000000	97.220181 
2927.000000	97.216990 
2926.000000	97.213077 
2925.000000	97.208357 
2924.000000	97.204412 
2923.000000	97.203376 
2922.000000	97.205762 
2921.000000	97.209590 
2920.000000	97.212420 
2919.000000	97.214106 
2918.000000	97.216400 
2917.000000	97.219427 
2916.000000	97.219872 
2915.000000	97.214111 
2914.000000	97.202886 
2913.000000	97.191500 
2912.000000	97.184940 
2911.000000	97.183525 
2910.000000	97.183758 
2909.000000	97.182667 
2908.000000	97.180496 
2907.000000	97.179048 
2906.000000	97.178020 
2905.000000	97.173707 
2904.000000	97.162444 
2903.000000	97.145744 
2902.000000	97.132261 
2901.000000	97.131496 
2900.000000	97.146230 
2899.000000	97.170778 
2898.000000	97.195869 
2897.000000	97.215643 
2896.000000	97.229231 
2895.000000	97.237826 
2894.000000	97.242989 
2893.000000	97.247491 
2892.000000	97.254786 
2891.000000	97.265868 
2890.000000	97.277826 
2889.000000	97.286948 
2888.000000	97.292543 
2887.000000	97.296467 
2886.000000	97.299889 
2885.000000	97.302725 
2884.000000	97.306340 
2883.000000	97.314228 
2882.000000	97.328469 
2881.000000	97.346815 
2880.000000	97.364963 
2879.000000	97.381233 
2878.000000	97.397152 
2877.000000	97.413649 
2876.000000	97.428846 
2875.000000	97.440452 
2874.000000	97.448794 
2873.000000	97.456145 
2872.000000	97.463961 
2871.000000	97.472076 
2870.000000	97.480134 
2869.000000	97.488377 
2868.000000	97.497083 
2867.000000	97.506488 
2866.000000	97.517342 
2865.000000	97.530366 
2864.000000	97.544956 
2863.000000	97.559672 
2862.000000	97.574391 
2861.000000	97.590579 
2860.000000	97.608686 
2859.000000	97.626714 
2858.000000	97.642617 
2857.000000	97.657156 
2856.000000	97.672665 
2855.000000	97.689361 
2854.000000	97.704725 
2853.000000	97.716577 
2852.000000	97.725294 
2851.000000	97.732905 
2850.000000	97.741217 
2849.000000	97.751147 
2848.000000	97.762812 
2847.000000	97.775401 
2846.000000	97.787411 
2845.000000	97.797628 
2844.000000	97.805943 
2843.000000	97.813267 
2842.000000	97.820903 
2841.000000	97.829666 
2840.000000	97.839010 
2839.000000	97.847216 
2838.000000	97.853034 
2837.000000	97.857048 
2836.000000	97.860973 
2835.000000	97.865890 
2834.000000	97.871893 
2833.000000	97.879176 
2832.000000	97.888067 
2831.000000	97.897657 
2830.000000	97.905567 
2829.000000	97.909950 
2828.000000	97.911357 
2827.000000	97.912257 
2826.000000	97.915067 
2825.000000	97.920651 
2824.000000	97.927890 
2823.000000	97.934233 
2822.000000	97.937366 
2821.000000	97.937102 
2820.000000	97.935410 
2819.000000	97.934327 
2818.000000	97.934355 
2817.000000	97.935253 
2816.000000	97.937402 
2815.000000	97.941300 
2814.000000	97.946074 
2813.000000	97.949648 
2812.000000	97.950641 
2811.000000	97.949558 
2810.000000	97.948120 
2809.000000	97.947916 
2808.000000	97.949748 
2807.000000	97.953642 
2806.000000	97.958956 
2805.000000	97.964504 
2804.000000	97.968852 
2803.000000	97.970896 
2802.000000	97.970670 
2801.000000	97.969753 
2800.000000	97.970368 
2799.000000	97.973425 
2798.000000	97.977535 
2797.000000	97.980347 
2796.000000	97.980866 
2795.000000	97.980125 
2794.000000	97.979824 
2793.000000	97.980785 
2792.000000	97.982796 
2791.000000	97.985297 
2790.000000	97.987750 
2789.000000	97.989669 
2788.000000	97.990861 
2787.000000	97.991685 
2786.000000	97.992763 
2785.000000	97.994377 
2784.000000	97.996252 
2783.000000	97.997953 
2782.000000	97.999332 
2781.000000	98.000563 
2780.000000	98.001852 
2779.000000	98.003245 
2778.000000	98.004687 
2777.000000	98.006115 
2776.000000	98.007479 
2775.000000	98.008756 
2774.000000	98.009960 
2773.000000	98.011138 
2772.000000	98.012329 
2771.000000	98.013539 
2770.000000	98.014770 
2769.000000	98.016046 
2768.000000	98.017379 
2767.000000	98.018723 
2766.000000	98.019987 
2765.000000	98.021134 
2764.000000	98.022210 
2763.000000	98.023272 
2762.000000	98.024304 
2761.000000	98.025252 
2760.000000	98.026122 
2759.000000	98.027005 
2758.000000	98.027982 
2757.000000	98.029031 
2756.000000	98.030027 
2755.000000	98.030890 
2754.000000	98.031685 
2753.000000	98.032569 
2752.000000	98.033611 
2751.000000	98.034732 
2750.000000	98.035827 
2749.000000	98.036900 
2748.000000	98.037981 
2747.000000	98.038950 
2746.000000	98.039643 
2745.000000	98.040073 
2744.000000	98.040482 
2743.000000	98.041114 
2742.000000	98.041991 
2741.000000	98.042977 
2740.000000	98.043930 
2739.000000	98.044808 
2738.000000	98.045596 
2737.000000	98.046275 
2736.000000	98.046896 
2735.000000	98.047601 
2734.000000	98.048487 
2733.000000	98.049517 
2732.000000	98.050562 
2731.000000	98.051533 
2730.000000	98.052450 
2729.000000	98.053375 
2728.000000	98.054318 
2727.000000	98.055210 
2726.000000	98.055992 
2725.000000	98.056692 
2724.000000	98.057403 
2723.000000	98.058189 
2722.000000	98.059035 
2721.000000	98.059888 
2720.000000	98.060733 
2719.000000	98.061600 
2718.000000	98.062510 
2717.000000	98.063441 
2716.000000	98.064340 
2715.000000	98.065179 
2714.000000	98.065985 
2713.000000	98.066795 
2712.000000	98.067599 
2711.000000	98.068359 
2710.000000	98.069060 
2709.000000	98.069729 
2708.000000	98.070401 
2707.000000	98.071091 
2706.000000	98.071799 
2705.000000	98.072519 
2704.000000	98.073242 
2703.000000	98.073954 
2702.000000	98.074648 
2701.000000	98.075328 
2700.000000	98.076001 
2699.000000	98.076669 
2698.000000	98.077323 
2697.000000	98.077953 
2696.000000	98.078549 
2695.000000	98.079110 
2694.000000	98.079642 
2693.000000	98.080152 
2692.000000	98.080639 
2691.000000	98.081108 
2690.000000	98.081558 
2689.000000	98.081988 
2688.000000	98.082399 
2687.000000	98.082792 
2686.000000	98.083168 
2685.000000	98.083535 
2684.000000	98.083904 
2683.000000	98.084282 
2682.000000	98.084656 
2681.000000	98.085005 
2680.000000	98.085324 
2679.000000	98.085632 
2678.000000	98.085943 
2677.000000	98.086251 
2676.000000	98.086518 
2675.000000	98.086703 
2674.000000	98.086793 
2673.000000	98.086825 
2672.000000	98.086872 
2671.000000	98.086980 
2670.000000	98.087146 
2669.000000	98.087332 
2668.000000	98.087526 
2667.000000	98.087749 
2666.000000	98.087983 
2665.000000	98.088143 
2664.000000	98.088182 
2663.000000	98.088165 
2662.000000	98.088219 
2661.000000	98.088396 
2660.000000	98.088622 
2659.000000	98.088782 
2658.000000	98.088828 
2657.000000	98.088780 
2656.000000	98.088673 
2655.000000	98.088527 
2654.000000	98.088328 
2653.000000	98.088045 
2652.000000	98.087715 
2651.000000	98.087524 
2650.000000	98.087689 
2649.000000	98.088232 
2648.000000	98.088894 
2647.000000	98.089341 
2646.000000	98.089428 
2645.000000	98.089211 
2644.000000	98.088815 
2643.000000	98.088359 
2642.000000	98.087974 
2641.000000	98.087743 
2640.000000	98.087627 
2639.000000	98.087525 
2638.000000	98.087444 
2637.000000	98.087487 
2636.000000	98.087672 
2635.000000	98.087910 
2634.000000	98.088179 
2633.000000	98.088536 
2632.000000	98.088878 
2631.000000	98.088926 
2630.000000	98.088584 
2629.000000	98.088150 
2628.000000	98.087953 
2627.000000	98.087881 
2626.000000	98.087570 
2625.000000	98.087018 
2624.000000	98.086702 
2623.000000	98.087004 
2622.000000	98.087752 
2621.000000	98.088369 
2620.000000	98.088345 
2619.000000	98.087453 
2618.000000	98.085756 
2617.000000	98.083697 
2616.000000	98.082021 
2615.000000	98.081300 
2614.000000	98.081550 
2613.000000	98.082270 
2612.000000	98.082903 
2611.000000	98.083295 
2610.000000	98.083678 
2609.000000	98.084265 
2608.000000	98.084887 
2607.000000	98.085126 
2606.000000	98.084907 
2605.000000	98.084655 
2604.000000	98.084641 
2603.000000	98.084485 
2602.000000	98.083790 
2601.000000	98.082968 
2600.000000	98.082776 
2599.000000	98.083130 
2598.000000	98.083176 
2597.000000	98.082640 
2596.000000	98.082228 
2595.000000	98.082358 
2594.000000	98.082303 
2593.000000	98.081277 
2592.000000	98.079768 
2591.000000	98.078861 
2590.000000	98.078584 
2589.000000	98.077996 
2588.000000	98.076887 
2587.000000	98.076314 
2586.000000	98.077092 
2585.000000	98.078759 
2584.000000	98.080325 
2583.000000	98.081410 
2582.000000	98.082198 
2581.000000	98.082764 
2580.000000	98.083075 
2579.000000	98.083405 
2578.000000	98.084170 
2577.000000	98.085282 
2576.000000	98.085983 
2575.000000	98.085520 
2574.000000	98.083906 
2573.000000	98.081921 
2572.000000	98.080356 
2571.000000	98.079288 
2570.000000	98.078293 
2569.000000	98.077324 
2568.000000	98.076997 
2567.000000	98.077727 
2566.000000	98.078868 
2565.000000	98.079200 
2564.000000	98.078233 
2563.000000	98.076646 
2562.000000	98.075505 
2561.000000	98.075428 
2560.000000	98.076603 
2559.000000	98.078985 
2558.000000	98.081988 
2557.000000	98.084348 
2556.000000	98.085033 
2555.000000	98.084218 
2554.000000	98.083037 
2553.000000	98.082257 
2552.000000	98.081617 
2551.000000	98.080763 
2550.000000	98.080099 
2549.000000	98.080147 
2548.000000	98.080402 
2547.000000	98.079672 
2546.000000	98.077649 
2545.000000	98.075511 
2544.000000	98.074547 
2543.000000	98.074570 
2542.000000	98.074275 
2541.000000	98.073047 
2540.000000	98.071797 
2539.000000	98.071669 
2538.000000	98.072631 
2537.000000	98.073776 
2536.000000	98.074596 
2535.000000	98.075348 
2534.000000	98.076195 
2533.000000	98.076704 
2532.000000	98.076479 
2531.000000	98.075849 
2530.000000	98.075493 
2529.000000	98.075515 
2528.000000	98.075372 
2527.000000	98.074784 
2526.000000	98.074281 
2525.000000	98.074557 
2524.000000	98.075599 
2523.000000	98.076709 
2522.000000	98.077264 
2521.000000	98.077230 
2520.000000	98.076929 
2519.000000	98.076631 
2518.000000	98.076421 
2517.000000	98.076220 
2516.000000	98.075835 
2515.000000	98.075175 
2514.000000	98.074499 
2513.000000	98.074236 
2512.000000	98.074495 
2511.000000	98.075004 
2510.000000	98.075512 
2509.000000	98.076060 
2508.000000	98.076693 
2507.000000	98.077185 
2506.000000	98.077313 
2505.000000	98.077241 
2504.000000	98.077362 
2503.000000	98.077758 
2502.000000	98.078086 
2501.000000	98.078071 
2500.000000	98.077817 
2499.000000	98.077591 
2498.000000	98.077525 
2497.000000	98.077566 
2496.000000	98.077661 
2495.000000	98.077829 
2494.000000	98.078059 
2493.000000	98.078235 
2492.000000	98.078256 
2491.000000	98.078229 
2490.000000	98.078396 
2489.000000	98.078820 
2488.000000	98.079208 
2487.000000	98.079205 
2486.000000	98.078819 
2485.000000	98.078462 
2484.000000	98.078487 
2483.000000	98.078820 
2482.000000	98.079115 
2481.000000	98.079209 
2480.000000	98.079242 
2479.000000	98.079357 
2478.000000	98.079518 
2477.000000	98.079639 
2476.000000	98.079645 
2475.000000	98.079408 
2474.000000	98.078839 
2473.000000	98.078098 
2472.000000	98.077472 
2471.000000	98.077008 
2470.000000	98.076592 
2469.000000	98.076347 
2468.000000	98.076568 
2467.000000	98.077174 
2466.000000	98.077569 
2465.000000	98.077300 
2464.000000	98.076656 
2463.000000	98.076377 
2462.000000	98.076921 
2461.000000	98.078215 
2460.000000	98.079888 
2459.000000	98.081511 
2458.000000	98.082631 
2457.000000	98.082851 
2456.000000	98.082066 
2455.000000	98.080662 
2454.000000	98.079374 
2453.000000	98.078669 
2452.000000	98.078315 
2451.000000	98.077758 
2450.000000	98.076966 
2449.000000	98.076619 
2448.000000	98.077201 
2447.000000	98.078264 
2446.000000	98.078841 
2445.000000	98.078572 
2444.000000	98.077947 
2443.000000	98.077586 
2442.000000	98.077630 
2441.000000	98.077895 
2440.000000	98.078235 
2439.000000	98.078650 
2438.000000	98.079228 
2437.000000	98.080099 
2436.000000	98.081223 
2435.000000	98.082208 
2434.000000	98.082611 
2433.000000	98.082414 
2432.000000	98.082069 
2431.000000	98.082043 
2430.000000	98.082445 
2429.000000	98.083148 
2428.000000	98.083958 
2427.000000	98.084632 
2426.000000	98.084948 
2425.000000	98.084891 
2424.000000	98.084686 
2423.000000	98.084597 
2422.000000	98.084756 
2421.000000	98.085205 
2420.000000	98.085914 
2419.000000	98.086705 
2418.000000	98.087336 
2417.000000	98.087798 
2416.000000	98.088295 
2415.000000	98.088934 
2414.000000	98.089627 
2413.000000	98.090320 
2412.000000	98.091078 
2411.000000	98.091875 
2410.000000	98.092486 
2409.000000	98.092819 
2408.000000	98.093101 
2407.000000	98.093558 
2406.000000	98.094113 
2405.000000	98.094545 
2404.000000	98.094793 
2403.000000	98.094985 
2402.000000	98.095271 
2401.000000	98.095723 
2400.000000	98.096341 
2399.000000	98.097062 
2398.000000	98.097795 
2397.000000	98.098506 
2396.000000	98.099226 
2395.000000	98.099939 
2394.000000	98.100529 
2393.000000	98.100941 
2392.000000	98.101269 
2391.000000	98.101668 
2390.000000	98.102151 
2389.000000	98.102625 
2388.000000	98.103032 
2387.000000	98.103389 
2386.000000	98.103724 
2385.000000	98.104051 
2384.000000	98.104375 
2383.000000	98.104694 
2382.000000	98.105004 
2381.000000	98.105308 
2380.000000	98.105609 
2379.000000	98.105910 
2378.000000	98.106200 
2377.000000	98.106470 
2376.000000	98.106709 
2375.000000	98.106919 
2374.000000	98.107105 
2373.000000	98.107271 
2372.000000	98.107416 
2371.000000	98.107543 
2370.000000	98.107654 
2369.000000	98.107742 
2368.000000	98.107800 
2367.000000	98.107825 
2366.000000	98.107832 
2365.000000	98.107842 
2364.000000	98.107876 
2363.000000	98.107937 
2362.000000	98.108015 
2361.000000	98.108093 
2360.000000	98.108153 
2359.000000	98.108175 
2358.000000	98.108147 
2357.000000	98.108069 
2356.000000	98.107953 
2355.000000	98.107813 
2354.000000	98.107661 
2353.000000	98.107505 
2352.000000	98.107362 
2351.000000	98.107240 
2350.000000	98.107132 
2349.000000	98.107020 
2348.000000	98.106903 
2347.000000	98.106801 
2346.000000	98.106741 
2345.000000	98.106730 
2344.000000	98.106755 
2343.000000	98.106795 
2342.000000	98.106841 
2341.000000	98.106895 
2340.000000	98.106960 
2339.000000	98.107026 
2338.000000	98.107069 
2337.000000	98.107067 
2336.000000	98.107016 
2335.000000	98.106929 
2334.000000	98.106821 
2333.000000	98.106704 
2332.000000	98.106588 
2331.000000	98.106477 
2330.000000	98.106367 
2329.000000	98.106255 
2328.000000	98.106116 
2327.000000	98.105921 
2326.000000	98.105686 
2325.000000	98.105453 
2324.000000	98.105321 
2323.000000	98.105391 
2322.000000	98.105600 
2321.000000	98.105676 
2320.000000	98.105422 
2319.000000	98.105046 
2318.000000	98.104846 
2317.000000	98.104775 
2316.000000	98.104444 
2315.000000	98.103773 
2314.000000	98.103095 
2313.000000	98.102781 
2312.000000	98.102976 
2311.000000	98.103645 
2310.000000	98.104440 
2309.000000	98.104631 
2308.000000	98.103916 
2307.000000	98.102878 
2306.000000	98.102225 
2305.000000	98.101744 
2304.000000	98.100898 
2303.000000	98.099997 
2302.000000	98.100017 
2301.000000	98.101143 
2300.000000	98.102117 
2299.000000	98.101277 
2298.000000	98.097829 
2297.000000	98.092223 
2296.000000	98.086181 
2295.000000	98.081659 
2294.000000	98.079591 
2293.000000	98.079228 
2292.000000	98.079218 
2291.000000	98.078903 
2290.000000	98.078586 
2289.000000	98.078567 
2288.000000	98.078522 
2287.000000	98.077716 
2286.000000	98.075703 
2285.000000	98.072888 
2284.000000	98.070310 
2283.000000	98.068623 
2282.000000	98.067403 
2281.000000	98.065658 
2280.000000	98.062949 
2279.000000	98.059754 
2278.000000	98.056849 
2277.000000	98.054750 
2276.000000	98.053624 
2275.000000	98.053269 
2274.000000	98.053113 
2273.000000	98.052730 
2272.000000	98.052254 
2271.000000	98.051897 
2270.000000	98.051297 
2269.000000	98.049872 
2268.000000	98.047713 
2267.000000	98.045564 
2266.000000	98.043919 
2265.000000	98.042597 
2264.000000	98.041190 
2263.000000	98.039516 
2262.000000	98.037609 
2261.000000	98.035589 
2260.000000	98.033662 
2259.000000	98.032006 
2258.000000	98.030594 
2257.000000	98.029281 
2256.000000	98.028017 
2255.000000	98.026838 
2254.000000	98.025697 
2253.000000	98.024424 
2252.000000	98.022901 
2251.000000	98.021181 
2250.000000	98.019391 
2249.000000	98.017620 
2248.000000	98.015902 
2247.000000	98.014241 
2246.000000	98.012618 
2245.000000	98.011016 
2244.000000	98.009429 
2243.000000	98.007856 
2242.000000	98.006308 
2241.000000	98.004801 
2240.000000	98.003340 
2239.000000	98.001917 
2238.000000	98.000515 
2237.000000	97.999114 
2236.000000	97.997697 
2235.000000	97.996256 
2234.000000	97.994787 
2233.000000	97.993289 
2232.000000	97.991762 
2231.000000	97.990211 
2230.000000	97.988639 
2229.000000	97.987049 
2228.000000	97.985445 
2227.000000	97.983835 
2226.000000	97.982223 
2225.000000	97.980601 
2224.000000	97.978954 
2223.000000	97.977283 
2222.000000	97.975604 
2221.000000	97.973937 
2220.000000	97.972283 
2219.000000	97.970627 
2218.000000	97.968958 
2217.000000	97.967275 
2216.000000	97.965586 
2215.000000	97.963896 
2214.000000	97.962209 
2213.000000	97.960535 
2212.000000	97.958893 
2211.000000	97.957313 
2210.000000	97.955814 
2209.000000	97.954387 
2208.000000	97.953006 
2207.000000	97.951641 
2206.000000	97.950271 
2205.000000	97.948876 
2204.000000	97.947445 
2203.000000	97.945986 
2202.000000	97.944545 
2201.000000	97.943167 
2200.000000	97.941782 
2199.000000	97.940226 
2198.000000	97.938406 
2197.000000	97.936444 
2196.000000	97.934607 
2195.000000	97.933042 
2194.000000	97.931652 
2193.000000	97.930193 
2192.000000	97.928573 
2191.000000	97.926940 
2190.000000	97.925454 
2189.000000	97.924124 
2188.000000	97.922941 
2187.000000	97.921928 
2186.000000	97.920838 
2185.000000	97.919112 
2184.000000	97.916610 
2183.000000	97.914352 
2182.000000	97.913663 
2181.000000	97.914667 
2180.000000	97.915839 
2179.000000	97.915600 
2178.000000	97.913967 
2177.000000	97.912255 
2176.000000	97.911532 
2175.000000	97.911696 
2174.000000	97.912078 
2173.000000	97.912457 
2172.000000	97.913351 
2171.000000	97.915391 
2170.000000	97.918256 
2169.000000	97.920235 
2168.000000	97.919503 
2167.000000	97.916034 
2166.000000	97.911848 
2165.000000	97.908741 
2164.000000	97.906521 
2163.000000	97.904504 
2162.000000	97.903827 
2161.000000	97.906390 
2160.000000	97.911849 
2159.000000	97.917541 
2158.000000	97.921792 
2157.000000	97.925428 
2156.000000	97.929449 
2155.000000	97.933296 
2154.000000	97.936245 
2153.000000	97.939036 
2152.000000	97.942862 
2151.000000	97.947087 
2150.000000	97.949323 
2149.000000	97.948361 
2148.000000	97.946230 
2147.000000	97.946262 
2146.000000	97.949339 
2145.000000	97.953405 
2144.000000	97.956828 
2143.000000	97.960683 
2142.000000	97.966426 
2141.000000	97.972820 
2140.000000	97.977194 
2139.000000	97.979398 
2138.000000	97.982418 
2137.000000	97.988370 
2136.000000	97.995370 
2135.000000	97.999468 
2134.000000	97.998903 
2133.000000	97.995560 
2132.000000	97.993204 
2131.000000	97.994177 
2130.000000	97.997861 
2129.000000	98.001926 
2128.000000	98.004773 
2127.000000	98.006853 
2126.000000	98.009576 
2125.000000	98.013411 
2124.000000	98.017414 
2123.000000	98.020308 
2122.000000	98.021494 
2121.000000	98.021157 
2120.000000	98.019960 
2119.000000	98.018768 
2118.000000	98.018368 
2117.000000	98.019111 
2116.000000	98.020680 
2115.000000	98.022178 
2114.000000	98.022712 
2113.000000	98.022181 
2112.000000	98.021543 
2111.000000	98.021975 
2110.000000	98.023682 
2109.000000	98.025803 
2108.000000	98.027494 
2107.000000	98.028689 
2106.000000	98.029690 
2105.000000	98.030621 
2104.000000	98.031562 
2103.000000	98.032641 
2102.000000	98.033462 
2101.000000	98.032996 
2100.000000	98.030732 
2099.000000	98.027826 
2098.000000	98.026428 
2097.000000	98.027583 
2096.000000	98.030618 
2095.000000	98.034021 
2094.000000	98.036615 
2093.000000	98.037848 
2092.000000	98.037552 
2091.000000	98.036157 
2090.000000	98.034750 
2089.000000	98.034228 
2088.000000	98.034518 
2087.000000	98.034776 
2086.000000	98.034206 
2085.000000	98.032650 
2084.000000	98.030614 
2083.000000	98.028885 
2082.000000	98.027925 
2081.000000	98.027594 
2080.000000	98.027546 
2079.000000	98.027731 
2078.000000	98.028133 
2077.000000	98.028201 
2076.000000	98.027233 
2075.000000	98.025476 
2074.000000	98.024037 
2073.000000	98.023247 
2072.000000	98.022021 
2071.000000	98.019339 
2070.000000	98.015605 
2069.000000	98.012166 
2068.000000	98.009933 
2067.000000	98.008837 
2066.000000	98.008205 
2065.000000	98.007146 
2064.000000	98.004980 
2063.000000	98.001911 
2062.000000	97.999209 
2061.000000	97.998136 
2060.000000	97.998738 
2059.000000	98.000058 
2058.000000	98.001024 
2057.000000	98.001033 
2056.000000	97.999886 
2055.000000	97.997619 
2054.000000	97.994682 
2053.000000	97.991936 
2052.000000	97.990088 
2051.000000	97.989088 
2050.000000	97.988186 
2049.000000	97.986671 
2048.000000	97.984590 
2047.000000	97.982571 
2046.000000	97.981090 
2045.000000	97.980067 
2044.000000	97.979164 
2043.000000	97.978224 
2042.000000	97.977355 
2041.000000	97.976771 
2040.000000	97.976684 
2039.000000	97.977251 
2038.000000	97.978319 
2037.000000	97.979195 
2036.000000	97.979073 
2035.000000	97.977802 
2034.000000	97.976140 
2033.000000	97.975221 
2032.000000	97.975561 
2031.000000	97.976616 
2030.000000	97.977121 
2029.000000	97.976122 
2028.000000	97.973785 
2027.000000	97.971211 
2026.000000	97.969268 
2025.000000	97.967914 
2024.000000	97.966912 
2023.000000	97.966737 
2022.000000	97.968147 
2021.000000	97.970791 
2020.000000	97.972801 
2019.000000	97.972389 
2018.000000	97.969311 
2017.000000	97.964903 
2016.000000	97.960928 
2015.000000	97.958252 
2014.000000	97.956531 
2013.000000	97.954754 
2012.000000	97.952596 
2011.000000	97.951371 
2010.000000	97.952721 
2009.000000	97.956357 
2008.000000	97.959815 
2007.000000	97.961074 
2006.000000	97.960518 
2005.000000	97.959715 
2004.000000	97.959363 
2003.000000	97.959317 
2002.000000	97.959797 
2001.000000	97.961060 
2000.000000	97.962138 
1999.000000	97.961249 
1998.000000	97.957646 
1997.000000	97.952385 
1996.000000	97.947502 
1995.000000	97.944485 
1994.000000	97.943537 
1993.000000	97.943795 
1992.000000	97.943974 
1991.000000	97.943543 
1990.000000	97.943180 
1989.000000	97.943722 
1988.000000	97.944976 
1987.000000	97.945838 
1986.000000	97.945504 
1985.000000	97.944214 
1984.000000	97.942851 
1983.000000	97.942080 
1982.000000	97.941938 
1981.000000	97.942108 
1980.000000	97.942348 
1979.000000	97.942614 
1978.000000	97.942868 
1977.000000	97.943010 
1976.000000	97.943021 
1975.000000	97.943060 
1974.000000	97.943340 
1973.000000	97.943915 
1972.000000	97.944647 
1971.000000	97.945349 
1970.000000	97.945921 
1969.000000	97.946366 
1968.000000	97.946733 
1967.000000	97.947088 
1966.000000	97.947518 
1965.000000	97.948092 
1964.000000	97.948817 
1963.000000	97.949651 
1962.000000	97.950547 
1961.000000	97.951467 
1960.000000	97.952378 
1959.000000	97.953267 
1958.000000	97.954154 
1957.000000	97.955081 
1956.000000	97.956086 
1955.000000	97.957175 
1954.000000	97.958322 
1953.000000	97.959488 
1952.000000	97.960653 
1951.000000	97.961813 
1950.000000	97.962978 
1949.000000	97.964167 
1948.000000	97.965389 
1947.000000	97.966630 
1946.000000	97.967862 
1945.000000	97.969062 
1944.000000	97.970237 
1943.000000	97.971408 
1942.000000	97.972595 
1941.000000	97.973796 
1940.000000	97.975004 
1939.000000	97.976215 
1938.000000	97.977430 
1937.000000	97.978657 
1936.000000	97.979912 
1935.000000	97.981197 
1934.000000	97.982478 
1933.000000	97.983716 
1932.000000	97.984926 
1931.000000	97.986165 
1930.000000	97.987457 
1929.000000	97.988706 
1928.000000	97.989799 
1927.000000	97.990752 
1926.000000	97.991703 
1925.000000	97.992721 
1924.000000	97.993744 
1923.000000	97.994717 
1922.000000	97.995597 
1921.000000	97.996294 
1920.000000	97.996794 
1919.000000	97.997237 
1918.000000	97.997739 
1917.000000	97.998230 
1916.000000	97.998643 
1915.000000	97.999189 
1914.000000	98.000101 
1913.000000	98.001235 
1912.000000	98.002159 
1911.000000	98.002706 
1910.000000	98.003097 
1909.000000	98.003613 
1908.000000	98.004326 
1907.000000	98.005128 
1906.000000	98.005813 
1905.000000	98.006172 
1904.000000	98.006179 
1903.000000	98.006095 
1902.000000	98.006248 
1901.000000	98.006644 
1900.000000	98.007061 
1899.000000	98.007362 
1898.000000	98.007598 
1897.000000	98.007857 
1896.000000	98.008135 
1895.000000	98.008384 
1894.000000	98.008595 
1893.000000	98.008767 
1892.000000	98.008917 
1891.000000	98.009132 
1890.000000	98.009510 
1889.000000	98.010021 
1888.000000	98.010557 
1887.000000	98.011091 
1886.000000	98.011653 
1885.000000	98.012222 
1884.000000	98.012775 
1883.000000	98.013333 
1882.000000	98.013937 
1881.000000	98.014602 
1880.000000	98.015324 
1879.000000	98.016091 
1878.000000	98.016891 
1877.000000	98.017720 
1876.000000	98.018580 
1875.000000	98.019478 
1874.000000	98.020415 
1873.000000	98.021380 
1872.000000	98.022357 
1871.000000	98.023332 
1870.000000	98.024307 
1869.000000	98.025298 
1868.000000	98.026321 
1867.000000	98.027391 
1866.000000	98.028515 
1865.000000	98.029680 
1864.000000	98.030865 
1863.000000	98.032082 
1862.000000	98.033391 
1861.000000	98.034822 
1860.000000	98.036329 
1859.000000	98.037848 
1858.000000	98.039371 
1857.000000	98.040911 
1856.000000	98.042456 
1855.000000	98.043994 
1854.000000	98.045528 
1853.000000	98.047055 
1852.000000	98.048576 
1851.000000	98.050109 
1850.000000	98.051661 
1849.000000	98.053215 
1848.000000	98.054752 
1847.000000	98.056267 
1846.000000	98.057769 
1845.000000	98.059272 
1844.000000	98.060772 
1843.000000	98.062253 
1842.000000	98.063711 
1841.000000	98.065153 
1840.000000	98.066597 
1839.000000	98.068066 
1838.000000	98.069549 
1837.000000	98.070954 
1836.000000	98.072204 
1835.000000	98.073335 
1834.000000	98.074473 
1833.000000	98.075656 
1832.000000	98.076848 
1831.000000	98.078010 
1830.000000	98.079110 
1829.000000	98.080143 
1828.000000	98.081154 
1827.000000	98.082200 
1826.000000	98.083297 
1825.000000	98.084383 
1824.000000	98.085363 
1823.000000	98.086215 
1822.000000	98.087020 
1821.000000	98.087805 
1820.000000	98.088484 
1819.000000	98.089004 
1818.000000	98.089467 
1817.000000	98.090028 
1816.000000	98.090672 
1815.000000	98.091291 
1814.000000	98.091883 
1813.000000	98.092542 
1812.000000	98.093241 
1811.000000	98.093780 
1810.000000	98.094113 
1809.000000	98.094444 
1808.000000	98.094895 
1807.000000	98.095387 
1806.000000	98.095891 
1805.000000	98.096472 
1804.000000	98.097058 
1803.000000	98.097457 
1802.000000	98.097598 
1801.000000	98.097694 
1800.000000	98.097941 
1799.000000	98.098234 
1798.000000	98.098582 
1797.000000	98.099096 
1796.000000	98.099540 
1795.000000	98.099617 
1794.000000	98.099503 
1793.000000	98.099752 
1792.000000	98.100363 
1791.000000	98.100682 
1790.000000	98.100755 
1789.000000	98.101255 
1788.000000	98.102291 
1787.000000	98.103368 
1786.000000	98.104209 
1785.000000	98.104948 
1784.000000	98.105561 
1783.000000	98.106043 
1782.000000	98.106488 
1781.000000	98.106913 
1780.000000	98.107310 
1779.000000	98.107703 
1778.000000	98.108450 
1777.000000	98.109649 
1776.000000	98.110784 
1775.000000	98.111380 
1774.000000	98.111347 
1773.000000	98.111264 
1772.000000	98.111926 
1771.000000	98.113027 
1770.000000	98.113729 
1769.000000	98.114169 
1768.000000	98.114965 
1767.000000	98.116115 
1766.000000	98.117129 
1765.000000	98.118065 
1764.000000	98.119475 
1763.000000	98.121233 
1762.000000	98.122334 
1761.000000	98.122522 
1760.000000	98.122689 
1759.000000	98.123345 
1758.000000	98.124120 
1757.000000	98.124332 
1756.000000	98.124317 
1755.000000	98.124382 
1754.000000	98.123697 
1753.000000	98.121610 
1752.000000	98.119247 
1751.000000	98.118845 
1750.000000	98.120806 
1749.000000	98.123278 
1748.000000	98.124864 
1747.000000	98.125979 
1746.000000	98.126837 
1745.000000	98.127433 
1744.000000	98.128403 
1743.000000	98.129713 
1742.000000	98.130317 
1741.000000	98.130049 
1740.000000	98.130079 
1739.000000	98.131084 
1738.000000	98.131964 
1737.000000	98.131904 
1736.000000	98.131085 
1735.000000	98.129742 
1734.000000	98.128048 
1733.000000	98.126448 
1732.000000	98.126223 
1731.000000	98.128679 
1730.000000	98.133471 
1729.000000	98.137599 
1728.000000	98.139058 
1727.000000	98.138412 
1726.000000	98.137064 
1725.000000	98.135753 
1724.000000	98.134762 
1723.000000	98.134063 
1722.000000	98.133835 
1721.000000	98.133812 
1720.000000	98.133408 
1719.000000	98.131794 
1718.000000	98.129111 
1717.000000	98.127207 
1716.000000	98.125451 
1715.000000	98.122401 
1714.000000	98.119965 
1713.000000	98.119338 
1712.000000	98.118952 
1711.000000	98.117898 
1710.000000	98.116973 
1709.000000	98.116409 
1708.000000	98.115432 
1707.000000	98.113743 
1706.000000	98.112088 
1705.000000	98.110702 
1704.000000	98.107707 
1703.000000	98.102589 
1702.000000	98.096833 
1701.000000	98.092893 
1700.000000	98.090678 
1699.000000	98.087274 
1698.000000	98.083570 
1697.000000	98.081896 
1696.000000	98.081528 
1695.000000	98.080194 
1694.000000	98.077605 
1693.000000	98.074882 
1692.000000	98.072364 
1691.000000	98.069697 
1690.000000	98.066688 
1689.000000	98.063342 
1688.000000	98.059775 
1687.000000	98.056194 
1686.000000	98.052838 
1685.000000	98.050019 
1684.000000	98.047214 
1683.000000	98.043860 
1682.000000	98.040326 
1681.000000	98.036815 
1680.000000	98.033643 
1679.000000	98.030772 
1678.000000	98.027917 
1677.000000	98.024668 
1676.000000	98.021138 
1675.000000	98.017559 
1674.000000	98.013228 
1673.000000	98.007865 
1672.000000	98.002892 
1671.000000	97.999741 
1670.000000	97.998156 
1669.000000	97.995778 
1668.000000	97.992212 
1667.000000	97.989355 
1666.000000	97.987234 
1665.000000	97.985113 
1664.000000	97.983338 
1663.000000	97.982576 
1662.000000	97.981309 
1661.000000	97.976321 
1660.000000	97.969061 
1659.000000	97.963789 
1658.000000	97.962516 
1657.000000	97.961989 
1656.000000	97.960985 
1655.000000	97.959596 
1654.000000	97.957268 
1653.000000	97.949885 
1652.000000	97.936366 
1651.000000	97.924570 
1650.000000	97.916359 
1649.000000	97.912597 
1648.000000	97.910545 
1647.000000	97.909139 
1646.000000	97.907106 
1645.000000	97.905837 
1644.000000	97.904317 
1643.000000	97.903458 
1642.000000	97.904207 
1641.000000	97.905591 
1640.000000	97.905228 
1639.000000	97.901804 
1638.000000	97.897290 
1637.000000	97.894353 
1636.000000	97.893137 
1635.000000	97.893593 
1634.000000	97.895227 
1633.000000	97.896412 
1632.000000	97.895818 
1631.000000	97.894736 
1630.000000	97.896051 
1629.000000	97.899196 
1628.000000	97.901410 
1627.000000	97.903149 
1626.000000	97.906545 
1625.000000	97.911177 
1624.000000	97.915805 
1623.000000	97.921222 
1622.000000	97.927717 
1621.000000	97.931783 
1620.000000	97.932507 
1619.000000	97.933126 
1618.000000	97.936077 
1617.000000	97.938114 
1616.000000	97.935718 
1615.000000	97.934153 
1614.000000	97.936985 
1613.000000	97.940190 
1612.000000	97.939890 
1611.000000	97.938483 
1610.000000	97.940265 
1609.000000	97.944889 
1608.000000	97.950518 
1607.000000	97.958025 
1606.000000	97.966461 
1605.000000	97.972174 
1604.000000	97.975274 
1603.000000	97.978920 
1602.000000	97.983823 
1601.000000	97.987823 
1600.000000	97.990552 
1599.000000	97.994214 
1598.000000	97.999198 
1597.000000	98.003608 
1596.000000	98.006663 
1595.000000	98.009856 
1594.000000	98.014185 
1593.000000	98.018284 
1592.000000	98.021073 
1591.000000	98.023811 
1590.000000	98.027792 
1589.000000	98.032105 
1588.000000	98.035834 
1587.000000	98.040026 
1586.000000	98.045237 
1585.000000	98.049285 
1584.000000	98.051053 
1583.000000	98.052947 
1582.000000	98.056616 
1581.000000	98.060578 
1580.000000	98.063497 
1579.000000	98.066636 
1578.000000	98.071207 
1577.000000	98.076072 
1576.000000	98.079435 
1575.000000	98.082671 
1574.000000	98.086668 
1573.000000	98.090065 
1572.000000	98.093349 
1571.000000	98.097691 
1570.000000	98.101905 
1569.000000	98.102044 
1568.000000	98.099402 
1567.000000	98.098731 
1566.000000	98.100975 
1565.000000	98.103279 
1564.000000	98.105083 
1563.000000	98.106886 
1562.000000	98.108894 
1561.000000	98.108816 
1560.000000	98.107524 
1559.000000	98.108542 
1558.000000	98.110935 
1557.000000	98.112460 
1556.000000	98.112477 
1555.000000	98.114780 
1554.000000	98.117051 
1553.000000	98.118591 
1552.000000	98.119195 
1551.000000	98.119443 
1550.000000	98.118553 
1549.000000	98.116915 
1548.000000	98.115808 
1547.000000	98.116237 
1546.000000	98.117401 
1545.000000	98.117958 
1544.000000	98.117635 
1543.000000	98.116890 
1542.000000	98.116427 
1541.000000	98.116904 
1540.000000	98.116570 
1539.000000	98.114759 
1538.000000	98.112827 
1537.000000	98.110810 
1536.000000	98.108847 
1535.000000	98.107541 
1534.000000	98.107475 
1533.000000	98.108107 
1532.000000	98.108249 
1531.000000	98.107176 
1530.000000	98.105622 
1529.000000	98.104435 
1528.000000	98.103349 
1527.000000	98.101774 
1526.000000	98.099688 
1525.000000	98.097672 
1524.000000	98.096306 
1523.000000	98.095717 
1522.000000	98.095592 
1521.000000	98.094827 
1520.000000	98.092243 
1519.000000	98.088179 
1518.000000	98.084081 
1517.000000	98.081123 
1516.000000	98.079243 
1515.000000	98.077988 
1514.000000	98.077273 
1513.000000	98.077315 
1512.000000	98.077324 
1511.000000	98.075258 
1510.000000	98.070490 
1509.000000	98.064882 
1508.000000	98.061390 
1507.000000	98.059815 
1506.000000	98.058682 
1505.000000	98.057565 
1504.000000	98.055301 
1503.000000	98.052316 
1502.000000	98.048886 
1501.000000	98.046122 
1500.000000	98.044466 
1499.000000	98.042660 
1498.000000	98.038137 
1497.000000	98.032615 
1496.000000	98.029993 
1495.000000	98.030102 
1494.000000	98.031091 
1493.000000	98.033105 
1492.000000	98.036850 
1491.000000	98.041227 
1490.000000	98.043854 
1489.000000	98.044403 
1488.000000	98.042563 
1487.000000	98.037396 
1486.000000	98.031626 
1485.000000	98.026365 
1484.000000	98.020949 
1483.000000	98.016426 
1482.000000	98.013718 
1481.000000	98.012330 
1480.000000	98.009980 
1479.000000	98.005643 
1478.000000	98.000679 
1477.000000	97.996905 
1476.000000	97.993017 
1475.000000	97.986497 
1474.000000	97.978538 
1473.000000	97.973889 
1472.000000	97.974871 
1471.000000	97.977081 
1470.000000	97.976986 
1469.000000	97.975563 
1468.000000	97.973568 
1467.000000	97.970051 
1466.000000	97.965425 
1465.000000	97.962147 
1464.000000	97.961567 
1463.000000	97.960250 
1462.000000	97.955297 
1461.000000	97.948845 
1460.000000	97.944637 
1459.000000	97.943338 
1458.000000	97.938043 
1457.000000	97.924255 
1456.000000	97.909988 
1455.000000	97.900511 
1454.000000	97.892464 
1453.000000	97.886905 
1452.000000	97.886257 
1451.000000	97.890567 
1450.000000	97.897302 
1449.000000	97.906320 
1448.000000	97.916517 
1447.000000	97.923283 
1446.000000	97.923161 
1445.000000	97.918999 
1444.000000	97.917055 
1443.000000	97.917493 
1442.000000	97.916417 
1441.000000	97.912747 
1440.000000	97.909375 
1439.000000	97.907137 
1438.000000	97.902353 
1437.000000	97.894564 
1436.000000	97.889569 
1435.000000	97.888034 
1434.000000	97.885217 
1433.000000	97.882047 
1432.000000	97.881302 
1431.000000	97.882639 
1430.000000	97.882111 
1429.000000	97.878323 
1428.000000	97.873309 
1427.000000	97.869030 
1426.000000	97.865388 
1425.000000	97.860927 
1424.000000	97.857330 
1423.000000	97.854356 
1422.000000	97.848564 
1421.000000	97.839595 
1420.000000	97.831275 
1419.000000	97.822417 
1418.000000	97.805955 
1417.000000	97.785245 
1416.000000	97.770685 
1415.000000	97.764170 
1414.000000	97.757672 
1413.000000	97.745298 
1412.000000	97.730821 
1411.000000	97.720042 
1410.000000	97.711756 
1409.000000	97.703776 
1408.000000	97.698195 
1407.000000	97.697590 
1406.000000	97.700702 
1405.000000	97.705214 
1404.000000	97.713350 
1403.000000	97.725284 
1402.000000	97.736578 
1401.000000	97.746067 
1400.000000	97.757600 
1399.000000	97.771981 
1398.000000	97.780606 
1397.000000	97.774474 
1396.000000	97.755281 
1395.000000	97.736791 
1394.000000	97.733236 
1393.000000	97.747818 
1392.000000	97.775112 
1391.000000	97.805585 
1390.000000	97.829800 
1389.000000	97.842763 
1388.000000	97.845106 
1387.000000	97.841110 
1386.000000	97.835487 
1385.000000	97.831826 
1384.000000	97.832834 
1383.000000	97.838349 
1382.000000	97.845087 
1381.000000	97.850723 
1380.000000	97.855894 
1379.000000	97.863121 
1378.000000	97.873956 
1377.000000	97.887854 
1376.000000	97.903226 
1375.000000	97.918608 
1374.000000	97.932693 
1373.000000	97.945593 
1372.000000	97.959099 
1371.000000	97.974905 
1370.000000	97.992416 
1369.000000	98.007941 
1368.000000	98.020020 
1367.000000	98.030717 
1366.000000	98.042401 
1365.000000	98.055997 
1364.000000	98.070381 
1363.000000	98.082746 
1362.000000	98.091527 
1361.000000	98.098366 
1360.000000	98.106338 
1359.000000	98.117329 
1358.000000	98.130434 
1357.000000	98.142829 
1356.000000	98.152754 
1355.000000	98.160398 
1354.000000	98.166707 
1353.000000	98.173486 
1352.000000	98.181589 
1351.000000	98.191028 
1350.000000	98.201800 
1349.000000	98.210952 
1348.000000	98.215922 
1347.000000	98.217534 
1346.000000	98.219314 
1345.000000	98.223402 
1344.000000	98.229308 
1343.000000	98.235731 
1342.000000	98.241747 
1341.000000	98.245634 
1340.000000	98.245343 
1339.000000	98.241379 
1338.000000	98.236748 
1337.000000	98.234112 
1336.000000	98.234187 
1335.000000	98.235792 
1334.000000	98.237223 
1333.000000	98.237864 
1332.000000	98.238172 
1331.000000	98.238854 
1330.000000	98.239863 
1329.000000	98.240392 
1328.000000	98.240138 
1327.000000	98.240240 
1326.000000	98.241519 
1325.000000	98.242099 
1324.000000	98.240449 
1323.000000	98.237265 
1322.000000	98.233949 
1321.000000	98.231180 
1320.000000	98.229808 
1319.000000	98.230847 
1318.000000	98.233738 
1317.000000	98.236382 
1316.000000	98.237075 
1315.000000	98.235384 
1314.000000	98.231739 
1313.000000	98.228133 
1312.000000	98.227746 
1311.000000	98.231628 
1310.000000	98.236467 
1309.000000	98.238125 
1308.000000	98.236513 
1307.000000	98.235326 
1306.000000	98.237276 
1305.000000	98.241124 
1304.000000	98.244679 
1303.000000	98.246599 
1302.000000	98.245836 
1301.000000	98.242122 
1300.000000	98.237828 
1299.000000	98.236374 
1298.000000	98.238084 
1297.000000	98.239761 
1296.000000	98.238899 
1295.000000	98.236628 
1294.000000	98.235481 
1293.000000	98.236491 
1292.000000	98.239109 
1291.000000	98.242118 
1290.000000	98.244145 
1289.000000	98.244597 
1288.000000	98.244227 
1287.000000	98.243801 
1286.000000	98.242582 
1285.000000	98.239884 
1284.000000	98.237514 
1283.000000	98.238008 
1282.000000	98.240547 
1281.000000	98.241293 
1280.000000	98.238529 
1279.000000	98.235126 
1278.000000	98.234764 
1277.000000	98.237858 
1276.000000	98.241861 
1275.000000	98.244166 
1274.000000	98.243576 
1273.000000	98.240417 
1272.000000	98.236297 
1271.000000	98.232858 
1270.000000	98.230024 
1269.000000	98.226238 
1268.000000	98.220732 
1267.000000	98.214121 
1266.000000	98.206668 
1265.000000	98.198314 
1264.000000	98.190550 
1263.000000	98.185648 
1262.000000	98.183275 
1261.000000	98.180206 
1260.000000	98.174981 
1259.000000	98.170693 
1258.000000	98.170602 
1257.000000	98.173164 
1256.000000	98.173755 
1255.000000	98.170454 
1254.000000	98.165757 
1253.000000	98.162533 
1252.000000	98.160303 
1251.000000	98.156805 
1250.000000	98.152210 
1249.000000	98.150454 
1248.000000	98.155938 
1247.000000	98.168719 
1246.000000	98.182697 
1245.000000	98.189471 
1244.000000	98.184947 
1243.000000	98.173484 
1242.000000	98.166106 
1241.000000	98.172560 
1240.000000	98.192437 
1239.000000	98.213829 
1238.000000	98.223256 
1237.000000	98.217564 
1236.000000	98.204330 
1235.000000	98.191418 
1234.000000	98.179670 
1233.000000	98.166758 
1232.000000	98.153457 
1231.000000	98.142321 
1230.000000	98.133357 
1229.000000	98.125294 
1228.000000	98.119074 
1227.000000	98.115902 
1226.000000	98.113158 
1225.000000	98.106289 
1224.000000	98.094326 
1223.000000	98.080310 
1222.000000	98.066671 
1221.000000	98.053060 
1220.000000	98.038492 
1219.000000	98.022838 
1218.000000	98.006044 
1217.000000	97.987902 
1216.000000	97.968027 
1215.000000	97.944698 
1214.000000	97.915660 
1213.000000	97.882377 
1212.000000	97.850905 
1211.000000	97.824639 
1210.000000	97.798436 
1209.000000	97.764543 
1208.000000	97.722754 
1207.000000	97.679978 
1206.000000	97.640604 
1205.000000	97.602007 
1204.000000	97.559731 
1203.000000	97.512673 
1202.000000	97.462666 
1201.000000	97.412515 
1200.000000	97.364958 
1199.000000	97.320578 
1198.000000	97.276349 
1197.000000	97.229009 
1196.000000	97.179351 
1195.000000	97.130539 
1194.000000	97.083175 
1193.000000	97.034967 
1192.000000	96.984589 
1191.000000	96.932439 
1190.000000	96.878116 
1189.000000	96.820670 
1188.000000	96.761150 
1187.000000	96.701748 
1186.000000	96.642695 
1185.000000	96.582834 
1184.000000	96.522302 
1183.000000	96.461714 
1182.000000	96.400080 
1181.000000	96.336742 
1180.000000	96.273707 
1179.000000	96.212276 
1178.000000	96.148906 
1177.000000	96.078813 
1176.000000	96.002350 
1175.000000	95.923547 
1174.000000	95.843990 
1173.000000	95.763021 
1172.000000	95.682585 
1171.000000	95.605707 
1170.000000	95.530750 
1169.000000	95.453581 
1168.000000	95.375794 
1167.000000	95.304996 
1166.000000	95.246893 
1165.000000	95.203431 
1164.000000	95.178790 
1163.000000	95.179345 
1162.000000	95.204894 
1161.000000	95.244806 
1160.000000	95.284676 
1159.000000	95.312917 
1158.000000	95.320996 
1157.000000	95.303752 
1156.000000	95.262209 
1155.000000	95.202707 
1154.000000	95.132007 
1153.000000	95.055695 
1152.000000	94.980087 
1151.000000	94.910050 
1150.000000	94.844364 
1149.000000	94.778461 
1148.000000	94.712017 
1147.000000	94.648344 
1146.000000	94.586359 
1145.000000	94.519982 
1144.000000	94.446878 
1143.000000	94.371645 
1142.000000	94.298535 
1141.000000	94.226749 
1140.000000	94.154702 
1139.000000	94.083110 
1138.000000	94.011736 
1137.000000	93.938366 
1136.000000	93.862876 
1135.000000	93.787564 
1134.000000	93.712258 
1133.000000	93.634199 
1132.000000	93.553543 
1131.000000	93.473333 
1130.000000	93.393289 
1129.000000	93.309711 
1128.000000	93.222468 
1127.000000	93.135643 
1126.000000	93.049960 
1125.000000	92.961093 
1124.000000	92.867218 
1123.000000	92.772005 
1122.000000	92.678336 
1121.000000	92.585109 
1120.000000	92.491957 
1119.000000	92.400928 
1118.000000	92.311971 
1117.000000	92.223071 
1116.000000	92.135956 
1115.000000	92.055137 
1114.000000	91.980260 
1113.000000	91.906167 
1112.000000	91.831204 
1111.000000	91.758164 
1110.000000	91.686605 
1109.000000	91.612147 
1108.000000	91.533994 
1107.000000	91.455325 
1106.000000	91.376436 
1105.000000	91.295220 
1104.000000	91.214011 
1103.000000	91.137938 
1102.000000	91.065962 
1101.000000	90.992868 
1100.000000	90.919383 
1099.000000	90.850299 
1098.000000	90.785778 
1097.000000	90.720873 
1096.000000	90.654584 
1095.000000	90.588425 
1094.000000	90.516765 
1093.000000	90.429857 
1092.000000	90.328250 
1091.000000	90.224359 
1090.000000	90.128069 
1089.000000	90.039356 
1088.000000	89.955111 
1087.000000	89.872731 
1086.000000	89.786503 
1085.000000	89.691551 
1084.000000	89.592744 
1083.000000	89.499588 
1082.000000	89.411923 
1081.000000	89.321596 
1080.000000	89.228192 
1079.000000	89.140420 
1078.000000	89.060767 
1077.000000	88.981653 
1076.000000	88.898743 
1075.000000	88.815310 
1074.000000	88.731500 
1073.000000	88.641853 
1072.000000	88.544200 
1071.000000	88.436401 
1070.000000	88.303272 
1069.000000	88.125198 
1068.000000	87.906839 
1067.000000	87.684037 
1066.000000	87.493440 
1065.000000	87.343691 
1064.000000	87.220270 
1063.000000	87.102601 
1062.000000	86.968710 
1061.000000	86.799518 
1060.000000	86.593325 
1059.000000	86.370821 
1058.000000	86.157096 
1057.000000	85.962138 
1056.000000	85.781504 
1055.000000	85.606177 
1054.000000	85.426606 
1053.000000	85.236924 
1052.000000	85.041791 
1051.000000	84.851744 
1050.000000	84.668119 
1049.000000	84.482063 
1048.000000	84.290360 
1047.000000	84.099885 
1046.000000	83.914958 
1045.000000	83.733251 
1044.000000	83.555297 
1043.000000	83.385187 
1042.000000	83.220221 
1041.000000	83.052042 
1040.000000	82.880364 
1039.000000	82.714918 
1038.000000	82.563057 
1037.000000	82.426342 
1036.000000	82.308043 
1035.000000	82.210699 
1034.000000	82.126673 
1033.000000	82.043953 
1032.000000	81.959507 
1031.000000	81.874269 
1030.000000	81.781290 
1029.000000	81.677767 
1028.000000	81.584508 
1027.000000	81.530520 
1026.000000	81.516926 
1025.000000	81.515273 
1024.000000	81.502802 
1023.000000	81.479791 
1022.000000	81.451123 
1021.000000	81.414206 
1020.000000	81.370577 
1019.000000	81.329413 
1018.000000	81.293002 
1017.000000	81.254891 
1016.000000	81.216075 
1015.000000	81.186041 
1014.000000	81.164700 
1013.000000	81.140849 
1012.000000	81.111880 
1011.000000	81.087678 
1010.000000	81.072049 
1009.000000	81.057991 
1008.000000	81.044639 
1007.000000	81.041449 
1006.000000	81.052035 
1005.000000	81.070374 
1004.000000	81.095263 
1003.000000	81.131258 
1002.000000	81.173334 
1001.000000	81.209119 
1000.000000	81.239627 
999.000000	 81.279774 
998.000000	 81.334979 
997.000000	 81.394784 
996.000000	 81.452711 
995.000000	 81.514859 
994.000000	 81.585047 
993.000000	 81.658562 
992.000000	 81.734106 
991.000000	 81.815350 
990.000000	 81.898021 
989.000000	 81.972664 
988.000000	 82.043143 
987.000000	 82.124999 
986.000000	 82.222793 
985.000000	 82.326787 
984.000000	 82.434256 
983.000000	 82.554904 
982.000000	 82.691230 
981.000000	 82.832084 
980.000000	 82.970904 
979.000000	 83.113735 
978.000000	 83.264128 
977.000000	 83.417010 
976.000000	 83.572656 
975.000000	 83.740251 
974.000000	 83.921778 
973.000000	 84.107295 
972.000000	 84.291398 
971.000000	 84.480155 
970.000000	 84.677009 
969.000000	 84.875632 
968.000000	 85.071160 
967.000000	 85.265667 
966.000000	 85.459195 
965.000000	 85.648218 
964.000000	 85.835607 
963.000000	 86.028895 
962.000000	 86.226230 
961.000000	 86.417164 
960.000000	 86.599108 
959.000000	 86.779114 
958.000000	 86.957607 
957.000000	 87.125293 
956.000000	 87.279557 
955.000000	 87.429992 
954.000000	 87.583661 
953.000000	 87.737188 
952.000000	 87.886519 
951.000000	 88.031623 
950.000000	 88.168760 
949.000000	 88.291258 
948.000000	 88.401232 
947.000000	 88.508151 
946.000000	 88.612707 
945.000000	 88.704720 
944.000000	 88.780407 
943.000000	 88.849455 
942.000000	 88.921211 
941.000000	 88.995370 
940.000000	 89.070102 
939.000000	 89.147424 
938.000000	 89.226269 
937.000000	 89.301203 
936.000000	 89.372065 
935.000000	 89.445122 
934.000000	 89.522088 
933.000000	 89.598282 
932.000000	 89.673371 
931.000000	 89.752641 
930.000000	 89.835388 
929.000000	 89.913457 
928.000000	 89.984015 
927.000000	 90.052948 
926.000000	 90.123005 
925.000000	 90.188950 
924.000000	 90.246695 
923.000000	 90.297199 
922.000000	 90.339994 
921.000000	 90.373594 
920.000000	 90.403662 
919.000000	 90.439576 
918.000000	 90.480792 
917.000000	 90.517192 
916.000000	 90.544890 
915.000000	 90.571621 
914.000000	 90.605562 
913.000000	 90.649603 
912.000000	 90.707366 
911.000000	 90.783188 
910.000000	 90.874535 
909.000000	 90.975411 
908.000000	 91.088107 
907.000000	 91.220659 
906.000000	 91.372986 
905.000000	 91.536849 
904.000000	 91.708317 
903.000000	 91.887806 
902.000000	 92.069269 
901.000000	 92.243359 
900.000000	 92.411414 
899.000000	 92.583504 
898.000000	 92.762860 
897.000000	 92.943357 
896.000000	 93.120159 
895.000000	 93.290130 
894.000000	 93.445128 
893.000000	 93.580004 
892.000000	 93.705634 
891.000000	 93.839104 
890.000000	 93.981180 
889.000000	 94.117418 
888.000000	 94.240164 
887.000000	 94.354388 
886.000000	 94.463476 
885.000000	 94.565557 
884.000000	 94.663431 
883.000000	 94.761407 
882.000000	 94.852909 
881.000000	 94.929915 
880.000000	 95.005279 
879.000000	 95.104790 
878.000000	 95.232638 
877.000000	 95.364759 
876.000000	 95.481266 
875.000000	 95.585111 
874.000000	 95.684251 
873.000000	 95.778068 
872.000000	 95.870072 
871.000000	 95.973014 
870.000000	 96.089664 
869.000000	 96.204937 
868.000000	 96.307416 
867.000000	 96.404227 
866.000000	 96.506003 
865.000000	 96.611129 
864.000000	 96.714606 
863.000000	 96.819925 
862.000000	 96.931304 
861.000000	 97.043550 
860.000000	 97.149167 
859.000000	 97.247908 
858.000000	 97.342005 
857.000000	 97.429372 
856.000000	 97.507974 
855.000000	 97.579774 
854.000000	 97.644878 
853.000000	 97.699136 
852.000000	 97.742755 
851.000000	 97.784166 
850.000000	 97.830794 
849.000000	 97.882477 
848.000000	 97.936297 
847.000000	 97.989211 
846.000000	 98.033670 
845.000000	 98.061290 
844.000000	 98.074769 
843.000000	 98.086688 
842.000000	 98.102698 
841.000000	 98.114988 
840.000000	 98.115049 
839.000000	 98.102165 
838.000000	 98.076757 
837.000000	 98.038027 
836.000000	 97.993574 
835.000000	 97.959376 
834.000000	 97.942489 
833.000000	 97.933267 
832.000000	 97.921360 
831.000000	 97.909649 
830.000000	 97.905669 
829.000000	 97.909661 
828.000000	 97.920195 
827.000000	 97.942488 
826.000000	 97.980656 
825.000000	 98.028403 
824.000000	 98.076015 
823.000000	 98.119823 
822.000000	 98.158743 
821.000000	 98.190586 
820.000000	 98.217352 
819.000000	 98.244426 
818.000000	 98.269161 
817.000000	 98.278665 
816.000000	 98.263767 
815.000000	 98.228168 
814.000000	 98.179338 
813.000000	 98.116546 
812.000000	 98.031813 
811.000000	 97.916015 
810.000000	 97.759536 
809.000000	 97.553419 
808.000000	 97.295701 
807.000000	 96.993924 
806.000000	 96.659930 
805.000000	 96.307362 
804.000000	 95.954989 
803.000000	 95.623623 
802.000000	 95.326160 
801.000000	 95.068600 
800.000000	 94.861892 
799.000000	 94.721118 
798.000000	 94.649783 
797.000000	 94.635918 
796.000000	 94.665429 
795.000000	 94.727119 
794.000000	 94.804377 
793.000000	 94.878226 
792.000000	 94.942905 
791.000000	 95.005180 
790.000000	 95.065186 
789.000000	 95.110592 
788.000000	 95.131485 
787.000000	 95.127126 
786.000000	 95.095662 
785.000000	 95.031303 
784.000000	 94.935741 
783.000000	 94.820138 
782.000000	 94.693626 
781.000000	 94.563951 
780.000000	 94.451066 
779.000000	 94.382111 
778.000000	 94.366612 
777.000000	 94.391405 
776.000000	 94.444405 
775.000000	 94.526898 
774.000000	 94.636903 
773.000000	 94.758457 
772.000000	 94.876481 
771.000000	 94.988184 
770.000000	 95.092713 
769.000000	 95.183695 
768.000000	 95.258579 
767.000000	 95.321167 
766.000000	 95.368803 
765.000000	 95.392518 
764.000000	 95.397626 
763.000000	 95.408248 
762.000000	 95.440814 
761.000000	 95.486003 
760.000000	 95.526471 
759.000000	 95.559458 
758.000000	 95.592088 
757.000000	 95.627904 
756.000000	 95.670349 
755.000000	 95.727985 
754.000000	 95.802390 
753.000000	 95.878088 
752.000000	 95.936181 
751.000000	 95.973757 
750.000000	 96.003317 
749.000000	 96.039075 
748.000000	 96.089275 
747.000000	 96.154075 
746.000000	 96.224294 
745.000000	 96.289071 
744.000000	 96.349924 
743.000000	 96.419957 
742.000000	 96.505295 
741.000000	 96.596521 
740.000000	 96.682909 
739.000000	 96.765295 
738.000000	 96.849544 
737.000000	 96.935904 
736.000000	 97.020183 
735.000000	 97.098199 
734.000000	 97.165380 
733.000000	 97.219454 
732.000000	 97.265693 
731.000000	 97.310724 
730.000000	 97.350041 
729.000000	 97.372311 
728.000000	 97.377439 
727.000000	 97.379689 
726.000000	 97.392253 
725.000000	 97.419624 
724.000000	 97.464250 
723.000000	 97.525848 
722.000000	 97.591992 
721.000000	 97.644500 
720.000000	 97.680503 
719.000000	 97.714423 
718.000000	 97.755252 
717.000000	 97.797680 
716.000000	 97.838360 
715.000000	 97.881950 
714.000000	 97.925604 
713.000000	 97.955175 
712.000000	 97.965280 
711.000000	 97.968455 
710.000000	 97.976589 
709.000000	 97.987305 
708.000000	 97.995242 
707.000000	 98.000751 
706.000000	 97.999731 
705.000000	 97.980807 
704.000000	 97.942062 
703.000000	 97.895805 
702.000000	 97.844985 
701.000000	 97.768825 
700.000000	 97.644583 
699.000000	 97.473106 
698.000000	 97.275580 
697.000000	 97.077933 
696.000000	 96.908179 
695.000000	 96.795704 
694.000000	 96.756622 
693.000000	 96.783981 
692.000000	 96.858805 
691.000000	 96.962724 
690.000000	 97.077626 
689.000000	 97.185376 
688.000000	 97.275940 
687.000000	 97.348530 
686.000000	 97.401780 
685.000000	 97.435977 
684.000000	 97.464829 
683.000000	 97.505205 
682.000000	 97.553246 
681.000000	 97.589903 
680.000000	 97.612382 
679.000000	 97.638953 
678.000000	 97.678299 
677.000000	 97.720285 
676.000000	 97.763606 
675.000000	 97.820169 
674.000000	 97.885095 
673.000000	 97.931166 
672.000000	 97.942604 
671.000000	 97.929357 
670.000000	 97.908787 
669.000000	 97.892537 
668.000000	 97.896277 
667.000000	 97.951726 
666.000000	 98.046059 
665.000000	 98.118933 
664.000000	 98.152637 
663.000000	 98.169926 
662.000000	 98.196334 
661.000000	 98.227686 
660.000000	 98.248984 
659.000000	 98.263909 
658.000000	 98.281048 
657.000000	 98.290810 
656.000000	 98.283282 
655.000000	 98.268879 
654.000000	 98.258514 
653.000000	 98.241743 
652.000000	 98.210210 
651.000000	 98.186884 
650.000000	 98.199014 

