4000.000000	97.907924 
3999.000000	97.907141 
3998.000000	97.905487 
3997.000000	97.903647 
3996.000000	97.902238 
3995.000000	97.901499 
3994.000000	97.901404 
3993.000000	97.901738 
3992.000000	97.902075 
3991.000000	97.901929 
3990.000000	97.901118 
3989.000000	97.899937 
3988.000000	97.898803 
3987.000000	97.897975 
3986.000000	97.897679 
3985.000000	97.898155 
3984.000000	97.899337 
3983.000000	97.900740 
3982.000000	97.901993 
3981.000000	97.903208 
3980.000000	97.904393 
3979.000000	97.904929 
3978.000000	97.904214 
3977.000000	97.902603 
3976.000000	97.901217 
3975.000000	97.900649 
3974.000000	97.900359 
3973.000000	97.899478 
3972.000000	97.897734 
3971.000000	97.895576 
3970.000000	97.893728 
3969.000000	97.892861 
3968.000000	97.893362 
3967.000000	97.894980 
3966.000000	97.896865 
3965.000000	97.898051 
3964.000000	97.897899 
3963.000000	97.896338 
3962.000000	97.893985 
3961.000000	97.891893 
3960.000000	97.890756 
3959.000000	97.890491 
3958.000000	97.890575 
3957.000000	97.890744 
3956.000000	97.891038 
3955.000000	97.891229 
3954.000000	97.890894 
3953.000000	97.889850 
3952.000000	97.888358 
3951.000000	97.886764 
3950.000000	97.885142 
3949.000000	97.883518 
3948.000000	97.882030 
3947.000000	97.880936 
3946.000000	97.880524 
3945.000000	97.880919 
3944.000000	97.881721 
3943.000000	97.882115 
3942.000000	97.881934 
3941.000000	97.881861 
3940.000000	97.882468 
3939.000000	97.883541 
3938.000000	97.884321 
3937.000000	97.884369 
3936.000000	97.883854 
3935.000000	97.882905 
3934.000000	97.881530 
3933.000000	97.879954 
3932.000000	97.878783 
3931.000000	97.878242 
3930.000000	97.877960 
3929.000000	97.877985 
3928.000000	97.878889 
3927.000000	97.880678 
3926.000000	97.882052 
3925.000000	97.881532 
3924.000000	97.879362 
3923.000000	97.877088 
3922.000000	97.875435 
3921.000000	97.874105 
3920.000000	97.873059 
3919.000000	97.872926 
3918.000000	97.873759 
3917.000000	97.874598 
3916.000000	97.874785 
3915.000000	97.874714 
3914.000000	97.874906 
3913.000000	97.875259 
3912.000000	97.875492 
3911.000000	97.875893 
3910.000000	97.876664 
3909.000000	97.877485 
3908.000000	97.877949 
3907.000000	97.877706 
3906.000000	97.876408 
3905.000000	97.873427 
3904.000000	97.868820 
3903.000000	97.864215 
3902.000000	97.861542 
3901.000000	97.861257 
3900.000000	97.862364 
3899.000000	97.863579 
3898.000000	97.864581 
3897.000000	97.865471 
3896.000000	97.866008 
3895.000000	97.866103 
3894.000000	97.865957 
3893.000000	97.865734 
3892.000000	97.865106 
3891.000000	97.863756 
3890.000000	97.862070 
3889.000000	97.860704 
3888.000000	97.859924 
3887.000000	97.859458 
3886.000000	97.859012 
3885.000000	97.858641 
3884.000000	97.858377 
3883.000000	97.857939 
3882.000000	97.857135 
3881.000000	97.856158 
3880.000000	97.855369 
3879.000000	97.854825 
3878.000000	97.854347 
3877.000000	97.853842 
3876.000000	97.853350 
3875.000000	97.852849 
3874.000000	97.852267 
3873.000000	97.851611 
3872.000000	97.850944 
3871.000000	97.850284 
3870.000000	97.849659 
3869.000000	97.849153 
3868.000000	97.848780 
3867.000000	97.848477 
3866.000000	97.848173 
3865.000000	97.847859 
3864.000000	97.847580 
3863.000000	97.847371 
3862.000000	97.847180 
3861.000000	97.846967 
3860.000000	97.846791 
3859.000000	97.846711 
3858.000000	97.846665 
3857.000000	97.846514 
3856.000000	97.846195 
3855.000000	97.845694 
3854.000000	97.844853 
3853.000000	97.843821 
3852.000000	97.843155 
3851.000000	97.843044 
3850.000000	97.843151 
3849.000000	97.843242 
3848.000000	97.843485 
3847.000000	97.844097 
3846.000000	97.844859 
3845.000000	97.845329 
3844.000000	97.845382 
3843.000000	97.845214 
3842.000000	97.845021 
3841.000000	97.844904 
3840.000000	97.844772 
3839.000000	97.844630 
3838.000000	97.844738 
3837.000000	97.845128 
3836.000000	97.845551 
3835.000000	97.845808 
3834.000000	97.845952 
3833.000000	97.846169 
3832.000000	97.846514 
3831.000000	97.846972 
3830.000000	97.847569 
3829.000000	97.848338 
3828.000000	97.849379 
3827.000000	97.850669 
3826.000000	97.851765 
3825.000000	97.852238 
3824.000000	97.851982 
3823.000000	97.851210 
3822.000000	97.850237 
3821.000000	97.849428 
3820.000000	97.849230 
3819.000000	97.849446 
3818.000000	97.849444 
3817.000000	97.849065 
3816.000000	97.849099 
3815.000000	97.850424 
3814.000000	97.852680 
3813.000000	97.854449 
3812.000000	97.855004 
3811.000000	97.855099 
3810.000000	97.855855 
3809.000000	97.857221 
3808.000000	97.857950 
3807.000000	97.857259 
3806.000000	97.855786 
3805.000000	97.854582 
3804.000000	97.853735 
3803.000000	97.853133 
3802.000000	97.852951 
3801.000000	97.853677 
3800.000000	97.855357 
3799.000000	97.856541 
3798.000000	97.856011 
3797.000000	97.854716 
3796.000000	97.854877 
3795.000000	97.857320 
3794.000000	97.860466 
3793.000000	97.862273 
3792.000000	97.862600 
3791.000000	97.862960 
3790.000000	97.864054 
3789.000000	97.864905 
3788.000000	97.864804 
3787.000000	97.864426 
3786.000000	97.864458 
3785.000000	97.864247 
3784.000000	97.862844 
3783.000000	97.860766 
3782.000000	97.859054 
3781.000000	97.857876 
3780.000000	97.857059 
3779.000000	97.857527 
3778.000000	97.860015 
3777.000000	97.863259 
3776.000000	97.864708 
3775.000000	97.863200 
3774.000000	97.860068 
3773.000000	97.857457 
3772.000000	97.855881 
3771.000000	97.853848 
3770.000000	97.850558 
3769.000000	97.847650 
3768.000000	97.846291 
3767.000000	97.845038 
3766.000000	97.842564 
3765.000000	97.840019 
3764.000000	97.840085 
3763.000000	97.843201 
3762.000000	97.846112 
3761.000000	97.845482 
3760.000000	97.841657 
3759.000000	97.838386 
3758.000000	97.836166 
3757.000000	97.831928 
3756.000000	97.825236 
3755.000000	97.818327 
3754.000000	97.812014 
3753.000000	97.804384 
3752.000000	97.795415 
3751.000000	97.788589 
3750.000000	97.784389 
3749.000000	97.779704 
3748.000000	97.775156 
3747.000000	97.774552 
3746.000000	97.778265 
3745.000000	97.780275 
3744.000000	97.782360 
3743.000000	97.790328 
3742.000000	97.797339 
3741.000000	97.793100 
3740.000000	97.779442 
3739.000000	97.769753 
3738.000000	97.772671 
3737.000000	97.780046 
3736.000000	97.780058 
3735.000000	97.774364 
3734.000000	97.772012 
3733.000000	97.773531 
3732.000000	97.774920 
3731.000000	97.777430 
3730.000000	97.782836 
3729.000000	97.787972 
3728.000000	97.789172 
3727.000000	97.787404 
3726.000000	97.787612 
3725.000000	97.791296 
3724.000000	97.794069 
3723.000000	97.792393 
3722.000000	97.788498 
3721.000000	97.786925 
3720.000000	97.787166 
3719.000000	97.786878 
3718.000000	97.785307 
3717.000000	97.782230 
3716.000000	97.777878 
3715.000000	97.771023 
3714.000000	97.760763 
3713.000000	97.749493 
3712.000000	97.740300 
3711.000000	97.733673 
3710.000000	97.726454 
3709.000000	97.716515 
3708.000000	97.705075 
3707.000000	97.693098 
3706.000000	97.681125 
3705.000000	97.669951 
3704.000000	97.660175 
3703.000000	97.650883 
3702.000000	97.639093 
3701.000000	97.622943 
3700.000000	97.603899 
3699.000000	97.585291 
3698.000000	97.569722 
3697.000000	97.557248 
3696.000000	97.547524 
3695.000000	97.540439 
3694.000000	97.533992 
3693.000000	97.525778 
3692.000000	97.515073 
3691.000000	97.502623 
3690.000000	97.488179 
3689.000000	97.473618 
3688.000000	97.464275 
3687.000000	97.461736 
3686.000000	97.461278 
3685.000000	97.457066 
3684.000000	97.448119 
3683.000000	97.439042 
3682.000000	97.433861 
3681.000000	97.428854 
3680.000000	97.416348 
3679.000000	97.393419 
3678.000000	97.364841 
3677.000000	97.336994 
3676.000000	97.312425 
3675.000000	97.294008 
3674.000000	97.281810 
3673.000000	97.270458 
3672.000000	97.255127 
3671.000000	97.237839 
3670.000000	97.224606 
3669.000000	97.218299 
3668.000000	97.214198 
3667.000000	97.205855 
3666.000000	97.193315 
3665.000000	97.180724 
3664.000000	97.170103 
3663.000000	97.160448 
3662.000000	97.149369 
3661.000000	97.134741 
3660.000000	97.116744 
3659.000000	97.097158 
3658.000000	97.078696 
3657.000000	97.062314 
3656.000000	97.047641 
3655.000000	97.034697 
3654.000000	97.021456 
3653.000000	97.004495 
3652.000000	96.981446 
3651.000000	96.953768 
3650.000000	96.927620 
3649.000000	96.909816 
3648.000000	96.901503 
3647.000000	96.898994 
3646.000000	96.899656 
3645.000000	96.902198 
3644.000000	96.904668 
3643.000000	96.905537 
3642.000000	96.904351 
3641.000000	96.900806 
3640.000000	96.894134 
3639.000000	96.882794 
3638.000000	96.867288 
3637.000000	96.850758 
3636.000000	96.836065 
3635.000000	96.822235 
3634.000000	96.805908 
3633.000000	96.786278 
3632.000000	96.765576 
3631.000000	96.745774 
3630.000000	96.726738 
3629.000000	96.710256 
3628.000000	96.700588 
3627.000000	96.695809 
3626.000000	96.688883 
3625.000000	96.679600 
3624.000000	96.674283 
3623.000000	96.676934 
3622.000000	96.684848 
3621.000000	96.691552 
3620.000000	96.692585 
3619.000000	96.689102 
3618.000000	96.684926 
3617.000000	96.682931 
3616.000000	96.686744 
3615.000000	96.699471 
3614.000000	96.719299 
3613.000000	96.740054 
3612.000000	96.756003 
3611.000000	96.765068 
3610.000000	96.770039 
3609.000000	96.776476 
3608.000000	96.787086 
3607.000000	96.799537 
3606.000000	96.810013 
3605.000000	96.819156 
3604.000000	96.832095 
3603.000000	96.851546 
3602.000000	96.873620 
3601.000000	96.890497 
3600.000000	96.897666 
3599.000000	96.897369 
3598.000000	96.895907 
3597.000000	96.898395 
3596.000000	96.907044 
3595.000000	96.918814 
3594.000000	96.927237 
3593.000000	96.928445 
3592.000000	96.923274 
3591.000000	96.915568 
3590.000000	96.910047 
3589.000000	96.910024 
3588.000000	96.915988 
3587.000000	96.925879 
3586.000000	96.936565 
3585.000000	96.945814 
3584.000000	96.954418 
3583.000000	96.964090 
3582.000000	96.975240 
3581.000000	96.985530 
3580.000000	96.991883 
3579.000000	96.993226 
3578.000000	96.991292 
3577.000000	96.989199 
3576.000000	96.988622 
3575.000000	96.989066 
3574.000000	96.988351 
3573.000000	96.985006 
3572.000000	96.979020 
3571.000000	96.971476 
3570.000000	96.963826 
3569.000000	96.957552 
3568.000000	96.953865 
3567.000000	96.953489 
3566.000000	96.955718 
3565.000000	96.958817 
3564.000000	96.962077 
3563.000000	96.966397 
3562.000000	96.971988 
3561.000000	96.977357 
3560.000000	96.980601 
3559.000000	96.981320 
3558.000000	96.980754 
3557.000000	96.980541 
3556.000000	96.981428 
3555.000000	96.983166 
3554.000000	96.984969 
3553.000000	96.985795 
3552.000000	96.984920 
3551.000000	96.982010 
3550.000000	96.977355 
3549.000000	96.972388 
3548.000000	96.969343 
3547.000000	96.969303 
3546.000000	96.970929 
3545.000000	96.971776 
3544.000000	96.971092 
3543.000000	96.970141 
3542.000000	96.970060 
3541.000000	96.970796 
3540.000000	96.971828 
3539.000000	96.972701 
3538.000000	96.972978 
3537.000000	96.972288 
3536.000000	96.970828 
3535.000000	96.969090 
3534.000000	96.967426 
3533.000000	96.966012 
3532.000000	96.965086 
3531.000000	96.964833 
3530.000000	96.964914 
3529.000000	96.964477 
3528.000000	96.962905 
3527.000000	96.960427 
3526.000000	96.957969 
3525.000000	96.956396 
3524.000000	96.955999 
3523.000000	96.956571 
3522.000000	96.957562 
3521.000000	96.958311 
3520.000000	96.958426 
3519.000000	96.957844 
3518.000000	96.956676 
3517.000000	96.954982 
3516.000000	96.952844 
3515.000000	96.950535 
3514.000000	96.948468 
3513.000000	96.946915 
3512.000000	96.945767 
3511.000000	96.944625 
3510.000000	96.943162 
3509.000000	96.941411 
3508.000000	96.939684 
3507.000000	96.938211 
3506.000000	96.936907 
3505.000000	96.935473 
3504.000000	96.933772 
3503.000000	96.932007 
3502.000000	96.930503 
3501.000000	96.929366 
3500.000000	96.928446 
3499.000000	96.927515 
3498.000000	96.926341 
3497.000000	96.924732 
3496.000000	96.922626 
3495.000000	96.920220 
3494.000000	96.917957 
3493.000000	96.916251 
3492.000000	96.915180 
3491.000000	96.914450 
3490.000000	96.913677 
3489.000000	96.912687 
3488.000000	96.911407 
3487.000000	96.909642 
3486.000000	96.907244 
3485.000000	96.904524 
3484.000000	96.902170 
3483.000000	96.900534 
3482.000000	96.899276 
3481.000000	96.897787 
3480.000000	96.895869 
3479.000000	96.893763 
3478.000000	96.891649 
3477.000000	96.889405 
3476.000000	96.886830 
3475.000000	96.883932 
3474.000000	96.880996 
3473.000000	96.878436 
3472.000000	96.876495 
3471.000000	96.875048 
3470.000000	96.873657 
3469.000000	96.871932 
3468.000000	96.869816 
3467.000000	96.867548 
3466.000000	96.865429 
3465.000000	96.863549 
3464.000000	96.861664 
3463.000000	96.859346 
3462.000000	96.856381 
3461.000000	96.853016 
3460.000000	96.849774 
3459.000000	96.846960 
3458.000000	96.844452 
3457.000000	96.841906 
3456.000000	96.839139 
3455.000000	96.836246 
3454.000000	96.833495 
3453.000000	96.831132 
3452.000000	96.829269 
3451.000000	96.827873 
3450.000000	96.826712 
3449.000000	96.825366 
3448.000000	96.823396 
3447.000000	96.820632 
3446.000000	96.817265 
3445.000000	96.813701 
3444.000000	96.810334 
3443.000000	96.807414 
3442.000000	96.805024 
3441.000000	96.803063 
3440.000000	96.801260 
3439.000000	96.799248 
3438.000000	96.796729 
3437.000000	96.793619 
3436.000000	96.790214 
3435.000000	96.787126 
3434.000000	96.784895 
3433.000000	96.783572 
3432.000000	96.782666 
3431.000000	96.781586 
3430.000000	96.780059 
3429.000000	96.778130 
3428.000000	96.775857 
3427.000000	96.773175 
3426.000000	96.770097 
3425.000000	96.767008 
3424.000000	96.764520 
3423.000000	96.762913 
3422.000000	96.761794 
3421.000000	96.760476 
3420.000000	96.758747 
3419.000000	96.756989 
3418.000000	96.755597 
3417.000000	96.754592 
3416.000000	96.753833 
3415.000000	96.753226 
3414.000000	96.752539 
3413.000000	96.751314 
3412.000000	96.749297 
3411.000000	96.746892 
3410.000000	96.744934 
3409.000000	96.743953 
3408.000000	96.743730 
3407.000000	96.743472 
3406.000000	96.742428 
3405.000000	96.740458 
3404.000000	96.738155 
3403.000000	96.736293 
3402.000000	96.735085 
3401.000000	96.734115 
3400.000000	96.732969 
3399.000000	96.731699 
3398.000000	96.730571 
3397.000000	96.729705 
3396.000000	96.729188 
3395.000000	96.729263 
3394.000000	96.730017 
3393.000000	96.731006 
3392.000000	96.731517 
3391.000000	96.731266 
3390.000000	96.730642 
3389.000000	96.730196 
3388.000000	96.730084 
3387.000000	96.730080 
3386.000000	96.729925 
3385.000000	96.729396 
3384.000000	96.728204 
3383.000000	96.726263 
3382.000000	96.724256 
3381.000000	96.723404 
3380.000000	96.724138 
3379.000000	96.725333 
3378.000000	96.725510 
3377.000000	96.724908 
3376.000000	96.725364 
3375.000000	96.727862 
3374.000000	96.731044 
3373.000000	96.732673 
3372.000000	96.732255 
3371.000000	96.731384 
3370.000000	96.731783 
3369.000000	96.733626 
3368.000000	96.735903 
3367.000000	96.737649 
3366.000000	96.738449 
3365.000000	96.738217 
3364.000000	96.737045 
3363.000000	96.735247 
3362.000000	96.733238 
3361.000000	96.731350 
3360.000000	96.729925 
3359.000000	96.729439 
3358.000000	96.730258 
3357.000000	96.732267 
3356.000000	96.734882 
3355.000000	96.737502 
3354.000000	96.739966 
3353.000000	96.742631 
3352.000000	96.745985 
3351.000000	96.750036 
3350.000000	96.753948 
3349.000000	96.756447 
3348.000000	96.756904 
3347.000000	96.756026 
3346.000000	96.755348 
3345.000000	96.755799 
3344.000000	96.756839 
3343.000000	96.757192 
3342.000000	96.756365 
3341.000000	96.755203 
3340.000000	96.754844 
3339.000000	96.755413 
3338.000000	96.756123 
3337.000000	96.756434 
3336.000000	96.756697 
3335.000000	96.757553 
3334.000000	96.759040 
3333.000000	96.760564 
3332.000000	96.761622 
3331.000000	96.762291 
3330.000000	96.762976 
3329.000000	96.763881 
3328.000000	96.764912 
3327.000000	96.765983 
3326.000000	96.767170 
3325.000000	96.768493 
3324.000000	96.769717 
3323.000000	96.770564 
3322.000000	96.771089 
3321.000000	96.771720 
3320.000000	96.772839 
3319.000000	96.774435 
3318.000000	96.776186 
3317.000000	96.777756 
3316.000000	96.779008 
3315.000000	96.780006 
3314.000000	96.780902 
3313.000000	96.781828 
3312.000000	96.782830 
3311.000000	96.783878 
3310.000000	96.784946 
3309.000000	96.786026 
3308.000000	96.787096 
3307.000000	96.788110 
3306.000000	96.789073 
3305.000000	96.790033 
3304.000000	96.791034 
3303.000000	96.792094 
3302.000000	96.793204 
3301.000000	96.794349 
3300.000000	96.795500 
3299.000000	96.796628 
3298.000000	96.797716 
3297.000000	96.798767 
3296.000000	96.799811 
3295.000000	96.800878 
3294.000000	96.801980 
3293.000000	96.803115 
3292.000000	96.804277 
3291.000000	96.805454 
3290.000000	96.806610 
3289.000000	96.807703 
3288.000000	96.808705 
3287.000000	96.809618 
3286.000000	96.810461 
3285.000000	96.811252 
3284.000000	96.812013 
3283.000000	96.812782 
3282.000000	96.813621 
3281.000000	96.814573 
3280.000000	96.815588 
3279.000000	96.816498 
3278.000000	96.817195 
3277.000000	96.817813 
3276.000000	96.818643 
3275.000000	96.819782 
3274.000000	96.821016 
3273.000000	96.822125 
3272.000000	96.823198 
3271.000000	96.824484 
3270.000000	96.825982 
3269.000000	96.827342 
3268.000000	96.828209 
3267.000000	96.828592 
3266.000000	96.828906 
3265.000000	96.829678 
3264.000000	96.831126 
3263.000000	96.832948 
3262.000000	96.834519 
3261.000000	96.835478 
3260.000000	96.835975 
3259.000000	96.836370 
3258.000000	96.836807 
3257.000000	96.837277 
3256.000000	96.837881 
3255.000000	96.838696 
3254.000000	96.839531 
3253.000000	96.840178 
3252.000000	96.840894 
3251.000000	96.842203 
3250.000000	96.844111 
3249.000000	96.845860 
3248.000000	96.846715 
3247.000000	96.846865 
3246.000000	96.847278 
3245.000000	96.848640 
3244.000000	96.850698 
3243.000000	96.852680 
3242.000000	96.854181 
3241.000000	96.855387 
3240.000000	96.856565 
3239.000000	96.857772 
3238.000000	96.859187 
3237.000000	96.861271 
3236.000000	96.864271 
3235.000000	96.867683 
3234.000000	96.870532 
3233.000000	96.872262 
3232.000000	96.873063 
3231.000000	96.873492 
3230.000000	96.873984 
3229.000000	96.874798 
3228.000000	96.876168 
3227.000000	96.878264 
3226.000000	96.881057 
3225.000000	96.884300 
3224.000000	96.887553 
3223.000000	96.890308 
3222.000000	96.892307 
3221.000000	96.893831 
3220.000000	96.895408 
3219.000000	96.897167 
3218.000000	96.898792 
3217.000000	96.900085 
3216.000000	96.901294 
3215.000000	96.902811 
3214.000000	96.904790 
3213.000000	96.907143 
3212.000000	96.909667 
3211.000000	96.912099 
3210.000000	96.914266 
3209.000000	96.916304 
3208.000000	96.918503 
3207.000000	96.920802 
3206.000000	96.922668 
3205.000000	96.923789 
3204.000000	96.924726 
3203.000000	96.926533 
3202.000000	96.929675 
3201.000000	96.933543 
3200.000000	96.937110 
3199.000000	96.939977 
3198.000000	96.942586 
3197.000000	96.945396 
3196.000000	96.948138 
3195.000000	96.950163 
3194.000000	96.951464 
3193.000000	96.952992 
3192.000000	96.955746 
3191.000000	96.959802 
3190.000000	96.964316 
3189.000000	96.968313 
3188.000000	96.971320 
3187.000000	96.973529 
3186.000000	96.975699 
3185.000000	96.978686 
3184.000000	96.982715 
3183.000000	96.987159 
3182.000000	96.991205 
3181.000000	96.994511 
3180.000000	96.997172 
3179.000000	96.999393 
3178.000000	97.001451 
3177.000000	97.003748 
3176.000000	97.006523 
3175.000000	97.009620 
3174.000000	97.012758 
3173.000000	97.015864 
3172.000000	97.018974 
3171.000000	97.021989 
3170.000000	97.024790 
3169.000000	97.027493 
3168.000000	97.030320 
3167.000000	97.033304 
3166.000000	97.036288 
3165.000000	97.039162 
3164.000000	97.041927 
3163.000000	97.044602 
3162.000000	97.047215 
3161.000000	97.049851 
3160.000000	97.052612 
3159.000000	97.055529 
3158.000000	97.058565 
3157.000000	97.061670 
3156.000000	97.064790 
3155.000000	97.067867 
3154.000000	97.070878 
3153.000000	97.073860 
3152.000000	97.076851 
3151.000000	97.079846 
3150.000000	97.082822 
3149.000000	97.085776 
3148.000000	97.088723 
3147.000000	97.091684 
3146.000000	97.094683 
3145.000000	97.097720 
3144.000000	97.100779 
3143.000000	97.103828 
3142.000000	97.106842 
3141.000000	97.109813 
3140.000000	97.112746 
3139.000000	97.115672 
3138.000000	97.118630 
3137.000000	97.121642 
3136.000000	97.124697 
3135.000000	97.127741 
3134.000000	97.130706 
3133.000000	97.133566 
3132.000000	97.136369 
3131.000000	97.139189 
3130.000000	97.142060 
3129.000000	97.145031 
3128.000000	97.148218 
3127.000000	97.151704 
3126.000000	97.155380 
3125.000000	97.158982 
3124.000000	97.162286 
3123.000000	97.165228 
3122.000000	97.167893 
3121.000000	97.170498 
3120.000000	97.173272 
3119.000000	97.176231 
3118.000000	97.179115 
3117.000000	97.181762 
3116.000000	97.184432 
3115.000000	97.187524 
3114.000000	97.190995 
3113.000000	97.194331 
3112.000000	97.197234 
3111.000000	97.200075 
3110.000000	97.203499 
3109.000000	97.207689 
3108.000000	97.212171 
3107.000000	97.216265 
3106.000000	97.219501 
3105.000000	97.221627 
3104.000000	97.222471 
3103.000000	97.222104 
3102.000000	97.221152 
3101.000000	97.220596 
3100.000000	97.221139 
3099.000000	97.222884 
3098.000000	97.225770 
3097.000000	97.230101 
3096.000000	97.236150 
3095.000000	97.243173 
3094.000000	97.249548 
3093.000000	97.254162 
3092.000000	97.257208 
3091.000000	97.259434 
3090.000000	97.261062 
3089.000000	97.261717 
3088.000000	97.261091 
3087.000000	97.259543 
3086.000000	97.258215 
3085.000000	97.258480 
3084.000000	97.260787 
3083.000000	97.264208 
3082.000000	97.267679 
3081.000000	97.271521 
3080.000000	97.276761 
3079.000000	97.282992 
3078.000000	97.288451 
3077.000000	97.292568 
3076.000000	97.296675 
3075.000000	97.301308 
3074.000000	97.304618 
3073.000000	97.305000 
3072.000000	97.303811 
3071.000000	97.303687 
3070.000000	97.305026 
3069.000000	97.306252 
3068.000000	97.306880 
3067.000000	97.308001 
3066.000000	97.309788 
3065.000000	97.310784 
3064.000000	97.310113 
3063.000000	97.308642 
3062.000000	97.307437 
3061.000000	97.306599 
3060.000000	97.306197 
3059.000000	97.307002 
3058.000000	97.309724 
3057.000000	97.314101 
3056.000000	97.318841 
3055.000000	97.321796 
3054.000000	97.320862 
3053.000000	97.316248 
3052.000000	97.311718 
3051.000000	97.311877 
3050.000000	97.317552 
3049.000000	97.324994 
3048.000000	97.329792 
3047.000000	97.330333 
3046.000000	97.327428 
3045.000000	97.322699 
3044.000000	97.318327 
3043.000000	97.316817 
3042.000000	97.319075 
3041.000000	97.322694 
3040.000000	97.323330 
3039.000000	97.318348 
3038.000000	97.309119 
3037.000000	97.299690 
3036.000000	97.293011 
3035.000000	97.288427 
3034.000000	97.283180 
3033.000000	97.276079 
3032.000000	97.268760 
3031.000000	97.263305 
3030.000000	97.259704 
3029.000000	97.256123 
3028.000000	97.250542 
3027.000000	97.241447 
3026.000000	97.228227 
3025.000000	97.212179 
3024.000000	97.196263 
3023.000000	97.182467 
3022.000000	97.169946 
3021.000000	97.157110 
3020.000000	97.144774 
3019.000000	97.135354 
3018.000000	97.128995 
3017.000000	97.122319 
3016.000000	97.111565 
3015.000000	97.095918 
3014.000000	97.077786 
3013.000000	97.060977 
3012.000000	97.048166 
3011.000000	97.038463 
3010.000000	97.027333 
3009.000000	97.010458 
3008.000000	96.987922 
3007.000000	96.963673 
3006.000000	96.941186 
3005.000000	96.921259 
3004.000000	96.903775 
3003.000000	96.889128 
3002.000000	96.877045 
3001.000000	96.865918 
3000.000000	96.854451 
2999.000000	96.842578 
2998.000000	96.829982 
2997.000000	96.815502 
2996.000000	96.799094 
2995.000000	96.782554 
2994.000000	96.766435 
2993.000000	96.747575 
2992.000000	96.722127 
2991.000000	96.691096 
2990.000000	96.661283 
2989.000000	96.640491 
2988.000000	96.632675 
2987.000000	96.636989 
2986.000000	96.649343 
2985.000000	96.664310 
2984.000000	96.676969 
2983.000000	96.684697 
2982.000000	96.687906 
2981.000000	96.688999 
2980.000000	96.690151 
2979.000000	96.691411 
2978.000000	96.690647 
2977.000000	96.685825 
2976.000000	96.677835 
2975.000000	96.670782 
2974.000000	96.668952 
2973.000000	96.673579 
2972.000000	96.682558 
2971.000000	96.692751 
2970.000000	96.702277 
2969.000000	96.711205 
2968.000000	96.720865 
2967.000000	96.732388 
2966.000000	96.745471 
2965.000000	96.758712 
2964.000000	96.771382 
2963.000000	96.784205 
2962.000000	96.797844 
2961.000000	96.811296 
2960.000000	96.822919 
2959.000000	96.832882 
2958.000000	96.843357 
2957.000000	96.855932 
2956.000000	96.869630 
2955.000000	96.882075 
2954.000000	96.892235 
2953.000000	96.901617 
2952.000000	96.912882 
2951.000000	96.927202 
2950.000000	96.942492 
2949.000000	96.954268 
2948.000000	96.959094 
2947.000000	96.957582 
2946.000000	96.953905 
2945.000000	96.952043 
2944.000000	96.952809 
2943.000000	96.954859 
2942.000000	96.957442 
2941.000000	96.960838 
2940.000000	96.964807 
2939.000000	96.968217 
2938.000000	96.970437 
2937.000000	96.972063 
2936.000000	96.973757 
2935.000000	96.975091 
2934.000000	96.975067 
2933.000000	96.973284 
2932.000000	96.970155 
2931.000000	96.966496 
2930.000000	96.963369 
2929.000000	96.961746 
2928.000000	96.961602 
2927.000000	96.961625 
2926.000000	96.960633 
2925.000000	96.959286 
2924.000000	96.959603 
2923.000000	96.962488 
2922.000000	96.966395 
2921.000000	96.968920 
2920.000000	96.969424 
2919.000000	96.969555 
2918.000000	96.971029 
2917.000000	96.973095 
2916.000000	96.972572 
2915.000000	96.966841 
2914.000000	96.957010 
2913.000000	96.947670 
2912.000000	96.942942 
2911.000000	96.942753 
2910.000000	96.943564 
2909.000000	96.942629 
2908.000000	96.940825 
2907.000000	96.940641 
2906.000000	96.941967 
2905.000000	96.940794 
2904.000000	96.932999 
2903.000000	96.919312 
2902.000000	96.907215 
2901.000000	96.905304 
2900.000000	96.916654 
2899.000000	96.936900 
2898.000000	96.957760 
2897.000000	96.973363 
2896.000000	96.982654 
2895.000000	96.987290 
2894.000000	96.989556 
2893.000000	96.992402 
2892.000000	96.998849 
2891.000000	97.009314 
2890.000000	97.020387 
2889.000000	97.028119 
2888.000000	97.032246 
2887.000000	97.035594 
2886.000000	97.039740 
2885.000000	97.043577 
2884.000000	97.046778 
2883.000000	97.052131 
2882.000000	97.062361 
2881.000000	97.076021 
2880.000000	97.089003 
2879.000000	97.100018 
2878.000000	97.112053 
2877.000000	97.127618 
2876.000000	97.144627 
2875.000000	97.158545 
2874.000000	97.167512 
2873.000000	97.173650 
2872.000000	97.179854 
2871.000000	97.187025 
2870.000000	97.194671 
2869.000000	97.202589 
2868.000000	97.210975 
2867.000000	97.219673 
2866.000000	97.228239 
2865.000000	97.236565 
2864.000000	97.245095 
2863.000000	97.254805 
2862.000000	97.267145 
2861.000000	97.283117 
2860.000000	97.301686 
2859.000000	97.319804 
2858.000000	97.335032 
2857.000000	97.347928 
2856.000000	97.360927 
2855.000000	97.374817 
2854.000000	97.387569 
2853.000000	97.396841 
2852.000000	97.402523 
2851.000000	97.406584 
2850.000000	97.411275 
2849.000000	97.417837 
2848.000000	97.426280 
2847.000000	97.435678 
2846.000000	97.444726 
2845.000000	97.452506 
2844.000000	97.458886 
2843.000000	97.464343 
2842.000000	97.469615 
2841.000000	97.475367 
2840.000000	97.481781 
2839.000000	97.488364 
2838.000000	97.494350 
2837.000000	97.499289 
2836.000000	97.503249 
2835.000000	97.506780 
2834.000000	97.511016 
2833.000000	97.517439 
2832.000000	97.526601 
2831.000000	97.536911 
2830.000000	97.545272 
2829.000000	97.549371 
2828.000000	97.549334 
2827.000000	97.547448 
2826.000000	97.546631 
2825.000000	97.548792 
2824.000000	97.553813 
2823.000000	97.559690 
2822.000000	97.564141 
2821.000000	97.566471 
2820.000000	97.567672 
2819.000000	97.568769 
2818.000000	97.569704 
2817.000000	97.570217 
2816.000000	97.571101 
2815.000000	97.573751 
2814.000000	97.578438 
2813.000000	97.583554 
2812.000000	97.586819 
2811.000000	97.587208 
2810.000000	97.585790 
2809.000000	97.584864 
2808.000000	97.586140 
2807.000000	97.589621 
2806.000000	97.594002 
2805.000000	97.597858 
2804.000000	97.600407 
2803.000000	97.601579 
2802.000000	97.601989 
2801.000000	97.602858 
2800.000000	97.605290 
2799.000000	97.609217 
2798.000000	97.613277 
2797.000000	97.616027 
2796.000000	97.617242 
2795.000000	97.617843 
2794.000000	97.618836 
2793.000000	97.620491 
2792.000000	97.622466 
2791.000000	97.624333 
2790.000000	97.625855 
2789.000000	97.626966 
2788.000000	97.627764 
2787.000000	97.628526 
2786.000000	97.629613 
2785.000000	97.631223 
2784.000000	97.633231 
2783.000000	97.635299 
2782.000000	97.637157 
2781.000000	97.638851 
2780.000000	97.640621 
2779.000000	97.642594 
2778.000000	97.644667 
2777.000000	97.646614 
2776.000000	97.648261 
2775.000000	97.649566 
2774.000000	97.650620 
2773.000000	97.651605 
2772.000000	97.652710 
2771.000000	97.654023 
2770.000000	97.655531 
2769.000000	97.657193 
2768.000000	97.658960 
2767.000000	97.660723 
2766.000000	97.662319 
2765.000000	97.663675 
2764.000000	97.664908 
2763.000000	97.666196 
2762.000000	97.667552 
2761.000000	97.668801 
2760.000000	97.669825 
2759.000000	97.670764 
2758.000000	97.671894 
2757.000000	97.673278 
2756.000000	97.674624 
2755.000000	97.675627 
2754.000000	97.676388 
2753.000000	97.677332 
2752.000000	97.678683 
2751.000000	97.680217 
2750.000000	97.681602 
2749.000000	97.682824 
2748.000000	97.684047 
2747.000000	97.685182 
2746.000000	97.685950 
2745.000000	97.686350 
2744.000000	97.686800 
2743.000000	97.687673 
2742.000000	97.688928 
2741.000000	97.690283 
2740.000000	97.691616 
2739.000000	97.692965 
2738.000000	97.694231 
2737.000000	97.695204 
2736.000000	97.695875 
2735.000000	97.696553 
2734.000000	97.697538 
2733.000000	97.698847 
2732.000000	97.700294 
2731.000000	97.701744 
2730.000000	97.703209 
2729.000000	97.704710 
2728.000000	97.706148 
2727.000000	97.707344 
2726.000000	97.708204 
2725.000000	97.708833 
2724.000000	97.709464 
2723.000000	97.710231 
2722.000000	97.711066 
2721.000000	97.711848 
2720.000000	97.712603 
2719.000000	97.713489 
2718.000000	97.714597 
2717.000000	97.715812 
2716.000000	97.716905 
2715.000000	97.717774 
2714.000000	97.718542 
2713.000000	97.719391 
2712.000000	97.720355 
2711.000000	97.721302 
2710.000000	97.722094 
2709.000000	97.722741 
2708.000000	97.723386 
2707.000000	97.724188 
2706.000000	97.725212 
2705.000000	97.726393 
2704.000000	97.727531 
2703.000000	97.728401 
2702.000000	97.728950 
2701.000000	97.729396 
2700.000000	97.730065 
2699.000000	97.731078 
2698.000000	97.732192 
2697.000000	97.732990 
2696.000000	97.733276 
2695.000000	97.733218 
2694.000000	97.733219 
2693.000000	97.733577 
2692.000000	97.734258 
2691.000000	97.734969 
2690.000000	97.735437 
2689.000000	97.735631 
2688.000000	97.735710 
2687.000000	97.735840 
2686.000000	97.736113 
2685.000000	97.736606 
2684.000000	97.737368 
2683.000000	97.738317 
2682.000000	97.739247 
2681.000000	97.740002 
2680.000000	97.740589 
2679.000000	97.741103 
2678.000000	97.741584 
2677.000000	97.742007 
2676.000000	97.742312 
2675.000000	97.742387 
2674.000000	97.742140 
2673.000000	97.741702 
2672.000000	97.741439 
2671.000000	97.741573 
2670.000000	97.741913 
2669.000000	97.742137 
2668.000000	97.742286 
2667.000000	97.742689 
2666.000000	97.743424 
2665.000000	97.744115 
2664.000000	97.744397 
2663.000000	97.744388 
2662.000000	97.744566 
2661.000000	97.745231 
2660.000000	97.746193 
2659.000000	97.746961 
2658.000000	97.747182 
2657.000000	97.746944 
2656.000000	97.746730 
2655.000000	97.747033 
2654.000000	97.747917 
2653.000000	97.748893 
2652.000000	97.749348 
2651.000000	97.749135 
2650.000000	97.748701 
2649.000000	97.748624 
2648.000000	97.749039 
2647.000000	97.749580 
2646.000000	97.749752 
2645.000000	97.749275 
2644.000000	97.748179 
2643.000000	97.746790 
2642.000000	97.745656 
2641.000000	97.745287 
2640.000000	97.745867 
2639.000000	97.747144 
2638.000000	97.748598 
2637.000000	97.749745 
2636.000000	97.750374 
2635.000000	97.750604 
2634.000000	97.750749 
2633.000000	97.751015 
2632.000000	97.751277 
2631.000000	97.751290 
2630.000000	97.751061 
2629.000000	97.750853 
2628.000000	97.750848 
2627.000000	97.750974 
2626.000000	97.751134 
2625.000000	97.751390 
2624.000000	97.751812 
2623.000000	97.752295 
2622.000000	97.752647 
2621.000000	97.752763 
2620.000000	97.752598 
2619.000000	97.752107 
2618.000000	97.751360 
2617.000000	97.750667 
2616.000000	97.750397 
2615.000000	97.750641 
2614.000000	97.751185 
2613.000000	97.751672 
2612.000000	97.751896 
2611.000000	97.751885 
2610.000000	97.751797 
2609.000000	97.751772 
2608.000000	97.751829 
2607.000000	97.751865 
2606.000000	97.751803 
2605.000000	97.751715 
2604.000000	97.751694 
2603.000000	97.751672 
2602.000000	97.751528 
2601.000000	97.751356 
2600.000000	97.751395 
2599.000000	97.751636 
2598.000000	97.751733 
2597.000000	97.751419 
2596.000000	97.750814 
2595.000000	97.750224 
2594.000000	97.749748 
2593.000000	97.749416 
2592.000000	97.749502 
2591.000000	97.750183 
2590.000000	97.750988 
2589.000000	97.751120 
2588.000000	97.750464 
2587.000000	97.749840 
2586.000000	97.750080 
2585.000000	97.751205 
2584.000000	97.752653 
2583.000000	97.753910 
2582.000000	97.754700 
2581.000000	97.754845 
2580.000000	97.754424 
2579.000000	97.754003 
2578.000000	97.754340 
2577.000000	97.755708 
2576.000000	97.757522 
2575.000000	97.758675 
2574.000000	97.758391 
2573.000000	97.756816 
2572.000000	97.754881 
2571.000000	97.753296 
2570.000000	97.751885 
2569.000000	97.750266 
2568.000000	97.748904 
2567.000000	97.748824 
2566.000000	97.750214 
2565.000000	97.751932 
2564.000000	97.752754 
2563.000000	97.752727 
2562.000000	97.752785 
2561.000000	97.753535 
2560.000000	97.754932 
2559.000000	97.756811 
2558.000000	97.759013 
2557.000000	97.760993 
2556.000000	97.761990 
2555.000000	97.761813 
2554.000000	97.761074 
2553.000000	97.760402 
2552.000000	97.759775 
2551.000000	97.759033 
2550.000000	97.758555 
2549.000000	97.758836 
2548.000000	97.759539 
2547.000000	97.759674 
2546.000000	97.758915 
2545.000000	97.758142 
2544.000000	97.758198 
2543.000000	97.758666 
2542.000000	97.758500 
2541.000000	97.757620 
2540.000000	97.757131 
2539.000000	97.757831 
2538.000000	97.759154 
2537.000000	97.759917 
2536.000000	97.759794 
2535.000000	97.759518 
2534.000000	97.759744 
2533.000000	97.760243 
2532.000000	97.760362 
2531.000000	97.759889 
2530.000000	97.759151 
2529.000000	97.758466 
2528.000000	97.757861 
2527.000000	97.757414 
2526.000000	97.757569 
2525.000000	97.758778 
2524.000000	97.760874 
2523.000000	97.762986 
2522.000000	97.764264 
2521.000000	97.764590 
2520.000000	97.764498 
2519.000000	97.764476 
2518.000000	97.764481 
2517.000000	97.764051 
2516.000000	97.762738 
2515.000000	97.760562 
2514.000000	97.758284 
2513.000000	97.757064 
2512.000000	97.757508 
2511.000000	97.759213 
2510.000000	97.761297 
2509.000000	97.763266 
2508.000000	97.764970 
2507.000000	97.766045 
2506.000000	97.766196 
2505.000000	97.765994 
2504.000000	97.766608 
2503.000000	97.768382 
2502.000000	97.770291 
2501.000000	97.771200 
2500.000000	97.771154 
2499.000000	97.770918 
2498.000000	97.770770 
2497.000000	97.770432 
2496.000000	97.769968 
2495.000000	97.769890 
2494.000000	97.770290 
2493.000000	97.770557 
2492.000000	97.770209 
2491.000000	97.769579 
2490.000000	97.769383 
2489.000000	97.769834 
2488.000000	97.770451 
2487.000000	97.770660 
2486.000000	97.770388 
2485.000000	97.770049 
2484.000000	97.770148 
2483.000000	97.770957 
2482.000000	97.772414 
2481.000000	97.774095 
2480.000000	97.775319 
2479.000000	97.775530 
2478.000000	97.774792 
2477.000000	97.773854 
2476.000000	97.773468 
2475.000000	97.773611 
2474.000000	97.773578 
2473.000000	97.772820 
2472.000000	97.771495 
2471.000000	97.770188 
2470.000000	97.769390 
2469.000000	97.769392 
2468.000000	97.770311 
2467.000000	97.771865 
2466.000000	97.773265 
2465.000000	97.773724 
2464.000000	97.773192 
2463.000000	97.772406 
2462.000000	97.772252 
2461.000000	97.773198 
2460.000000	97.775193 
2459.000000	97.777723 
2458.000000	97.779869 
2457.000000	97.780656 
2456.000000	97.779680 
2455.000000	97.777535 
2454.000000	97.775477 
2453.000000	97.774331 
2452.000000	97.773746 
2451.000000	97.772832 
2450.000000	97.771597 
2449.000000	97.771193 
2448.000000	97.772273 
2447.000000	97.773617 
2446.000000	97.773191 
2445.000000	97.770509 
2444.000000	97.767199 
2443.000000	97.765196 
2442.000000	97.765086 
2441.000000	97.766304 
2440.000000	97.768057 
2439.000000	97.769805 
2438.000000	97.771595 
2437.000000	97.774272 
2436.000000	97.778609 
2435.000000	97.783893 
2434.000000	97.787987 
2433.000000	97.789331 
2432.000000	97.788471 
2431.000000	97.787420 
2430.000000	97.787856 
2429.000000	97.789953 
2428.000000	97.792326 
2427.000000	97.792912 
2426.000000	97.790530 
2425.000000	97.785880 
2424.000000	97.780801 
2423.000000	97.776580 
2422.000000	97.773641 
2421.000000	97.772506 
2420.000000	97.773686 
2419.000000	97.776466 
2418.000000	97.779045 
2417.000000	97.780534 
2416.000000	97.781643 
2415.000000	97.782978 
2414.000000	97.784060 
2413.000000	97.784643 
2412.000000	97.785538 
2411.000000	97.787090 
2410.000000	97.788034 
2409.000000	97.787165 
2408.000000	97.785251 
2407.000000	97.784030 
2406.000000	97.783851 
2405.000000	97.783508 
2404.000000	97.782001 
2403.000000	97.779474 
2402.000000	97.776777 
2401.000000	97.775022 
2400.000000	97.775182 
2399.000000	97.777267 
2398.000000	97.780101 
2397.000000	97.782369 
2396.000000	97.783667 
2395.000000	97.784014 
2394.000000	97.783020 
2393.000000	97.780559 
2392.000000	97.777692 
2391.000000	97.775863 
2390.000000	97.775244 
2389.000000	97.774729 
2388.000000	97.773461 
2387.000000	97.771557 
2386.000000	97.769441 
2385.000000	97.767350 
2384.000000	97.765463 
2383.000000	97.763935 
2382.000000	97.762723 
2381.000000	97.761679 
2380.000000	97.760816 
2379.000000	97.760198 
2378.000000	97.759651 
2377.000000	97.758837 
2376.000000	97.757683 
2375.000000	97.756450 
2374.000000	97.755370 
2373.000000	97.754374 
2372.000000	97.753283 
2371.000000	97.752089 
2370.000000	97.750931 
2369.000000	97.749882 
2368.000000	97.748888 
2367.000000	97.747865 
2366.000000	97.746792 
2365.000000	97.745689 
2364.000000	97.744575 
2363.000000	97.743496 
2362.000000	97.742544 
2361.000000	97.741780 
2360.000000	97.741160 
2359.000000	97.740542 
2358.000000	97.739833 
2357.000000	97.739034 
2356.000000	97.738213 
2355.000000	97.737429 
2354.000000	97.736674 
2353.000000	97.735936 
2352.000000	97.735267 
2351.000000	97.734747 
2350.000000	97.734361 
2349.000000	97.733964 
2348.000000	97.733435 
2347.000000	97.732832 
2346.000000	97.732441 
2345.000000	97.732458 
2344.000000	97.732816 
2343.000000	97.733274 
2342.000000	97.733614 
2341.000000	97.733905 
2340.000000	97.734364 
2339.000000	97.734983 
2338.000000	97.735245 
2337.000000	97.734678 
2336.000000	97.733569 
2335.000000	97.732781 
2334.000000	97.732534 
2333.000000	97.732244 
2332.000000	97.731424 
2331.000000	97.730552 
2330.000000	97.729942 
2329.000000	97.729198 
2328.000000	97.728518 
2327.000000	97.728456 
2326.000000	97.729396 
2325.000000	97.730622 
2324.000000	97.731934 
2323.000000	97.733987 
2322.000000	97.736603 
2321.000000	97.738659 
2320.000000	97.739375 
2319.000000	97.739854 
2318.000000	97.740765 
2317.000000	97.741045 
2316.000000	97.739210 
2315.000000	97.736112 
2314.000000	97.734594 
2313.000000	97.736493 
2312.000000	97.741042 
2311.000000	97.745848 
2310.000000	97.749201 
2309.000000	97.750903 
2308.000000	97.751888 
2307.000000	97.752951 
2306.000000	97.754002 
2305.000000	97.754466 
2304.000000	97.754529 
2303.000000	97.755277 
2302.000000	97.757285 
2301.000000	97.759615 
2300.000000	97.760603 
2299.000000	97.759347 
2298.000000	97.756090 
2297.000000	97.751680 
2296.000000	97.747370 
2295.000000	97.744258 
2294.000000	97.742652 
2293.000000	97.741857 
2292.000000	97.741371 
2291.000000	97.741660 
2290.000000	97.743489 
2289.000000	97.746545 
2288.000000	97.749338 
2287.000000	97.750417 
2286.000000	97.749395 
2285.000000	97.747092 
2284.000000	97.744957 
2283.000000	97.744150 
2282.000000	97.744648 
2281.000000	97.745184 
2280.000000	97.744232 
2279.000000	97.741275 
2278.000000	97.737139 
2277.000000	97.733407 
2276.000000	97.731327 
2275.000000	97.731118 
2274.000000	97.732132 
2273.000000	97.733578 
2272.000000	97.735059 
2271.000000	97.736270 
2270.000000	97.736624 
2269.000000	97.735744 
2268.000000	97.734132 
2267.000000	97.732738 
2266.000000	97.731938 
2265.000000	97.731441 
2264.000000	97.730894 
2263.000000	97.729980 
2262.000000	97.728346 
2261.000000	97.725978 
2260.000000	97.723499 
2259.000000	97.721607 
2258.000000	97.720299 
2257.000000	97.719119 
2256.000000	97.717814 
2255.000000	97.716433 
2254.000000	97.715011 
2253.000000	97.713478 
2252.000000	97.711845 
2251.000000	97.710208 
2250.000000	97.708610 
2249.000000	97.707023 
2248.000000	97.705438 
2247.000000	97.703863 
2246.000000	97.702304 
2245.000000	97.700778 
2244.000000	97.699284 
2243.000000	97.697819 
2242.000000	97.696388 
2241.000000	97.694992 
2240.000000	97.693625 
2239.000000	97.692273 
2238.000000	97.690921 
2237.000000	97.689564 
2236.000000	97.688204 
2235.000000	97.686838 
2234.000000	97.685461 
2233.000000	97.684058 
2232.000000	97.682619 
2231.000000	97.681139 
2230.000000	97.679622 
2229.000000	97.678077 
2228.000000	97.676521 
2227.000000	97.674969 
2226.000000	97.673424 
2225.000000	97.671868 
2224.000000	97.670278 
2223.000000	97.668655 
2222.000000	97.667030 
2221.000000	97.665441 
2220.000000	97.663907 
2219.000000	97.662417 
2218.000000	97.660953 
2217.000000	97.659503 
2216.000000	97.658054 
2215.000000	97.656607 
2214.000000	97.655165 
2213.000000	97.653719 
2212.000000	97.652272 
2211.000000	97.650895 
2210.000000	97.649708 
2209.000000	97.648746 
2208.000000	97.647897 
2207.000000	97.646982 
2206.000000	97.645925 
2205.000000	97.644836 
2204.000000	97.643969 
2203.000000	97.643523 
2202.000000	97.643347 
2201.000000	97.642786 
2200.000000	97.641044 
2199.000000	97.637943 
2198.000000	97.634394 
2197.000000	97.631899 
2196.000000	97.631304 
2195.000000	97.632057 
2194.000000	97.632607 
2193.000000	97.631711 
2192.000000	97.629251 
2191.000000	97.625903 
2190.000000	97.622388 
2189.000000	97.619297 
2188.000000	97.617204 
2187.000000	97.616031 
2186.000000	97.614197 
2185.000000	97.609649 
2184.000000	97.602887 
2183.000000	97.598113 
2182.000000	97.599382 
2181.000000	97.606316 
2180.000000	97.613966 
2179.000000	97.617634 
2178.000000	97.616913 
2177.000000	97.614550 
2176.000000	97.613269 
2175.000000	97.613965 
2174.000000	97.616163 
2173.000000	97.619098 
2172.000000	97.622303 
2171.000000	97.625368 
2170.000000	97.627053 
2169.000000	97.625147 
2168.000000	97.618233 
2167.000000	97.607838 
2166.000000	97.597966 
2165.000000	97.591759 
2164.000000	97.589383 
2163.000000	97.589574 
2162.000000	97.592080 
2161.000000	97.597446 
2160.000000	97.605182 
2159.000000	97.613798 
2158.000000	97.622614 
2157.000000	97.632027 
2156.000000	97.641615 
2155.000000	97.649187 
2154.000000	97.652411 
2153.000000	97.651191 
2152.000000	97.647813 
2151.000000	97.644427 
2150.000000	97.641423 
2149.000000	97.638870 
2148.000000	97.638302 
2147.000000	97.641411 
2146.000000	97.647450 
2145.000000	97.654005 
2144.000000	97.660605 
2143.000000	97.669108 
2142.000000	97.679449 
2141.000000	97.687609 
2140.000000	97.689976 
2139.000000	97.688185 
2138.000000	97.687533 
2137.000000	97.690685 
2136.000000	97.695117 
2135.000000	97.696805 
2134.000000	97.694696 
2133.000000	97.691301 
2132.000000	97.690212 
2131.000000	97.693075 
2130.000000	97.698510 
2129.000000	97.703581 
2128.000000	97.706511 
2127.000000	97.707839 
2126.000000	97.708918 
2125.000000	97.710119 
2124.000000	97.710966 
2123.000000	97.711240 
2122.000000	97.711128 
2121.000000	97.710754 
2120.000000	97.710225 
2119.000000	97.709989 
2118.000000	97.710634 
2117.000000	97.712278 
2116.000000	97.714259 
2115.000000	97.715458 
2114.000000	97.715098 
2113.000000	97.713391 
2112.000000	97.711520 
2111.000000	97.710754 
2110.000000	97.711318 
2109.000000	97.712398 
2108.000000	97.713078 
2107.000000	97.713203 
2106.000000	97.713193 
2105.000000	97.713396 
2104.000000	97.713864 
2103.000000	97.714447 
2102.000000	97.714873 
2101.000000	97.714933 
2100.000000	97.714693 
2099.000000	97.714457 
2098.000000	97.714462 
2097.000000	97.714678 
2096.000000	97.714939 
2095.000000	97.715119 
2094.000000	97.715192 
2093.000000	97.715184 
2092.000000	97.715125 
2091.000000	97.715038 
2090.000000	97.714932 
2089.000000	97.714795 
2088.000000	97.714605 
2087.000000	97.714338 
2086.000000	97.713978 
2085.000000	97.713519 
2084.000000	97.712970 
2083.000000	97.712365 
2082.000000	97.711758 
2081.000000	97.711201 
2080.000000	97.710717 
2079.000000	97.710312 
2078.000000	97.709956 
2077.000000	97.709508 
2076.000000	97.708793 
2075.000000	97.707821 
2074.000000	97.706855 
2073.000000	97.706039 
2072.000000	97.705228 
2071.000000	97.704255 
2070.000000	97.703202 
2069.000000	97.702276 
2068.000000	97.701598 
2067.000000	97.701180 
2066.000000	97.700908 
2065.000000	97.700403 
2064.000000	97.699200 
2063.000000	97.697243 
2062.000000	97.695161 
2061.000000	97.693866 
2060.000000	97.693672 
2059.000000	97.694196 
2058.000000	97.694753 
2057.000000	97.694828 
2056.000000	97.694179 
2055.000000	97.692753 
2054.000000	97.690829 
2053.000000	97.688938 
2052.000000	97.687406 
2051.000000	97.686061 
2050.000000	97.684440 
2049.000000	97.682346 
2048.000000	97.680124 
2047.000000	97.678302 
2046.000000	97.677007 
2045.000000	97.675900 
2044.000000	97.674807 
2043.000000	97.674150 
2042.000000	97.674445 
2041.000000	97.675536 
2040.000000	97.676744 
2039.000000	97.677772 
2038.000000	97.678881 
2037.000000	97.680000 
2036.000000	97.680338 
2035.000000	97.679300 
2034.000000	97.677496 
2033.000000	97.676418 
2032.000000	97.676937 
2031.000000	97.678403 
2030.000000	97.679105 
2029.000000	97.677761 
2028.000000	97.674667 
2027.000000	97.671541 
2026.000000	97.669937 
2025.000000	97.670042 
2024.000000	97.671209 
2023.000000	97.673298 
2022.000000	97.676712 
2021.000000	97.680937 
2020.000000	97.683892 
2019.000000	97.683620 
2018.000000	97.679983 
2017.000000	97.674829 
2016.000000	97.670664 
2015.000000	97.668818 
2014.000000	97.668949 
2013.000000	97.669510 
2012.000000	97.669199 
2011.000000	97.668501 
2010.000000	97.669173 
2009.000000	97.671961 
2008.000000	97.675426 
2007.000000	97.677447 
2006.000000	97.677572 
2005.000000	97.677006 
2004.000000	97.676843 
2003.000000	97.677070 
2002.000000	97.677163 
2001.000000	97.676636 
2000.000000	97.675022 
1999.000000	97.672040 
1998.000000	97.667967 
1997.000000	97.663750 
1996.000000	97.660642 
1995.000000	97.659432 
1994.000000	97.659853 
1993.000000	97.660626 
1992.000000	97.660420 
1991.000000	97.659186 
1990.000000	97.658118 
1989.000000	97.658166 
1988.000000	97.658935 
1987.000000	97.659126 
1986.000000	97.657946 
1985.000000	97.655743 
1984.000000	97.653518 
1983.000000	97.652035 
1982.000000	97.651399 
1981.000000	97.651301 
1980.000000	97.651416 
1979.000000	97.651580 
1978.000000	97.651643 
1977.000000	97.651397 
1976.000000	97.650747 
1975.000000	97.649889 
1974.000000	97.649192 
1973.000000	97.648900 
1972.000000	97.648961 
1971.000000	97.649112 
1970.000000	97.649066 
1969.000000	97.648637 
1968.000000	97.647787 
1967.000000	97.646688 
1966.000000	97.645792 
1965.000000	97.645548 
1964.000000	97.646067 
1963.000000	97.647104 
1962.000000	97.648272 
1961.000000	97.649278 
1960.000000	97.649950 
1959.000000	97.650222 
1958.000000	97.650231 
1957.000000	97.650377 
1956.000000	97.651018 
1955.000000	97.652045 
1954.000000	97.652862 
1953.000000	97.653001 
1952.000000	97.652584 
1951.000000	97.652119 
1950.000000	97.652035 
1949.000000	97.652650 
1948.000000	97.654217 
1947.000000	97.656659 
1946.000000	97.659273 
1945.000000	97.661143 
1944.000000	97.661854 
1943.000000	97.661556 
1942.000000	97.660611 
1941.000000	97.659439 
1940.000000	97.658643 
1939.000000	97.658670 
1938.000000	97.659400 
1937.000000	97.660715 
1936.000000	97.663032 
1935.000000	97.666339 
1934.000000	97.669306 
1933.000000	97.670956 
1932.000000	97.672510 
1931.000000	97.675885 
1930.000000	97.680873 
1929.000000	97.684977 
1928.000000	97.686857 
1927.000000	97.687932 
1926.000000	97.689793 
1925.000000	97.691843 
1924.000000	97.692543 
1923.000000	97.692168 
1922.000000	97.692223 
1921.000000	97.692652 
1920.000000	97.692293 
1919.000000	97.691360 
1918.000000	97.691359 
1917.000000	97.692522 
1916.000000	97.693672 
1915.000000	97.695355 
1914.000000	97.699279 
1913.000000	97.704856 
1912.000000	97.709163 
1911.000000	97.710467 
1910.000000	97.709989 
1909.000000	97.709342 
1908.000000	97.708726 
1907.000000	97.708009 
1906.000000	97.707275 
1905.000000	97.705885 
1904.000000	97.702815 
1903.000000	97.699340 
1902.000000	97.698324 
1901.000000	97.700021 
1900.000000	97.702181 
1899.000000	97.703737 
1898.000000	97.705571 
1897.000000	97.707900 
1896.000000	97.709061 
1895.000000	97.708016 
1894.000000	97.705860 
1893.000000	97.703943 
1892.000000	97.702342 
1891.000000	97.700837 
1890.000000	97.699900 
1889.000000	97.699839 
1888.000000	97.700128 
1887.000000	97.700634 
1886.000000	97.701887 
1885.000000	97.703520 
1884.000000	97.704139 
1883.000000	97.703287 
1882.000000	97.702275 
1881.000000	97.702467 
1880.000000	97.703754 
1879.000000	97.705005 
1878.000000	97.705418 
1877.000000	97.705311 
1876.000000	97.705501 
1875.000000	97.706344 
1874.000000	97.707595 
1873.000000	97.708726 
1872.000000	97.709337 
1871.000000	97.709400 
1870.000000	97.709171 
1869.000000	97.709014 
1868.000000	97.709169 
1867.000000	97.709839 
1866.000000	97.711083 
1865.000000	97.712237 
1864.000000	97.712444 
1863.000000	97.712055 
1862.000000	97.712512 
1861.000000	97.714442 
1860.000000	97.716849 
1859.000000	97.718658 
1858.000000	97.720229 
1857.000000	97.722248 
1856.000000	97.724581 
1855.000000	97.726883 
1854.000000	97.729142 
1853.000000	97.730994 
1852.000000	97.732129 
1851.000000	97.733278 
1850.000000	97.735225 
1849.000000	97.737542 
1848.000000	97.739144 
1847.000000	97.740034 
1846.000000	97.741208 
1845.000000	97.742831 
1844.000000	97.743830 
1843.000000	97.743967 
1842.000000	97.744445 
1841.000000	97.745931 
1840.000000	97.748472 
1839.000000	97.752171 
1838.000000	97.756657 
1837.000000	97.760390 
1836.000000	97.761990 
1835.000000	97.762377 
1834.000000	97.763678 
1833.000000	97.766375 
1832.000000	97.769553 
1831.000000	97.772217 
1830.000000	97.773624 
1829.000000	97.773726 
1828.000000	97.773228 
1827.000000	97.773134 
1826.000000	97.773961 
1825.000000	97.775337 
1824.000000	97.776385 
1823.000000	97.776802 
1822.000000	97.777528 
1821.000000	97.779152 
1820.000000	97.780737 
1819.000000	97.781076 
1818.000000	97.781025 
1817.000000	97.782508 
1816.000000	97.784895 
1815.000000	97.786386 
1814.000000	97.787263 
1813.000000	97.789110 
1812.000000	97.791224 
1811.000000	97.790386 
1810.000000	97.786674 
1809.000000	97.784179 
1808.000000	97.784384 
1807.000000	97.785077 
1806.000000	97.785159 
1805.000000	97.785781 
1804.000000	97.787030 
1803.000000	97.787257 
1802.000000	97.785447 
1801.000000	97.782819 
1800.000000	97.780698 
1799.000000	97.778900 
1798.000000	97.778293 
1797.000000	97.779495 
1796.000000	97.780275 
1795.000000	97.778617 
1794.000000	97.775766 
1793.000000	97.774766 
1792.000000	97.775785 
1791.000000	97.776145 
1790.000000	97.776166 
1789.000000	97.778120 
1788.000000	97.781620 
1787.000000	97.784339 
1786.000000	97.785539 
1785.000000	97.786271 
1784.000000	97.786676 
1783.000000	97.786674 
1782.000000	97.786672 
1781.000000	97.786988 
1780.000000	97.787569 
1779.000000	97.787802 
1778.000000	97.788122 
1777.000000	97.788979 
1776.000000	97.789976 
1775.000000	97.791101 
1774.000000	97.792433 
1773.000000	97.793875 
1772.000000	97.795296 
1771.000000	97.795700 
1770.000000	97.794561 
1769.000000	97.793496 
1768.000000	97.794355 
1767.000000	97.796951 
1766.000000	97.799793 
1765.000000	97.802566 
1764.000000	97.806006 
1763.000000	97.809514 
1762.000000	97.811120 
1761.000000	97.810908 
1760.000000	97.811089 
1759.000000	97.812316 
1758.000000	97.813271 
1757.000000	97.812496 
1756.000000	97.811105 
1755.000000	97.810172 
1754.000000	97.808167 
1753.000000	97.803838 
1752.000000	97.799441 
1751.000000	97.799039 
1750.000000	97.802965 
1749.000000	97.807345 
1748.000000	97.809593 
1747.000000	97.810895 
1746.000000	97.812118 
1745.000000	97.813349 
1744.000000	97.815480 
1743.000000	97.818175 
1742.000000	97.819406 
1741.000000	97.818749 
1740.000000	97.817903 
1739.000000	97.817741 
1738.000000	97.816539 
1737.000000	97.813611 
1736.000000	97.810363 
1735.000000	97.807844 
1734.000000	97.805414 
1733.000000	97.802590 
1732.000000	97.801817 
1731.000000	97.805714 
1730.000000	97.813364 
1729.000000	97.819644 
1728.000000	97.821632 
1727.000000	97.820649 
1726.000000	97.818679 
1725.000000	97.816094 
1724.000000	97.813128 
1723.000000	97.810451 
1722.000000	97.809276 
1721.000000	97.808992 
1720.000000	97.807440 
1719.000000	97.802117 
1718.000000	97.793779 
1717.000000	97.788040 
1716.000000	97.785037 
1715.000000	97.780862 
1714.000000	97.777209 
1713.000000	97.775958 
1712.000000	97.774897 
1711.000000	97.772579 
1710.000000	97.770147 
1709.000000	97.768071 
1708.000000	97.765420 
1707.000000	97.761772 
1706.000000	97.758257 
1705.000000	97.755384 
1704.000000	97.750079 
1703.000000	97.741499 
1702.000000	97.732414 
1701.000000	97.725771 
1700.000000	97.719405 
1699.000000	97.709545 
1698.000000	97.700100 
1697.000000	97.695434 
1696.000000	97.693775 
1695.000000	97.690616 
1694.000000	97.685367 
1693.000000	97.680020 
1692.000000	97.674841 
1691.000000	97.669130 
1690.000000	97.662706 
1689.000000	97.655658 
1688.000000	97.648033 
1687.000000	97.640128 
1686.000000	97.632752 
1685.000000	97.627064 
1684.000000	97.622394 
1683.000000	97.616891 
1682.000000	97.610249 
1681.000000	97.602777 
1680.000000	97.595756 
1679.000000	97.589786 
1678.000000	97.584446 
1677.000000	97.578672 
1676.000000	97.572675 
1675.000000	97.566871 
1674.000000	97.559423 
1673.000000	97.549650 
1672.000000	97.540818 
1671.000000	97.536226 
1670.000000	97.535379 
1669.000000	97.532558 
1668.000000	97.525663 
1667.000000	97.518617 
1666.000000	97.512644 
1665.000000	97.506890 
1664.000000	97.501437 
1663.000000	97.496783 
1662.000000	97.490973 
1661.000000	97.479899 
1660.000000	97.466998 
1659.000000	97.459314 
1658.000000	97.458893 
1657.000000	97.457427 
1656.000000	97.451079 
1655.000000	97.442186 
1654.000000	97.435934 
1653.000000	97.427749 
1652.000000	97.409360 
1651.000000	97.392219 
1650.000000	97.381242 
1649.000000	97.375094 
1648.000000	97.370010 
1647.000000	97.367628 
1646.000000	97.366668 
1645.000000	97.366915 
1644.000000	97.365730 
1643.000000	97.363779 
1642.000000	97.362774 
1641.000000	97.363837 
1640.000000	97.365119 
1639.000000	97.363059 
1638.000000	97.358390 
1637.000000	97.355880 
1636.000000	97.358977 
1635.000000	97.366739 
1634.000000	97.373311 
1633.000000	97.375160 
1632.000000	97.372306 
1631.000000	97.368812 
1630.000000	97.370855 
1629.000000	97.378109 
1628.000000	97.385331 
1627.000000	97.391252 
1626.000000	97.398362 
1625.000000	97.407145 
1624.000000	97.416728 
1623.000000	97.427656 
1622.000000	97.438780 
1621.000000	97.444400 
1620.000000	97.443985 
1619.000000	97.444246 
1618.000000	97.452098 
1617.000000	97.464509 
1616.000000	97.472483 
1615.000000	97.478363 
1614.000000	97.486686 
1613.000000	97.493995 
1612.000000	97.496962 
1611.000000	97.499375 
1610.000000	97.505962 
1609.000000	97.515238 
1608.000000	97.524812 
1607.000000	97.536365 
1606.000000	97.548662 
1605.000000	97.556492 
1604.000000	97.560154 
1603.000000	97.564705 
1602.000000	97.571753 
1601.000000	97.578384 
1600.000000	97.583907 
1599.000000	97.591231 
1598.000000	97.600498 
1597.000000	97.608415 
1596.000000	97.613680 
1595.000000	97.618979 
1594.000000	97.626422 
1593.000000	97.633940 
1592.000000	97.639271 
1591.000000	97.643812 
1590.000000	97.649534 
1589.000000	97.655272 
1588.000000	97.659675 
1587.000000	97.664288 
1586.000000	97.670232 
1585.000000	97.674843 
1584.000000	97.676985 
1583.000000	97.680363 
1582.000000	97.686976 
1581.000000	97.693704 
1580.000000	97.697676 
1579.000000	97.700482 
1578.000000	97.704580 
1577.000000	97.709267 
1576.000000	97.712330 
1575.000000	97.716277 
1574.000000	97.722817 
1573.000000	97.729177 
1572.000000	97.735368 
1571.000000	97.743132 
1570.000000	97.750333 
1569.000000	97.750325 
1568.000000	97.745132 
1567.000000	97.743175 
1566.000000	97.746424 
1565.000000	97.749541 
1564.000000	97.750702 
1563.000000	97.751182 
1562.000000	97.752928 
1561.000000	97.754535 
1560.000000	97.754963 
1559.000000	97.756554 
1558.000000	97.759214 
1557.000000	97.759747 
1556.000000	97.757934 
1555.000000	97.760331 
1554.000000	97.762767 
1553.000000	97.764710 
1552.000000	97.766268 
1551.000000	97.768024 
1550.000000	97.767271 
1549.000000	97.763686 
1548.000000	97.759830 
1547.000000	97.758888 
1546.000000	97.760229 
1545.000000	97.761182 
1544.000000	97.760645 
1543.000000	97.758955 
1542.000000	97.757074 
1541.000000	97.756370 
1540.000000	97.754024 
1539.000000	97.748938 
1538.000000	97.744526 
1537.000000	97.741590 
1536.000000	97.739592 
1535.000000	97.738815 
1534.000000	97.739722 
1533.000000	97.740428 
1532.000000	97.738711 
1531.000000	97.734085 
1530.000000	97.729168 
1529.000000	97.726017 
1528.000000	97.723730 
1527.000000	97.720872 
1526.000000	97.717397 
1525.000000	97.714225 
1524.000000	97.711929 
1523.000000	97.710268 
1522.000000	97.708996 
1521.000000	97.707312 
1520.000000	97.703829 
1519.000000	97.698784 
1518.000000	97.693606 
1517.000000	97.689435 
1516.000000	97.685947 
1515.000000	97.682614 
1514.000000	97.679978 
1513.000000	97.679148 
1512.000000	97.679138 
1511.000000	97.676216 
1510.000000	97.668563 
1509.000000	97.658796 
1508.000000	97.651994 
1507.000000	97.649152 
1506.000000	97.647527 
1505.000000	97.645291 
1504.000000	97.642288 
1503.000000	97.639184 
1502.000000	97.635228 
1501.000000	97.631656 
1500.000000	97.629143 
1499.000000	97.625982 
1498.000000	97.618961 
1497.000000	97.611256 
1496.000000	97.608423 
1495.000000	97.609509 
1494.000000	97.611354 
1493.000000	97.614025 
1492.000000	97.618692 
1491.000000	97.624202 
1490.000000	97.627686 
1489.000000	97.628729 
1488.000000	97.626264 
1487.000000	97.618409 
1486.000000	97.608942 
1485.000000	97.600258 
1484.000000	97.592123 
1483.000000	97.585730 
1482.000000	97.581750 
1481.000000	97.579419 
1480.000000	97.576200 
1479.000000	97.571088 
1478.000000	97.565521 
1477.000000	97.560965 
1476.000000	97.555223 
1475.000000	97.545690 
1474.000000	97.535071 
1473.000000	97.529686 
1472.000000	97.531147 
1471.000000	97.532495 
1470.000000	97.529709 
1469.000000	97.525422 
1468.000000	97.521767 
1467.000000	97.518008 
1466.000000	97.513723 
1465.000000	97.510053 
1464.000000	97.507536 
1463.000000	97.503119 
1462.000000	97.495067 
1461.000000	97.486041 
1460.000000	97.479452 
1459.000000	97.476067 
1458.000000	97.470383 
1457.000000	97.458580 
1456.000000	97.446330 
1455.000000	97.437532 
1454.000000	97.429536 
1453.000000	97.423332 
1452.000000	97.421395 
1451.000000	97.423951 
1450.000000	97.428437 
1449.000000	97.434612 
1448.000000	97.441535 
1447.000000	97.444941 
1446.000000	97.441782 
1445.000000	97.435376 
1444.000000	97.432172 
1443.000000	97.431946 
1442.000000	97.429995 
1441.000000	97.424874 
1440.000000	97.420086 
1439.000000	97.417690 
1438.000000	97.414819 
1437.000000	97.410014 
1436.000000	97.406438 
1435.000000	97.403704 
1434.000000	97.398521 
1433.000000	97.393701 
1432.000000	97.393194 
1431.000000	97.396426 
1430.000000	97.397965 
1429.000000	97.395488 
1428.000000	97.391134 
1427.000000	97.387155 
1426.000000	97.383765 
1425.000000	97.380178 
1424.000000	97.379140 
1423.000000	97.380039 
1422.000000	97.378077 
1421.000000	97.373360 
1420.000000	97.371358 
1419.000000	97.369931 
1418.000000	97.358672 
1417.000000	97.340536 
1416.000000	97.328501 
1415.000000	97.325696 
1414.000000	97.323061 
1413.000000	97.313668 
1412.000000	97.302031 
1411.000000	97.295077 
1410.000000	97.291160 
1409.000000	97.287155 
1408.000000	97.284986 
1407.000000	97.287651 
1406.000000	97.294422 
1405.000000	97.302984 
1404.000000	97.314715 
1403.000000	97.328096 
1402.000000	97.338114 
1401.000000	97.345250 
1400.000000	97.355393 
1399.000000	97.369936 
1398.000000	97.379877 
1397.000000	97.377147 
1396.000000	97.364862 
1395.000000	97.354697 
1394.000000	97.355156 
1393.000000	97.367090 
1392.000000	97.389317 
1391.000000	97.417148 
1390.000000	97.442009 
1389.000000	97.457172 
1388.000000	97.461910 
1387.000000	97.460501 
1386.000000	97.457965 
1385.000000	97.457798 
1384.000000	97.462746 
1383.000000	97.472576 
1382.000000	97.483424 
1381.000000	97.492451 
1380.000000	97.500315 
1379.000000	97.510022 
1378.000000	97.523436 
1377.000000	97.539685 
1376.000000	97.556305 
1375.000000	97.571098 
1374.000000	97.582917 
1373.000000	97.592965 
1372.000000	97.604155 
1371.000000	97.618581 
1370.000000	97.635283 
1369.000000	97.649975 
1368.000000	97.661384 
1367.000000	97.672054 
1366.000000	97.684196 
1365.000000	97.698183 
1364.000000	97.712658 
1363.000000	97.725061 
1362.000000	97.733916 
1361.000000	97.740317 
1360.000000	97.747090 
1359.000000	97.756945 
1358.000000	97.770026 
1357.000000	97.783645 
1356.000000	97.795289 
1355.000000	97.804445 
1354.000000	97.812047 
1353.000000	97.820219 
1352.000000	97.829318 
1351.000000	97.838368 
1350.000000	97.847330 
1349.000000	97.854305 
1348.000000	97.858202 
1347.000000	97.860449 
1346.000000	97.863952 
1345.000000	97.869834 
1344.000000	97.877080 
1343.000000	97.884456 
1342.000000	97.891488 
1341.000000	97.897187 
1340.000000	97.900295 
1339.000000	97.901232 
1338.000000	97.901250 
1337.000000	97.900804 
1336.000000	97.899979 
1335.000000	97.899019 
1334.000000	97.898620 
1333.000000	97.899749 
1332.000000	97.902381 
1331.000000	97.905298 
1330.000000	97.907113 
1329.000000	97.907449 
1328.000000	97.907215 
1327.000000	97.908039 
1326.000000	97.910348 
1325.000000	97.911810 
1324.000000	97.910807 
1323.000000	97.907608 
1322.000000	97.902866 
1321.000000	97.897561 
1320.000000	97.894271 
1319.000000	97.895249 
1318.000000	97.899197 
1317.000000	97.902836 
1316.000000	97.904978 
1315.000000	97.906460 
1314.000000	97.907091 
1313.000000	97.906283 
1312.000000	97.905429 
1311.000000	97.906350 
1310.000000	97.907773 
1309.000000	97.906929 
1308.000000	97.903988 
1307.000000	97.902446 
1306.000000	97.904732 
1305.000000	97.909184 
1304.000000	97.913319 
1303.000000	97.915767 
1302.000000	97.915594 
1301.000000	97.912653 
1300.000000	97.909384 
1299.000000	97.908910 
1298.000000	97.910685 
1297.000000	97.910752 
1296.000000	97.907065 
1295.000000	97.902576 
1294.000000	97.901504 
1293.000000	97.904594 
1292.000000	97.909075 
1291.000000	97.911675 
1290.000000	97.911202 
1289.000000	97.909247 
1288.000000	97.908593 
1287.000000	97.910084 
1286.000000	97.911340 
1285.000000	97.909860 
1284.000000	97.906527 
1283.000000	97.904134 
1282.000000	97.903532 
1281.000000	97.903343 
1280.000000	97.902931 
1279.000000	97.903358 
1278.000000	97.905201 
1277.000000	97.907774 
1276.000000	97.910281 
1275.000000	97.912299 
1274.000000	97.912992 
1273.000000	97.911835 
1272.000000	97.910099 
1271.000000	97.909601 
1270.000000	97.909789 
1269.000000	97.908159 
1268.000000	97.903923 
1267.000000	97.898822 
1266.000000	97.893924 
1265.000000	97.888832 
1264.000000	97.884321 
1263.000000	97.882432 
1262.000000	97.883054 
1261.000000	97.883182 
1260.000000	97.881275 
1259.000000	97.879889 
1258.000000	97.881547 
1257.000000	97.884675 
1256.000000	97.885605 
1255.000000	97.883321 
1254.000000	97.880312 
1253.000000	97.879226 
1252.000000	97.880013 
1251.000000	97.880802 
1250.000000	97.880993 
1249.000000	97.882901 
1248.000000	97.889558 
1247.000000	97.900121 
1246.000000	97.908330 
1245.000000	97.907710 
1244.000000	97.898117 
1243.000000	97.886426 
1242.000000	97.881377 
1241.000000	97.887799 
1240.000000	97.903560 
1239.000000	97.920219 
1238.000000	97.928591 
1237.000000	97.926042 
1236.000000	97.917501 
1235.000000	97.908574 
1234.000000	97.899897 
1233.000000	97.889908 
1232.000000	97.879911 
1231.000000	97.872689 
1230.000000	97.868232 
1229.000000	97.864672 
1228.000000	97.861622 
1227.000000	97.858821 
1226.000000	97.853188 
1225.000000	97.841418 
1224.000000	97.824783 
1223.000000	97.807806 
1222.000000	97.792772 
1221.000000	97.778704 
1220.000000	97.764873 
1219.000000	97.751614 
1218.000000	97.737919 
1217.000000	97.721675 
1216.000000	97.702002 
1215.000000	97.678762 
1214.000000	97.651154 
1213.000000	97.620094 
1212.000000	97.590066 
1211.000000	97.563865 
1210.000000	97.536803 
1209.000000	97.501324 
1208.000000	97.456845 
1207.000000	97.410242 
1206.000000	97.366673 
1205.000000	97.324475 
1204.000000	97.279719 
1203.000000	97.231403 
1202.000000	97.181020 
1201.000000	97.130293 
1200.000000	97.080478 
1199.000000	97.031599 
1198.000000	96.981713 
1197.000000	96.929181 
1196.000000	96.875319 
1195.000000	96.822515 
1194.000000	96.770472 
1193.000000	96.716695 
1192.000000	96.659966 
1191.000000	96.600811 
1190.000000	96.539592 
1189.000000	96.476874 
1188.000000	96.414391 
1187.000000	96.352724 
1186.000000	96.289416 
1185.000000	96.222232 
1184.000000	96.152291 
1183.000000	96.081117 
1182.000000	96.007545 
1181.000000	95.931294 
1180.000000	95.856321 
1179.000000	95.785370 
1178.000000	95.713506 
1177.000000	95.633021 
1176.000000	95.543317 
1175.000000	95.450531 
1174.000000	95.358975 
1173.000000	95.268608 
1172.000000	95.179520 
1171.000000	95.091993 
1170.000000	95.002811 
1169.000000	94.908727 
1168.000000	94.813985 
1167.000000	94.728142 
1166.000000	94.656812 
1165.000000	94.601415 
1164.000000	94.567118 
1163.000000	94.561763 
1162.000000	94.584670 
1161.000000	94.623107 
1160.000000	94.661704 
1159.000000	94.689859 
1158.000000	94.699676 
1157.000000	94.684753 
1156.000000	94.644212 
1155.000000	94.583175 
1154.000000	94.507457 
1153.000000	94.421623 
1152.000000	94.332100 
1151.000000	94.246005 
1150.000000	94.165376 
1149.000000	94.087845 
1148.000000	94.013467 
1147.000000	93.944535 
1146.000000	93.878116 
1145.000000	93.806123 
1144.000000	93.724913 
1143.000000	93.638972 
1142.000000	93.553653 
1141.000000	93.470191 
1140.000000	93.388881 
1139.000000	93.310215 
1138.000000	93.231064 
1137.000000	93.146396 
1136.000000	93.056636 
1135.000000	92.967188 
1134.000000	92.879322 
1133.000000	92.788339 
1132.000000	92.692260 
1131.000000	92.595138 
1130.000000	92.499788 
1129.000000	92.404249 
1128.000000	92.307705 
1127.000000	92.212971 
1126.000000	92.120514 
1125.000000	92.026307 
1124.000000	91.927823 
1123.000000	91.826381 
1122.000000	91.722321 
1121.000000	91.614540 
1120.000000	91.506107 
1119.000000	91.402958 
1118.000000	91.305375 
1117.000000	91.208133 
1116.000000	91.110301 
1115.000000	91.017170 
1114.000000	90.931108 
1113.000000	90.848638 
1112.000000	90.768039 
1111.000000	90.691394 
1110.000000	90.617467 
1109.000000	90.540875 
1108.000000	90.459781 
1107.000000	90.376485 
1106.000000	90.290849 
1105.000000	90.201380 
1104.000000	90.111861 
1103.000000	90.027893 
1102.000000	89.946595 
1101.000000	89.860589 
1100.000000	89.771038 
1099.000000	89.685128 
1098.000000	89.604960 
1097.000000	89.526334 
1096.000000	89.448996 
1095.000000	89.374541 
1094.000000	89.295435 
1093.000000	89.200012 
1092.000000	89.089977 
1091.000000	88.980268 
1090.000000	88.879885 
1089.000000	88.784808 
1088.000000	88.690620 
1087.000000	88.598303 
1086.000000	88.505609 
1085.000000	88.406455 
1084.000000	88.302053 
1083.000000	88.200555 
1082.000000	88.103513 
1081.000000	88.004857 
1080.000000	87.904584 
1079.000000	87.810037 
1078.000000	87.721643 
1077.000000	87.630633 
1076.000000	87.532742 
1075.000000	87.431034 
1074.000000	87.324594 
1073.000000	87.208580 
1072.000000	87.084807 
1071.000000	86.955135 
1070.000000	86.803948 
1069.000000	86.608068 
1068.000000	86.370069 
1067.000000	86.125168 
1066.000000	85.907226 
1065.000000	85.720849 
1064.000000	85.552037 
1063.000000	85.386770 
1062.000000	85.209545 
1061.000000	85.002263 
1060.000000	84.760010 
1059.000000	84.499525 
1058.000000	84.242326 
1057.000000	83.996085 
1056.000000	83.757258 
1055.000000	83.520597 
1054.000000	83.279534 
1053.000000	83.028196 
1052.000000	82.769868 
1051.000000	82.513864 
1050.000000	82.259772 
1049.000000	81.996966 
1048.000000	81.722395 
1047.000000	81.444183 
1046.000000	81.166376 
1045.000000	80.886217 
1044.000000	80.607362 
1043.000000	80.339197 
1042.000000	80.080868 
1041.000000	79.821693 
1040.000000	79.560316 
1039.000000	79.308610 
1038.000000	79.074620 
1037.000000	78.857109 
1036.000000	78.657947 
1035.000000	78.482924 
1034.000000	78.328432 
1033.000000	78.183251 
1032.000000	78.043623 
1031.000000	77.910723 
1030.000000	77.777315 
1029.000000	77.638145 
1028.000000	77.510827 
1027.000000	77.421683 
1026.000000	77.369554 
1025.000000	77.325970 
1024.000000	77.272436 
1023.000000	77.214109 
1022.000000	77.155383 
1021.000000	77.089017 
1020.000000	77.014695 
1019.000000	76.944035 
1018.000000	76.880656 
1017.000000	76.816464 
1016.000000	76.752166 
1015.000000	76.699485 
1014.000000	76.658456 
1013.000000	76.614692 
1012.000000	76.564320 
1011.000000	76.520539 
1010.000000	76.491002 
1009.000000	76.469823 
1008.000000	76.455822 
1007.000000	76.457063 
1006.000000	76.473102 
1005.000000	76.493905 
1004.000000	76.519998 
1003.000000	76.562423 
1002.000000	76.619771 
1001.000000	76.677835 
1000.000000	76.735639 
999.000000	 76.808601 
998.000000	 76.901029 
997.000000	 76.998091 
996.000000	 77.090543 
995.000000	 77.185948 
994.000000	 77.289561 
993.000000	 77.395041 
992.000000	 77.499665 
991.000000	 77.608853 
990.000000	 77.720971 
989.000000	 77.827595 
988.000000	 77.933016 
987.000000	 78.053121 
986.000000	 78.191061 
985.000000	 78.334690 
984.000000	 78.481496 
983.000000	 78.643847 
982.000000	 78.824477 
981.000000	 79.008715 
980.000000	 79.187824 
979.000000	 79.370299 
978.000000	 79.563305 
977.000000	 79.762361 
976.000000	 79.965630 
975.000000	 80.179398 
974.000000	 80.402550 
973.000000	 80.623417 
972.000000	 80.838799 
971.000000	 81.059792 
970.000000	 81.292894 
969.000000	 81.530851 
968.000000	 81.766771 
967.000000	 82.001720 
966.000000	 82.234407 
965.000000	 82.459379 
964.000000	 82.679796 
963.000000	 82.906616 
962.000000	 83.140761 
961.000000	 83.370318 
960.000000	 83.588328 
959.000000	 83.798699 
958.000000	 84.002584 
957.000000	 84.194875 
956.000000	 84.377435 
955.000000	 84.560478 
954.000000	 84.746807 
953.000000	 84.928295 
952.000000	 85.100314 
951.000000	 85.265440 
950.000000	 85.421835 
949.000000	 85.563542 
948.000000	 85.694120 
947.000000	 85.824142 
946.000000	 85.952505 
945.000000	 86.065970 
944.000000	 86.160199 
943.000000	 86.245873 
942.000000	 86.330942 
941.000000	 86.412303 
940.000000	 86.489183 
939.000000	 86.568963 
938.000000	 86.654355 
937.000000	 86.738630 
936.000000	 86.818296 
935.000000	 86.897493 
934.000000	 86.976635 
933.000000	 87.050520 
932.000000	 87.121055 
931.000000	 87.197805 
930.000000	 87.281864 
929.000000	 87.362423 
928.000000	 87.433083 
927.000000	 87.498782 
926.000000	 87.563538 
925.000000	 87.624047 
924.000000	 87.678313 
923.000000	 87.728126 
922.000000	 87.770916 
921.000000	 87.802142 
920.000000	 87.827498 
919.000000	 87.859178 
918.000000	 87.897805 
917.000000	 87.931681 
916.000000	 87.956423 
915.000000	 87.982183 
914.000000	 88.019362 
913.000000	 88.070667 
912.000000	 88.138946 
911.000000	 88.228637 
910.000000	 88.337085 
909.000000	 88.457855 
908.000000	 88.593851 
907.000000	 88.753533 
906.000000	 88.934277 
905.000000	 89.124066 
904.000000	 89.318915 
903.000000	 89.522726 
902.000000	 89.730719 
901.000000	 89.930864 
900.000000	 90.123006 
899.000000	 90.319740 
898.000000	 90.526200 
897.000000	 90.733267 
896.000000	 90.931639 
895.000000	 91.118108 
894.000000	 91.288861 
893.000000	 91.442589 
892.000000	 91.590450 
891.000000	 91.747142 
890.000000	 91.910921 
889.000000	 92.066786 
888.000000	 92.208601 
887.000000	 92.342539 
886.000000	 92.470417 
885.000000	 92.587081 
884.000000	 92.693877 
883.000000	 92.796676 
882.000000	 92.891167 
881.000000	 92.970394 
880.000000	 93.047875 
879.000000	 93.150660 
878.000000	 93.284298 
877.000000	 93.425750 
876.000000	 93.556381 
875.000000	 93.681060 
874.000000	 93.809593 
873.000000	 93.941986 
872.000000	 94.080084 
871.000000	 94.232495 
870.000000	 94.397841 
869.000000	 94.560120 
868.000000	 94.708976 
867.000000	 94.849659 
866.000000	 94.987494 
865.000000	 95.118612 
864.000000	 95.243009 
863.000000	 95.371569 
862.000000	 95.511239 
861.000000	 95.654849 
860.000000	 95.792642 
859.000000	 95.922955 
858.000000	 96.046671 
857.000000	 96.162545 
856.000000	 96.272615 
855.000000	 96.380683 
854.000000	 96.481122 
853.000000	 96.561293 
852.000000	 96.619941 
851.000000	 96.672069 
850.000000	 96.731331 
849.000000	 96.798369 
848.000000	 96.869426 
847.000000	 96.942697 
846.000000	 97.011592 
845.000000	 97.065562 
844.000000	 97.103772 
843.000000	 97.136712 
842.000000	 97.169621 
841.000000	 97.195443 
840.000000	 97.207841 
839.000000	 97.208702 
838.000000	 97.199025 
837.000000	 97.175906 
836.000000	 97.144267 
835.000000	 97.118889 
834.000000	 97.107519 
833.000000	 97.102581 
832.000000	 97.095709 
831.000000	 97.089417 
830.000000	 97.088549 
829.000000	 97.092220 
828.000000	 97.102366 
827.000000	 97.129374 
826.000000	 97.179788 
825.000000	 97.246734 
824.000000	 97.318783 
823.000000	 97.388442 
822.000000	 97.448468 
821.000000	 97.493204 
820.000000	 97.527706 
819.000000	 97.563085 
818.000000	 97.599157 
817.000000	 97.621959 
816.000000	 97.620356 
815.000000	 97.595020 
814.000000	 97.549492 
813.000000	 97.482796 
812.000000	 97.393012 
811.000000	 97.277265 
810.000000	 97.124953 
809.000000	 96.921296 
808.000000	 96.661648 
807.000000	 96.354929 
806.000000	 96.012842 
805.000000	 95.646045 
804.000000	 95.271521 
803.000000	 94.910258 
802.000000	 94.574381 
801.000000	 94.269543 
800.000000	 94.010990 
799.000000	 93.820240 
798.000000	 93.702214 
797.000000	 93.641879 
796.000000	 93.625882 
795.000000	 93.649427 
794.000000	 93.699710 
793.000000	 93.754382 
792.000000	 93.803024 
791.000000	 93.851814 
790.000000	 93.901492 
789.000000	 93.938487 
788.000000	 93.952633 
787.000000	 93.945479 
786.000000	 93.915745 
785.000000	 93.854153 
784.000000	 93.759109 
783.000000	 93.641883 
782.000000	 93.512063 
781.000000	 93.375569 
780.000000	 93.250617 
779.000000	 93.164374 
778.000000	 93.126190 
777.000000	 93.123303 
776.000000	 93.149272 
775.000000	 93.214944 
774.000000	 93.322081 
773.000000	 93.447911 
772.000000	 93.568475 
771.000000	 93.680020 
770.000000	 93.786491 
769.000000	 93.883292 
768.000000	 93.964809 
767.000000	 94.032411 
766.000000	 94.084599 
765.000000	 94.114391 
764.000000	 94.126683 
763.000000	 94.142934 
762.000000	 94.177544 
761.000000	 94.222904 
760.000000	 94.266867 
759.000000	 94.310240 
758.000000	 94.357609 
757.000000	 94.407147 
756.000000	 94.461424 
755.000000	 94.533130 
754.000000	 94.625793 
753.000000	 94.719972 
752.000000	 94.791780 
751.000000	 94.837654 
750.000000	 94.872781 
749.000000	 94.914123 
748.000000	 94.971951 
747.000000	 95.047197 
746.000000	 95.128683 
745.000000	 95.202228 
744.000000	 95.268927 
743.000000	 95.344935 
742.000000	 95.438959 
741.000000	 95.542067 
740.000000	 95.644027 
739.000000	 95.745713 
738.000000	 95.849424 
737.000000	 95.950446 
736.000000	 96.045319 
735.000000	 96.136591 
734.000000	 96.223562 
733.000000	 96.300187 
732.000000	 96.366653 
731.000000	 96.429846 
730.000000	 96.488130 
729.000000	 96.530222 
728.000000	 96.554488 
727.000000	 96.575067 
726.000000	 96.603525 
725.000000	 96.637888 
724.000000	 96.674736 
723.000000	 96.717434 
722.000000	 96.766180 
721.000000	 96.813978 
720.000000	 96.859480 
719.000000	 96.910428 
718.000000	 96.967478 
717.000000	 97.018826 
716.000000	 97.056696 
715.000000	 97.085609 
714.000000	 97.110573 
713.000000	 97.131805 
712.000000	 97.155822 
711.000000	 97.195304 
710.000000	 97.250494 
709.000000	 97.304606 
708.000000	 97.344301 
707.000000	 97.369488 
706.000000	 97.378493 
705.000000	 97.363465 
704.000000	 97.327543 
703.000000	 97.287032 
702.000000	 97.244316 
701.000000	 97.174685 
700.000000	 97.052119 
699.000000	 96.875380 
698.000000	 96.663237 
697.000000	 96.441592 
696.000000	 96.244827 
695.000000	 96.110964 
694.000000	 96.057527 
693.000000	 96.070684 
692.000000	 96.127137 
691.000000	 96.214564 
690.000000	 96.323884 
689.000000	 96.437356 
688.000000	 96.537735 
687.000000	 96.619965 
686.000000	 96.683736 
685.000000	 96.727794 
684.000000	 96.760344 
683.000000	 96.798863 
682.000000	 96.850555 
681.000000	 96.906235 
680.000000	 96.958743 
679.000000	 97.013013 
678.000000	 97.072237 
677.000000	 97.132146 
676.000000	 97.195656 
675.000000	 97.270458 
674.000000	 97.345151 
673.000000	 97.389685 
672.000000	 97.387361 
671.000000	 97.351551 
670.000000	 97.317509 
669.000000	 97.338712 
668.000000	 97.452416 
667.000000	 97.606548 
666.000000	 97.713495 
665.000000	 97.748722 
664.000000	 97.751163 
663.000000	 97.767239 
662.000000	 97.812429 
661.000000	 97.860675 
660.000000	 97.892415 
659.000000	 97.919835 
658.000000	 97.954031 
657.000000	 97.979422 
656.000000	 97.980596 
655.000000	 97.963523 
654.000000	 97.935471 
653.000000	 97.892841 
652.000000	 97.847059 
651.000000	 97.834591 
650.000000	 97.871480 

