4000.000000	98.298114 
3999.000000	98.297264 
3998.000000	98.295134 
3997.000000	98.292495 
3996.000000	98.290559 
3995.000000	98.289993 
3994.000000	98.290730 
3993.000000	98.292021 
3992.000000	98.292914 
3991.000000	98.292986 
3990.000000	98.292525 
3989.000000	98.292167 
3988.000000	98.292305 
3987.000000	98.292867 
3986.000000	98.293520 
3985.000000	98.293968 
3984.000000	98.294038 
3983.000000	98.293723 
3982.000000	98.293333 
3981.000000	98.293355 
3980.000000	98.293853 
3979.000000	98.294196 
3978.000000	98.293744 
3977.000000	98.292691 
3976.000000	98.291935 
3975.000000	98.291993 
3974.000000	98.292369 
3973.000000	98.292124 
3972.000000	98.290803 
3971.000000	98.288690 
3970.000000	98.286491 
3969.000000	98.284956 
3968.000000	98.284572 
3967.000000	98.285310 
3966.000000	98.286607 
3965.000000	98.287644 
3964.000000	98.287760 
3963.000000	98.286785 
3962.000000	98.285194 
3961.000000	98.283804 
3960.000000	98.283103 
3959.000000	98.282961 
3958.000000	98.283044 
3957.000000	98.283340 
3956.000000	98.283915 
3955.000000	98.284309 
3954.000000	98.283793 
3953.000000	98.282082 
3952.000000	98.279623 
3951.000000	98.277118 
3950.000000	98.274952 
3949.000000	98.273193 
3948.000000	98.271725 
3947.000000	98.270466 
3946.000000	98.269538 
3945.000000	98.269118 
3944.000000	98.269122 
3943.000000	98.269288 
3942.000000	98.269782 
3941.000000	98.271191 
3940.000000	98.273673 
3939.000000	98.276452 
3938.000000	98.278304 
3937.000000	98.278665 
3936.000000	98.277834 
3935.000000	98.276158 
3934.000000	98.273745 
3933.000000	98.270826 
3932.000000	98.268103 
3931.000000	98.266127 
3930.000000	98.265025 
3929.000000	98.265038 
3928.000000	98.266415 
3927.000000	98.268651 
3926.000000	98.270211 
3925.000000	98.269836 
3924.000000	98.268030 
3923.000000	98.266231 
3922.000000	98.264982 
3921.000000	98.263983 
3920.000000	98.263261 
3919.000000	98.263386 
3918.000000	98.264371 
3917.000000	98.265521 
3916.000000	98.266485 
3915.000000	98.267569 
3914.000000	98.268816 
3913.000000	98.269720 
3912.000000	98.269895 
3911.000000	98.269641 
3910.000000	98.269242 
3909.000000	98.268662 
3908.000000	98.267869 
3907.000000	98.266917 
3906.000000	98.265725 
3905.000000	98.263803 
3904.000000	98.260989 
3903.000000	98.258103 
3902.000000	98.256346 
3901.000000	98.256270 
3900.000000	98.257452 
3899.000000	98.259019 
3898.000000	98.260366 
3897.000000	98.261170 
3896.000000	98.261274 
3895.000000	98.260941 
3894.000000	98.260682 
3893.000000	98.260833 
3892.000000	98.261049 
3891.000000	98.260721 
3890.000000	98.259825 
3889.000000	98.258885 
3888.000000	98.258313 
3887.000000	98.258058 
3886.000000	98.257988 
3885.000000	98.258130 
3884.000000	98.258372 
3883.000000	98.258386 
3882.000000	98.258038 
3881.000000	98.257615 
3880.000000	98.257486 
3879.000000	98.257650 
3878.000000	98.257869 
3877.000000	98.258001 
3876.000000	98.258056 
3875.000000	98.258061 
3874.000000	98.258035 
3873.000000	98.258011 
3872.000000	98.258007 
3871.000000	98.258019 
3870.000000	98.258059 
3869.000000	98.258143 
3868.000000	98.258262 
3867.000000	98.258403 
3866.000000	98.258559 
3865.000000	98.258726 
3864.000000	98.258910 
3863.000000	98.259113 
3862.000000	98.259328 
3861.000000	98.259546 
3860.000000	98.259760 
3859.000000	98.259967 
3858.000000	98.260159 
3857.000000	98.260329 
3856.000000	98.260490 
3855.000000	98.260667 
3854.000000	98.260852 
3853.000000	98.261036 
3852.000000	98.261255 
3851.000000	98.261543 
3850.000000	98.261881 
3849.000000	98.262246 
3848.000000	98.262659 
3847.000000	98.263134 
3846.000000	98.263611 
3845.000000	98.264013 
3844.000000	98.264306 
3843.000000	98.264479 
3842.000000	98.264553 
3841.000000	98.264654 
3840.000000	98.264937 
3839.000000	98.265500 
3838.000000	98.266292 
3837.000000	98.267083 
3836.000000	98.267677 
3835.000000	98.268069 
3834.000000	98.268390 
3833.000000	98.268771 
3832.000000	98.269216 
3831.000000	98.269673 
3830.000000	98.270094 
3829.000000	98.270478 
3828.000000	98.270890 
3827.000000	98.271368 
3826.000000	98.271826 
3825.000000	98.272188 
3824.000000	98.272419 
3823.000000	98.272509 
3822.000000	98.272537 
3821.000000	98.272676 
3820.000000	98.273039 
3819.000000	98.273525 
3818.000000	98.273983 
3817.000000	98.274356 
3816.000000	98.274775 
3815.000000	98.275414 
3814.000000	98.276161 
3813.000000	98.276664 
3812.000000	98.276802 
3811.000000	98.276930 
3810.000000	98.277477 
3809.000000	98.278358 
3808.000000	98.278921 
3807.000000	98.278679 
3806.000000	98.277856 
3805.000000	98.277037 
3804.000000	98.276453 
3803.000000	98.276175 
3802.000000	98.276413 
3801.000000	98.277455 
3800.000000	98.279098 
3799.000000	98.280439 
3798.000000	98.280909 
3797.000000	98.280981 
3796.000000	98.281633 
3795.000000	98.283024 
3794.000000	98.284191 
3793.000000	98.284232 
3792.000000	98.283482 
3791.000000	98.283161 
3790.000000	98.283724 
3789.000000	98.284318 
3788.000000	98.284087 
3787.000000	98.283244 
3786.000000	98.282569 
3785.000000	98.282324 
3784.000000	98.282182 
3783.000000	98.281905 
3782.000000	98.281421 
3781.000000	98.280878 
3780.000000	98.280987 
3779.000000	98.282792 
3778.000000	98.286213 
3777.000000	98.289659 
3776.000000	98.291249 
3775.000000	98.290419 
3774.000000	98.288277 
3773.000000	98.286461 
3772.000000	98.285430 
3771.000000	98.284252 
3770.000000	98.282428 
3769.000000	98.280942 
3768.000000	98.280527 
3767.000000	98.280401 
3766.000000	98.279465 
3765.000000	98.278079 
3764.000000	98.278196 
3763.000000	98.280846 
3762.000000	98.284099 
3761.000000	98.284923 
3760.000000	98.282784 
3759.000000	98.280139 
3758.000000	98.277485 
3757.000000	98.272793 
3756.000000	98.265549 
3755.000000	98.256989 
3754.000000	98.248044 
3753.000000	98.239313 
3752.000000	98.233899 
3751.000000	98.234948 
3750.000000	98.238622 
3749.000000	98.238973 
3748.000000	98.237444 
3747.000000	98.239657 
3746.000000	98.246774 
3745.000000	98.253518 
3744.000000	98.258516 
3743.000000	98.263281 
3742.000000	98.263401 
3741.000000	98.254350 
3740.000000	98.240059 
3739.000000	98.231767 
3738.000000	98.234360 
3737.000000	98.239071 
3736.000000	98.237146 
3735.000000	98.232821 
3734.000000	98.234864 
3733.000000	98.242257 
3732.000000	98.248613 
3731.000000	98.252039 
3730.000000	98.253604 
3729.000000	98.252678 
3728.000000	98.247561 
3727.000000	98.239050 
3726.000000	98.231568 
3725.000000	98.228017 
3724.000000	98.226624 
3723.000000	98.224580 
3722.000000	98.221796 
3721.000000	98.219002 
3720.000000	98.214796 
3719.000000	98.208659 
3718.000000	98.201704 
3717.000000	98.195016 
3716.000000	98.188558 
3715.000000	98.180365 
3714.000000	98.169171 
3713.000000	98.157488 
3712.000000	98.149296 
3711.000000	98.143687 
3710.000000	98.133929 
3709.000000	98.115304 
3708.000000	98.088704 
3707.000000	98.057517 
3706.000000	98.025476 
3705.000000	97.995122 
3704.000000	97.966972 
3703.000000	97.939554 
3702.000000	97.910644 
3701.000000	97.879260 
3700.000000	97.846914 
3699.000000	97.817093 
3698.000000	97.792925 
3697.000000	97.775711 
3696.000000	97.766037 
3695.000000	97.763097 
3694.000000	97.762699 
3693.000000	97.759627 
3692.000000	97.751750 
3691.000000	97.741156 
3690.000000	97.730994 
3689.000000	97.723634 
3688.000000	97.720094 
3687.000000	97.718926 
3686.000000	97.716915 
3685.000000	97.711257 
3684.000000	97.702579 
3683.000000	97.694731 
3682.000000	97.689277 
3681.000000	97.680836 
3680.000000	97.662477 
3679.000000	97.633618 
3678.000000	97.599948 
3677.000000	97.564397 
3676.000000	97.526324 
3675.000000	97.490218 
3674.000000	97.460824 
3673.000000	97.435866 
3672.000000	97.409478 
3671.000000	97.379275 
3670.000000	97.349042 
3669.000000	97.322483 
3668.000000	97.296680 
3667.000000	97.267811 
3666.000000	97.237622 
3665.000000	97.209687 
3664.000000	97.183903 
3663.000000	97.156950 
3662.000000	97.125470 
3661.000000	97.088790 
3660.000000	97.049821 
3659.000000	97.012005 
3658.000000	96.976918 
3657.000000	96.942993 
3656.000000	96.908896 
3655.000000	96.876181 
3654.000000	96.846099 
3653.000000	96.816587 
3652.000000	96.782710 
3651.000000	96.741176 
3650.000000	96.695627 
3649.000000	96.654415 
3648.000000	96.622826 
3647.000000	96.601265 
3646.000000	96.587742 
3645.000000	96.578839 
3644.000000	96.570357 
3643.000000	96.559259 
3642.000000	96.544334 
3641.000000	96.525810 
3640.000000	96.504047 
3639.000000	96.478712 
3638.000000	96.450358 
3637.000000	96.420607 
3636.000000	96.390146 
3635.000000	96.357156 
3634.000000	96.320429 
3633.000000	96.282943 
3632.000000	96.249514 
3631.000000	96.220776 
3630.000000	96.191500 
3629.000000	96.158419 
3628.000000	96.125727 
3627.000000	96.098716 
3626.000000	96.078226 
3625.000000	96.062764 
3624.000000	96.051031 
3623.000000	96.042158 
3622.000000	96.035409 
3621.000000	96.030770 
3620.000000	96.030250 
3619.000000	96.037101 
3618.000000	96.052577 
3617.000000	96.076470 
3616.000000	96.109903 
3615.000000	96.152910 
3614.000000	96.201190 
3613.000000	96.247580 
3612.000000	96.286410 
3611.000000	96.316118 
3610.000000	96.338899 
3609.000000	96.358179 
3608.000000	96.376103 
3607.000000	96.393054 
3606.000000	96.409217 
3605.000000	96.427011 
3604.000000	96.450082 
3603.000000	96.478958 
3602.000000	96.509042 
3601.000000	96.533164 
3600.000000	96.547952 
3599.000000	96.556649 
3598.000000	96.565777 
3597.000000	96.579842 
3596.000000	96.599267 
3595.000000	96.619921 
3594.000000	96.636331 
3593.000000	96.646094 
3592.000000	96.650336 
3591.000000	96.651333 
3590.000000	96.650381 
3589.000000	96.648128 
3588.000000	96.646829 
3587.000000	96.650010 
3586.000000	96.658871 
3585.000000	96.671870 
3584.000000	96.687432 
3583.000000	96.704397 
3582.000000	96.721200 
3581.000000	96.735123 
3580.000000	96.743543 
3579.000000	96.745719 
3578.000000	96.743360 
3577.000000	96.739502 
3576.000000	96.736479 
3575.000000	96.734983 
3574.000000	96.734112 
3573.000000	96.732719 
3572.000000	96.729862 
3571.000000	96.724607 
3570.000000	96.715813 
3569.000000	96.703095 
3568.000000	96.689251 
3567.000000	96.680265 
3566.000000	96.679837 
3565.000000	96.685901 
3564.000000	96.693955 
3563.000000	96.701157 
3562.000000	96.707015 
3561.000000	96.712081 
3560.000000	96.716337 
3559.000000	96.718960 
3558.000000	96.719435 
3557.000000	96.718638 
3556.000000	96.718163 
3555.000000	96.718702 
3554.000000	96.719292 
3553.000000	96.718411 
3552.000000	96.715733 
3551.000000	96.712320 
3550.000000	96.709422 
3549.000000	96.707558 
3548.000000	96.706427 
3547.000000	96.705224 
3546.000000	96.703280 
3545.000000	96.701033 
3544.000000	96.700288 
3543.000000	96.702725 
3542.000000	96.708125 
3541.000000	96.714580 
3540.000000	96.720042 
3539.000000	96.723369 
3538.000000	96.724417 
3537.000000	96.723906 
3536.000000	96.723144 
3535.000000	96.723013 
3534.000000	96.723462 
3533.000000	96.724094 
3532.000000	96.725004 
3531.000000	96.726643 
3530.000000	96.728893 
3529.000000	96.730718 
3528.000000	96.730999 
3527.000000	96.729625 
3526.000000	96.727684 
3525.000000	96.726707 
3524.000000	96.727699 
3523.000000	96.730678 
3522.000000	96.734637 
3521.000000	96.738203 
3520.000000	96.740664 
3519.000000	96.742256 
3518.000000	96.743499 
3517.000000	96.744341 
3516.000000	96.744265 
3515.000000	96.743237 
3514.000000	96.742183 
3513.000000	96.742233 
3512.000000	96.743532 
3511.000000	96.745025 
3510.000000	96.745484 
3509.000000	96.744659 
3508.000000	96.743387 
3507.000000	96.742688 
3506.000000	96.742840 
3505.000000	96.743297 
3504.000000	96.743402 
3503.000000	96.743029 
3502.000000	96.742540 
3501.000000	96.742338 
3500.000000	96.742718 
3499.000000	96.743927 
3498.000000	96.745884 
3497.000000	96.747688 
3496.000000	96.747899 
3495.000000	96.745890 
3494.000000	96.742890 
3493.000000	96.741178 
3492.000000	96.741819 
3491.000000	96.743588 
3490.000000	96.744366 
3489.000000	96.743253 
3488.000000	96.740830 
3487.000000	96.737834 
3486.000000	96.734478 
3485.000000	96.731082 
3484.000000	96.728404 
3483.000000	96.726786 
3482.000000	96.725643 
3481.000000	96.724445 
3480.000000	96.723688 
3479.000000	96.724110 
3478.000000	96.725147 
3477.000000	96.724997 
3476.000000	96.722352 
3475.000000	96.717633 
3474.000000	96.712495 
3473.000000	96.708342 
3472.000000	96.705410 
3471.000000	96.702988 
3470.000000	96.700302 
3469.000000	96.697298 
3468.000000	96.694648 
3467.000000	96.693025 
3466.000000	96.692315 
3465.000000	96.691493 
3464.000000	96.689259 
3463.000000	96.684893 
3462.000000	96.678681 
3461.000000	96.671770 
3460.000000	96.665538 
3459.000000	96.660748 
3458.000000	96.657123 
3457.000000	96.653695 
3456.000000	96.649752 
3455.000000	96.645463 
3454.000000	96.641625 
3453.000000	96.638756 
3452.000000	96.636637 
3451.000000	96.634678 
3450.000000	96.632363 
3449.000000	96.629275 
3448.000000	96.624977 
3447.000000	96.619308 
3446.000000	96.612844 
3445.000000	96.606859 
3444.000000	96.602545 
3443.000000	96.600124 
3442.000000	96.598557 
3441.000000	96.596169 
3440.000000	96.591871 
3439.000000	96.585848 
3438.000000	96.579195 
3437.000000	96.572984 
3436.000000	96.567830 
3435.000000	96.564160 
3434.000000	96.562355 
3433.000000	96.562179 
3432.000000	96.562434 
3431.000000	96.561742 
3430.000000	96.559639 
3429.000000	96.556658 
3428.000000	96.553354 
3427.000000	96.549715 
3426.000000	96.545798 
3425.000000	96.542422 
3424.000000	96.540477 
3423.000000	96.539427 
3422.000000	96.537292 
3421.000000	96.532762 
3420.000000	96.526947 
3419.000000	96.522323 
3418.000000	96.520106 
3417.000000	96.519392 
3416.000000	96.518626 
3415.000000	96.517096 
3414.000000	96.514828 
3413.000000	96.511921 
3412.000000	96.508708 
3411.000000	96.506194 
3410.000000	96.505546 
3409.000000	96.507024 
3408.000000	96.509600 
3407.000000	96.511633 
3406.000000	96.511869 
3405.000000	96.510040 
3404.000000	96.506792 
3403.000000	96.503049 
3402.000000	96.499502 
3401.000000	96.496694 
3400.000000	96.495244 
3399.000000	96.495443 
3398.000000	96.496640 
3397.000000	96.497590 
3396.000000	96.497714 
3395.000000	96.497674 
3394.000000	96.498394 
3393.000000	96.499842 
3392.000000	96.501098 
3391.000000	96.501535 
3390.000000	96.501651 
3389.000000	96.502706 
3388.000000	96.505711 
3387.000000	96.510637 
3386.000000	96.516218 
3385.000000	96.520466 
3384.000000	96.521928 
3383.000000	96.520931 
3382.000000	96.519698 
3381.000000	96.520633 
3380.000000	96.524071 
3379.000000	96.527967 
3378.000000	96.530213 
3377.000000	96.531135 
3376.000000	96.532873 
3375.000000	96.536393 
3374.000000	96.540133 
3373.000000	96.542080 
3372.000000	96.542431 
3371.000000	96.543350 
3370.000000	96.546365 
3369.000000	96.550886 
3368.000000	96.555219 
3367.000000	96.558330 
3366.000000	96.560351 
3365.000000	96.561922 
3364.000000	96.563605 
3363.000000	96.565731 
3362.000000	96.568341 
3361.000000	96.571212 
3360.000000	96.574168 
3359.000000	96.577311 
3358.000000	96.580803 
3357.000000	96.584511 
3356.000000	96.588038 
3355.000000	96.591089 
3354.000000	96.593705 
3353.000000	96.596179 
3352.000000	96.598850 
3351.000000	96.601907 
3350.000000	96.605276 
3349.000000	96.608648 
3348.000000	96.611730 
3347.000000	96.614513 
3346.000000	96.617234 
3345.000000	96.620077 
3344.000000	96.622958 
3343.000000	96.625635 
3342.000000	96.628022 
3341.000000	96.630367 
3340.000000	96.632967 
3339.000000	96.635812 
3338.000000	96.638711 
3337.000000	96.641536 
3336.000000	96.644297 
3335.000000	96.647061 
3334.000000	96.649857 
3333.000000	96.652669 
3332.000000	96.655475 
3331.000000	96.658278 
3330.000000	96.661092 
3329.000000	96.663928 
3328.000000	96.666785 
3327.000000	96.669667 
3326.000000	96.672571 
3325.000000	96.675489 
3324.000000	96.678403 
3323.000000	96.681305 
3322.000000	96.684197 
3321.000000	96.687091 
3320.000000	96.689997 
3319.000000	96.692912 
3318.000000	96.695834 
3317.000000	96.698758 
3316.000000	96.701681 
3315.000000	96.704600 
3314.000000	96.707509 
3313.000000	96.710410 
3312.000000	96.713308 
3311.000000	96.716213 
3310.000000	96.719131 
3309.000000	96.722063 
3308.000000	96.725002 
3307.000000	96.727941 
3306.000000	96.730883 
3305.000000	96.733834 
3304.000000	96.736807 
3303.000000	96.739813 
3302.000000	96.742857 
3301.000000	96.745936 
3300.000000	96.749032 
3299.000000	96.752113 
3298.000000	96.755147 
3297.000000	96.758122 
3296.000000	96.761081 
3295.000000	96.764099 
3294.000000	96.767233 
3293.000000	96.770479 
3292.000000	96.773788 
3291.000000	96.777111 
3290.000000	96.780421 
3289.000000	96.783702 
3288.000000	96.786941 
3287.000000	96.790137 
3286.000000	96.793288 
3285.000000	96.796373 
3284.000000	96.799363 
3283.000000	96.802287 
3282.000000	96.805245 
3281.000000	96.808348 
3280.000000	96.811603 
3279.000000	96.814890 
3278.000000	96.818083 
3277.000000	96.821197 
3276.000000	96.824344 
3275.000000	96.827569 
3274.000000	96.830786 
3273.000000	96.833923 
3272.000000	96.837077 
3271.000000	96.840432 
3270.000000	96.844043 
3269.000000	96.847744 
3268.000000	96.851280 
3267.000000	96.854542 
3266.000000	96.857672 
3265.000000	96.860953 
3264.000000	96.864561 
3263.000000	96.868403 
3262.000000	96.872203 
3261.000000	96.875755 
3260.000000	96.879026 
3259.000000	96.882056 
3258.000000	96.884874 
3257.000000	96.887616 
3256.000000	96.890627 
3255.000000	96.894162 
3254.000000	96.898062 
3253.000000	96.901904 
3252.000000	96.905508 
3251.000000	96.909106 
3250.000000	96.912926 
3249.000000	96.916770 
3248.000000	96.920190 
3247.000000	96.923047 
3246.000000	96.925735 
3245.000000	96.928809 
3244.000000	96.932459 
3243.000000	96.936432 
3242.000000	96.940351 
3241.000000	96.944000 
3240.000000	96.947362 
3239.000000	96.950590 
3238.000000	96.954012 
3237.000000	96.957978 
3236.000000	96.962571 
3235.000000	96.967449 
3234.000000	96.972049 
3233.000000	96.976043 
3232.000000	96.979564 
3231.000000	96.983024 
3230.000000	96.986711 
3229.000000	96.990537 
3228.000000	96.994245 
3227.000000	96.997861 
3226.000000	97.001822 
3225.000000	97.006530 
3224.000000	97.011843 
3223.000000	97.017126 
3222.000000	97.021842 
3221.000000	97.025962 
3220.000000	97.029777 
3219.000000	97.033488 
3218.000000	97.037099 
3217.000000	97.040631 
3216.000000	97.044233 
3215.000000	97.048117 
3214.000000	97.052433 
3213.000000	97.057157 
3212.000000	97.062014 
3211.000000	97.066561 
3210.000000	97.070502 
3209.000000	97.073919 
3208.000000	97.077175 
3207.000000	97.080562 
3206.000000	97.084096 
3205.000000	97.087680 
3204.000000	97.091399 
3203.000000	97.095522 
3202.000000	97.100195 
3201.000000	97.105181 
3200.000000	97.110004 
3199.000000	97.114406 
3198.000000	97.118544 
3197.000000	97.122694 
3196.000000	97.126873 
3195.000000	97.130887 
3194.000000	97.134705 
3193.000000	97.138598 
3192.000000	97.142807 
3191.000000	97.147222 
3190.000000	97.151480 
3189.000000	97.155360 
3188.000000	97.158960 
3187.000000	97.162591 
3186.000000	97.166519 
3185.000000	97.170772 
3184.000000	97.175120 
3183.000000	97.179284 
3182.000000	97.183231 
3181.000000	97.187130 
3180.000000	97.191078 
3179.000000	97.195002 
3178.000000	97.198882 
3177.000000	97.202871 
3176.000000	97.207082 
3175.000000	97.211408 
3174.000000	97.215622 
3173.000000	97.219618 
3172.000000	97.223467 
3171.000000	97.227261 
3170.000000	97.231028 
3169.000000	97.234777 
3168.000000	97.238536 
3167.000000	97.242316 
3166.000000	97.246105 
3165.000000	97.249884 
3164.000000	97.253639 
3163.000000	97.257356 
3162.000000	97.261034 
3161.000000	97.264688 
3160.000000	97.268329 
3159.000000	97.271956 
3158.000000	97.275563 
3157.000000	97.279149 
3156.000000	97.282712 
3155.000000	97.286252 
3154.000000	97.289772 
3153.000000	97.293276 
3152.000000	97.296768 
3151.000000	97.300250 
3150.000000	97.303720 
3149.000000	97.307177 
3148.000000	97.310623 
3147.000000	97.314066 
3146.000000	97.317512 
3145.000000	97.320960 
3144.000000	97.324400 
3143.000000	97.327819 
3142.000000	97.331205 
3141.000000	97.334557 
3140.000000	97.337872 
3139.000000	97.341159 
3138.000000	97.344436 
3137.000000	97.347716 
3136.000000	97.350999 
3135.000000	97.354257 
3134.000000	97.357456 
3133.000000	97.360591 
3132.000000	97.363713 
3131.000000	97.366883 
3130.000000	97.370119 
3129.000000	97.373409 
3128.000000	97.376759 
3127.000000	97.380173 
3126.000000	97.383614 
3125.000000	97.387006 
3124.000000	97.390269 
3123.000000	97.393303 
3122.000000	97.396015 
3121.000000	97.398466 
3120.000000	97.400946 
3119.000000	97.403748 
3118.000000	97.406886 
3117.000000	97.410127 
3116.000000	97.413300 
3115.000000	97.416424 
3114.000000	97.419548 
3113.000000	97.422668 
3112.000000	97.425888 
3111.000000	97.429467 
3110.000000	97.433517 
3109.000000	97.437730 
3108.000000	97.441638 
3107.000000	97.445115 
3106.000000	97.448395 
3105.000000	97.451533 
3104.000000	97.454032 
3103.000000	97.455336 
3102.000000	97.455663 
3101.000000	97.456045 
3100.000000	97.457354 
3099.000000	97.459581 
3098.000000	97.462318 
3097.000000	97.465672 
3096.000000	97.470137 
3095.000000	97.475510 
3094.000000	97.480581 
3093.000000	97.484197 
3092.000000	97.486279 
3091.000000	97.487506 
3090.000000	97.488426 
3089.000000	97.489241 
3088.000000	97.490127 
3087.000000	97.491404 
3086.000000	97.493413 
3085.000000	97.496253 
3084.000000	97.499389 
3083.000000	97.501679 
3082.000000	97.502395 
3081.000000	97.502406 
3080.000000	97.503582 
3079.000000	97.506599 
3078.000000	97.510233 
3077.000000	97.513355 
3076.000000	97.516565 
3075.000000	97.520719 
3074.000000	97.524860 
3073.000000	97.527122 
3072.000000	97.527211 
3071.000000	97.526521 
3070.000000	97.526086 
3069.000000	97.526035 
3068.000000	97.526907 
3067.000000	97.529622 
3066.000000	97.533635 
3065.000000	97.536669 
3064.000000	97.537110 
3063.000000	97.535617 
3062.000000	97.533835 
3061.000000	97.532553 
3060.000000	97.531685 
3059.000000	97.531234 
3058.000000	97.531721 
3057.000000	97.533952 
3056.000000	97.538193 
3055.000000	97.542795 
3054.000000	97.544309 
3053.000000	97.540686 
3052.000000	97.534539 
3051.000000	97.531486 
3050.000000	97.534217 
3049.000000	97.539569 
3048.000000	97.542277 
3047.000000	97.540223 
3046.000000	97.534928 
3045.000000	97.528716 
3044.000000	97.523521 
3043.000000	97.521617 
3042.000000	97.524751 
3041.000000	97.531484 
3040.000000	97.536831 
3039.000000	97.536040 
3038.000000	97.528553 
3037.000000	97.517892 
3036.000000	97.508034 
3035.000000	97.500316 
3034.000000	97.493737 
3033.000000	97.487225 
3032.000000	97.480754 
3031.000000	97.474713 
3030.000000	97.469195 
3029.000000	97.464006 
3028.000000	97.458470 
3027.000000	97.450960 
3026.000000	97.439693 
3025.000000	97.424848 
3024.000000	97.409226 
3023.000000	97.395750 
3022.000000	97.384754 
3021.000000	97.374758 
3020.000000	97.365104 
3019.000000	97.356064 
3018.000000	97.346500 
3017.000000	97.333521 
3016.000000	97.315520 
3015.000000	97.294540 
3014.000000	97.274895 
3013.000000	97.259862 
3012.000000	97.249633 
3011.000000	97.241330 
3010.000000	97.230786 
3009.000000	97.215589 
3008.000000	97.197005 
3007.000000	97.178282 
3006.000000	97.160958 
3005.000000	97.143943 
3004.000000	97.126360 
3003.000000	97.109526 
3002.000000	97.095198 
3001.000000	97.083140 
3000.000000	97.071508 
2999.000000	97.058707 
2998.000000	97.044038 
2997.000000	97.027726 
2996.000000	97.011288 
2995.000000	96.996608 
2994.000000	96.983043 
2993.000000	96.966356 
2992.000000	96.942617 
2991.000000	96.913427 
2990.000000	96.886009 
2989.000000	96.867795 
2988.000000	96.861625 
2987.000000	96.865386 
2986.000000	96.874510 
2985.000000	96.884692 
2984.000000	96.893586 
2983.000000	96.901038 
2982.000000	96.907746 
2981.000000	96.913601 
2980.000000	96.917365 
2979.000000	96.917682 
2978.000000	96.914051 
2977.000000	96.907189 
2976.000000	96.899113 
2975.000000	96.892709 
2974.000000	96.890462 
2973.000000	96.893282 
2972.000000	96.900512 
2971.000000	96.910696 
2970.000000	96.922220 
2969.000000	96.934010 
2968.000000	96.946228 
2967.000000	96.959820 
2966.000000	96.974720 
2965.000000	96.989156 
2964.000000	97.001497 
2963.000000	97.012176 
2962.000000	97.022761 
2961.000000	97.033672 
2960.000000	97.044166 
2959.000000	97.054377 
2958.000000	97.065812 
2957.000000	97.079273 
2956.000000	97.093202 
2955.000000	97.104817 
2954.000000	97.112725 
2953.000000	97.118423 
2952.000000	97.125463 
2951.000000	97.136595 
2950.000000	97.150764 
2949.000000	97.163091 
2948.000000	97.168931 
2947.000000	97.168150 
2946.000000	97.165099 
2945.000000	97.164504 
2944.000000	97.167857 
2943.000000	97.173484 
2942.000000	97.178686 
2941.000000	97.181340 
2940.000000	97.180788 
2939.000000	97.178377 
2938.000000	97.176664 
2937.000000	97.177328 
2936.000000	97.179928 
2935.000000	97.182607 
2934.000000	97.183369 
2933.000000	97.180685 
2932.000000	97.174227 
2931.000000	97.165952 
2930.000000	97.159738 
2929.000000	97.158635 
2928.000000	97.162220 
2927.000000	97.166953 
2926.000000	97.169173 
2925.000000	97.167873 
2924.000000	97.165079 
2923.000000	97.163875 
2922.000000	97.165696 
2921.000000	97.169182 
2920.000000	97.171901 
2919.000000	97.173115 
2918.000000	97.174029 
2917.000000	97.175036 
2916.000000	97.173943 
2915.000000	97.168288 
2914.000000	97.159077 
2913.000000	97.150816 
2912.000000	97.147325 
2911.000000	97.148310 
2910.000000	97.150395 
2909.000000	97.150868 
2908.000000	97.149810 
2907.000000	97.148798 
2906.000000	97.148108 
2905.000000	97.145651 
2904.000000	97.138810 
2903.000000	97.128266 
2902.000000	97.119542 
2901.000000	97.119469 
2900.000000	97.130846 
2899.000000	97.150028 
2898.000000	97.169969 
2897.000000	97.185536 
2896.000000	97.195618 
2895.000000	97.201284 
2894.000000	97.204236 
2893.000000	97.207163 
2892.000000	97.213166 
2891.000000	97.222970 
2890.000000	97.233538 
2889.000000	97.241140 
2888.000000	97.245459 
2887.000000	97.249122 
2886.000000	97.253649 
2885.000000	97.258103 
2884.000000	97.262241 
2883.000000	97.268528 
2882.000000	97.279210 
2881.000000	97.292920 
2880.000000	97.306288 
2879.000000	97.318294 
2878.000000	97.330691 
2877.000000	97.344155 
2876.000000	97.356356 
2875.000000	97.364861 
2874.000000	97.370320 
2873.000000	97.375551 
2872.000000	97.382435 
2871.000000	97.390800 
2870.000000	97.399623 
2869.000000	97.408021 
2868.000000	97.415442 
2867.000000	97.422076 
2866.000000	97.429100 
2865.000000	97.437635 
2864.000000	97.447557 
2863.000000	97.458109 
2862.000000	97.469448 
2861.000000	97.482392 
2860.000000	97.496611 
2859.000000	97.510433 
2858.000000	97.523030 
2857.000000	97.535702 
2856.000000	97.549995 
2855.000000	97.565119 
2854.000000	97.578417 
2853.000000	97.588269 
2852.000000	97.595507 
2851.000000	97.602027 
2850.000000	97.608886 
2849.000000	97.616041 
2848.000000	97.623267 
2847.000000	97.630617 
2846.000000	97.638078 
2845.000000	97.645328 
2844.000000	97.652076 
2843.000000	97.658529 
2842.000000	97.665264 
2841.000000	97.672390 
2840.000000	97.678914 
2839.000000	97.683497 
2838.000000	97.686070 
2837.000000	97.688324 
2836.000000	97.692164 
2835.000000	97.697887 
2834.000000	97.704468 
2833.000000	97.711387 
2832.000000	97.719110 
2831.000000	97.727430 
2830.000000	97.734402 
2829.000000	97.738060 
2828.000000	97.738910 
2827.000000	97.739823 
2826.000000	97.743287 
2825.000000	97.749278 
2824.000000	97.755865 
2823.000000	97.761097 
2822.000000	97.764044 
2821.000000	97.764798 
2820.000000	97.764195 
2819.000000	97.763367 
2818.000000	97.763114 
2817.000000	97.763746 
2816.000000	97.765528 
2815.000000	97.768777 
2814.000000	97.773090 
2813.000000	97.776925 
2812.000000	97.778682 
2811.000000	97.778219 
2810.000000	97.776971 
2809.000000	97.776609 
2808.000000	97.777964 
2807.000000	97.781157 
2806.000000	97.786006 
2805.000000	97.791802 
2804.000000	97.797049 
2803.000000	97.800208 
2802.000000	97.801041 
2801.000000	97.801028 
2800.000000	97.802140 
2799.000000	97.805013 
2798.000000	97.808476 
2797.000000	97.810917 
2796.000000	97.811912 
2795.000000	97.812344 
2794.000000	97.813245 
2793.000000	97.814891 
2792.000000	97.817011 
2791.000000	97.819312 
2790.000000	97.821529 
2789.000000	97.823325 
2788.000000	97.824582 
2787.000000	97.825658 
2786.000000	97.827052 
2785.000000	97.828898 
2784.000000	97.830928 
2783.000000	97.832834 
2782.000000	97.834513 
2781.000000	97.836044 
2780.000000	97.837543 
2779.000000	97.839075 
2778.000000	97.840634 
2777.000000	97.842169 
2776.000000	97.843633 
2775.000000	97.845041 
2774.000000	97.846474 
2773.000000	97.847992 
2772.000000	97.849555 
2771.000000	97.851076 
2770.000000	97.852527 
2769.000000	97.853966 
2768.000000	97.855450 
2767.000000	97.856962 
2766.000000	97.858455 
2765.000000	97.859920 
2764.000000	97.861383 
2763.000000	97.862837 
2762.000000	97.864214 
2761.000000	97.865446 
2760.000000	97.866550 
2759.000000	97.867654 
2758.000000	97.868884 
2757.000000	97.870212 
2756.000000	97.871470 
2755.000000	97.872546 
2754.000000	97.873550 
2753.000000	97.874704 
2752.000000	97.876075 
2751.000000	97.877519 
2750.000000	97.878888 
2749.000000	97.880227 
2748.000000	97.881616 
2747.000000	97.882902 
2746.000000	97.883830 
2745.000000	97.884405 
2744.000000	97.884934 
2743.000000	97.885731 
2742.000000	97.886808 
2741.000000	97.887969 
2740.000000	97.889047 
2739.000000	97.890044 
2738.000000	97.891019 
2737.000000	97.891991 
2736.000000	97.892964 
2735.000000	97.893988 
2734.000000	97.895116 
2733.000000	97.896339 
2732.000000	97.897585 
2731.000000	97.898786 
2730.000000	97.899917 
2729.000000	97.900998 
2728.000000	97.902048 
2727.000000	97.903059 
2726.000000	97.903999 
2725.000000	97.904867 
2724.000000	97.905724 
2723.000000	97.906642 
2722.000000	97.907630 
2721.000000	97.908636 
2720.000000	97.909623 
2719.000000	97.910624 
2718.000000	97.911676 
2717.000000	97.912757 
2716.000000	97.913798 
2715.000000	97.914763 
2714.000000	97.915679 
2713.000000	97.916611 
2712.000000	97.917586 
2711.000000	97.918579 
2710.000000	97.919554 
2709.000000	97.920514 
2708.000000	97.921481 
2707.000000	97.922468 
2706.000000	97.923470 
2705.000000	97.924471 
2704.000000	97.925447 
2703.000000	97.926376 
2702.000000	97.927252 
2701.000000	97.928121 
2700.000000	97.929064 
2699.000000	97.930137 
2698.000000	97.931311 
2697.000000	97.932438 
2696.000000	97.933366 
2695.000000	97.934074 
2694.000000	97.934693 
2693.000000	97.935374 
2692.000000	97.936131 
2691.000000	97.936880 
2690.000000	97.937560 
2689.000000	97.938190 
2688.000000	97.938828 
2687.000000	97.939496 
2686.000000	97.940182 
2685.000000	97.940879 
2684.000000	97.941595 
2683.000000	97.942315 
2682.000000	97.943002 
2681.000000	97.943626 
2680.000000	97.944205 
2679.000000	97.944800 
2678.000000	97.945464 
2677.000000	97.946211 
2676.000000	97.946986 
2675.000000	97.947672 
2674.000000	97.948166 
2673.000000	97.948474 
2672.000000	97.948727 
2671.000000	97.949056 
2670.000000	97.949458 
2669.000000	97.949857 
2668.000000	97.950248 
2667.000000	97.950699 
2666.000000	97.951216 
2665.000000	97.951671 
2664.000000	97.951955 
2663.000000	97.952137 
2662.000000	97.952420 
2661.000000	97.952884 
2660.000000	97.953379 
2659.000000	97.953699 
2658.000000	97.953833 
2657.000000	97.953962 
2656.000000	97.954257 
2655.000000	97.954715 
2654.000000	97.955171 
2653.000000	97.955426 
2652.000000	97.955408 
2651.000000	97.955286 
2650.000000	97.955393 
2649.000000	97.955932 
2648.000000	97.956751 
2647.000000	97.957434 
2646.000000	97.957619 
2645.000000	97.957200 
2644.000000	97.956323 
2643.000000	97.955374 
2642.000000	97.954820 
2641.000000	97.954870 
2640.000000	97.955303 
2639.000000	97.955755 
2638.000000	97.956183 
2637.000000	97.956791 
2636.000000	97.957629 
2635.000000	97.958540 
2634.000000	97.959456 
2633.000000	97.960398 
2632.000000	97.961156 
2631.000000	97.961365 
2630.000000	97.961064 
2629.000000	97.960810 
2628.000000	97.961030 
2627.000000	97.961530 
2626.000000	97.961891 
2625.000000	97.962091 
2624.000000	97.962425 
2623.000000	97.962974 
2622.000000	97.963488 
2621.000000	97.963689 
2620.000000	97.963418 
2619.000000	97.962568 
2618.000000	97.961227 
2617.000000	97.959894 
2616.000000	97.959235 
2615.000000	97.959524 
2614.000000	97.960484 
2613.000000	97.961621 
2612.000000	97.962617 
2611.000000	97.963447 
2610.000000	97.964260 
2609.000000	97.965132 
2608.000000	97.965818 
2607.000000	97.965876 
2606.000000	97.965251 
2605.000000	97.964559 
2604.000000	97.964492 
2603.000000	97.965049 
2602.000000	97.965653 
2601.000000	97.965978 
2600.000000	97.966237 
2599.000000	97.966603 
2598.000000	97.966828 
2597.000000	97.966671 
2596.000000	97.966280 
2595.000000	97.965917 
2594.000000	97.965575 
2593.000000	97.965257 
2592.000000	97.965365 
2591.000000	97.966277 
2590.000000	97.967638 
2589.000000	97.968528 
2588.000000	97.968523 
2587.000000	97.968142 
2586.000000	97.968162 
2585.000000	97.968844 
2584.000000	97.970017 
2583.000000	97.971446 
2582.000000	97.972804 
2581.000000	97.973669 
2580.000000	97.973915 
2579.000000	97.973951 
2578.000000	97.974292 
2577.000000	97.975005 
2576.000000	97.975741 
2575.000000	97.976098 
2574.000000	97.975814 
2573.000000	97.974851 
2572.000000	97.973524 
2571.000000	97.972364 
2570.000000	97.971689 
2569.000000	97.971496 
2568.000000	97.971801 
2567.000000	97.972693 
2566.000000	97.973818 
2565.000000	97.974270 
2564.000000	97.973508 
2563.000000	97.972159 
2562.000000	97.971477 
2561.000000	97.972160 
2560.000000	97.974080 
2559.000000	97.976801 
2558.000000	97.979741 
2557.000000	97.982018 
2556.000000	97.982951 
2555.000000	97.982828 
2554.000000	97.982653 
2553.000000	97.982846 
2552.000000	97.982854 
2551.000000	97.982435 
2550.000000	97.982417 
2549.000000	97.983421 
2548.000000	97.984461 
2547.000000	97.983981 
2546.000000	97.981979 
2545.000000	97.980093 
2544.000000	97.979380 
2543.000000	97.979118 
2542.000000	97.978264 
2541.000000	97.977140 
2540.000000	97.976896 
2539.000000	97.977774 
2538.000000	97.978791 
2537.000000	97.979081 
2536.000000	97.978888 
2535.000000	97.978983 
2534.000000	97.979560 
2533.000000	97.980080 
2532.000000	97.980002 
2531.000000	97.979312 
2530.000000	97.978370 
2529.000000	97.977530 
2528.000000	97.977004 
2527.000000	97.976942 
2526.000000	97.977443 
2525.000000	97.978435 
2524.000000	97.979592 
2523.000000	97.980472 
2522.000000	97.980808 
2521.000000	97.980682 
2520.000000	97.980430 
2519.000000	97.980353 
2518.000000	97.980473 
2517.000000	97.980551 
2516.000000	97.980320 
2515.000000	97.979770 
2514.000000	97.979256 
2513.000000	97.979247 
2512.000000	97.979933 
2511.000000	97.981144 
2510.000000	97.982560 
2509.000000	97.983907 
2508.000000	97.984953 
2507.000000	97.985525 
2506.000000	97.985676 
2505.000000	97.985781 
2504.000000	97.986265 
2503.000000	97.987176 
2502.000000	97.988129 
2501.000000	97.988714 
2500.000000	97.988913 
2499.000000	97.989043 
2498.000000	97.989405 
2497.000000	97.990029 
2496.000000	97.990787 
2495.000000	97.991577 
2494.000000	97.992328 
2493.000000	97.992928 
2492.000000	97.993303 
2491.000000	97.993579 
2490.000000	97.994025 
2489.000000	97.994757 
2488.000000	97.995578 
2487.000000	97.996194 
2486.000000	97.996548 
2485.000000	97.996870 
2484.000000	97.997425 
2483.000000	97.998286 
2482.000000	97.999335 
2481.000000	98.000373 
2480.000000	98.001242 
2479.000000	98.001921 
2478.000000	98.002573 
2477.000000	98.003365 
2476.000000	98.004157 
2475.000000	98.004516 
2474.000000	98.004177 
2473.000000	98.003395 
2472.000000	98.002700 
2471.000000	98.002302 
2470.000000	98.002060 
2469.000000	98.002020 
2468.000000	98.002591 
2467.000000	98.003950 
2466.000000	98.005560 
2465.000000	98.006591 
2464.000000	98.006842 
2463.000000	98.006976 
2462.000000	98.007801 
2461.000000	98.009517 
2460.000000	98.011645 
2459.000000	98.013500 
2458.000000	98.014577 
2457.000000	98.014654 
2456.000000	98.013823 
2455.000000	98.012554 
2454.000000	98.011565 
2453.000000	98.011226 
2452.000000	98.011197 
2451.000000	98.010941 
2450.000000	98.010595 
2449.000000	98.010916 
2448.000000	98.012169 
2447.000000	98.013516 
2446.000000	98.013896 
2445.000000	98.013233 
2444.000000	98.012315 
2443.000000	98.011714 
2442.000000	98.011347 
2441.000000	98.011023 
2440.000000	98.010876 
2439.000000	98.011216 
2438.000000	98.012340 
2437.000000	98.014473 
2436.000000	98.017406 
2435.000000	98.020180 
2434.000000	98.021706 
2433.000000	98.021779 
2432.000000	98.021192 
2431.000000	98.020881 
2430.000000	98.021293 
2429.000000	98.022509 
2428.000000	98.024259 
2427.000000	98.025645 
2426.000000	98.025588 
2425.000000	98.023802 
2424.000000	98.021129 
2423.000000	98.018742 
2422.000000	98.017260 
2421.000000	98.017059 
2420.000000	98.018610 
2419.000000	98.021644 
2418.000000	98.024679 
2417.000000	98.026506 
2416.000000	98.027588 
2415.000000	98.029006 
2414.000000	98.030737 
2413.000000	98.032110 
2412.000000	98.033180 
2411.000000	98.034234 
2410.000000	98.034604 
2409.000000	98.033643 
2408.000000	98.032411 
2407.000000	98.032631 
2406.000000	98.034196 
2405.000000	98.035219 
2404.000000	98.034580 
2403.000000	98.033033 
2402.000000	98.031802 
2401.000000	98.031546 
2400.000000	98.032644 
2399.000000	98.035257 
2398.000000	98.038851 
2397.000000	98.042539 
2396.000000	98.045893 
2395.000000	98.048607 
2394.000000	98.049736 
2393.000000	98.048592 
2392.000000	98.046368 
2391.000000	98.045510 
2390.000000	98.047125 
2389.000000	98.050113 
2388.000000	98.053129 
2387.000000	98.056189 
2386.000000	98.059784 
2385.000000	98.063645 
2384.000000	98.067170 
2383.000000	98.069930 
2382.000000	98.070923 
2381.000000	98.068657 
2380.000000	98.062994 
2379.000000	98.055920 
2378.000000	98.049210 
2377.000000	98.042421 
2376.000000	98.035125 
2375.000000	98.029970 
2374.000000	98.030355 
2373.000000	98.035684 
2372.000000	98.041614 
2371.000000	98.045824 
2370.000000	98.050253 
2369.000000	98.056014 
2368.000000	98.059601 
2367.000000	98.057199 
2366.000000	98.049905 
2365.000000	98.042045 
2364.000000	98.036098 
2363.000000	98.033023 
2362.000000	98.034414 
2361.000000	98.040436 
2360.000000	98.048359 
2359.000000	98.053737 
2358.000000	98.053807 
2357.000000	98.049736 
2356.000000	98.043768 
2355.000000	98.038180 
2354.000000	98.031567 
2353.000000	98.023020 
2352.000000	98.015395 
2351.000000	98.011460 
2350.000000	98.011848 
2349.000000	98.014311 
2348.000000	98.018099 
2347.000000	98.023533 
2346.000000	98.030452 
2345.000000	98.039701 
2344.000000	98.048606 
2343.000000	98.054922 
2342.000000	98.055795 
2341.000000	98.052361 
2340.000000	98.049071 
2339.000000	98.047587 
2338.000000	98.046492 
2337.000000	98.043686 
2336.000000	98.042033 
2335.000000	98.043374 
2334.000000	98.046225 
2333.000000	98.046136 
2332.000000	98.045632 
2331.000000	98.047361 
2330.000000	98.053474 
2329.000000	98.058851 
2328.000000	98.063223 
2327.000000	98.067747 
2326.000000	98.073270 
2325.000000	98.079054 
2324.000000	98.084109 
2323.000000	98.089481 
2322.000000	98.093372 
2321.000000	98.092727 
2320.000000	98.088450 
2319.000000	98.084205 
2318.000000	98.084084 
2317.000000	98.085481 
2316.000000	98.086699 
2315.000000	98.086104 
2314.000000	98.086492 
2313.000000	98.087856 
2312.000000	98.091656 
2311.000000	98.096890 
2310.000000	98.103022 
2309.000000	98.106654 
2308.000000	98.106983 
2307.000000	98.104937 
2306.000000	98.103639 
2305.000000	98.103576 
2304.000000	98.104401 
2303.000000	98.105265 
2302.000000	98.107524 
2301.000000	98.111188 
2300.000000	98.115498 
2299.000000	98.117348 
2298.000000	98.114942 
2297.000000	98.107515 
2296.000000	98.097767 
2295.000000	98.089539 
2294.000000	98.085800 
2293.000000	98.085765 
2292.000000	98.086589 
2291.000000	98.086348 
2290.000000	98.085351 
2289.000000	98.084888 
2288.000000	98.085190 
2287.000000	98.085563 
2286.000000	98.085137 
2285.000000	98.084038 
2284.000000	98.083076 
2283.000000	98.083105 
2282.000000	98.083845 
2281.000000	98.084055 
2280.000000	98.082479 
2279.000000	98.078912 
2278.000000	98.074423 
2277.000000	98.070881 
2276.000000	98.070060 
2275.000000	98.072261 
2274.000000	98.076130 
2273.000000	98.080054 
2272.000000	98.083736 
2271.000000	98.087459 
2270.000000	98.090641 
2269.000000	98.092250 
2268.000000	98.092465 
2267.000000	98.092559 
2266.000000	98.093122 
2265.000000	98.093500 
2264.000000	98.093122 
2263.000000	98.092295 
2262.000000	98.091506 
2261.000000	98.090873 
2260.000000	98.090421 
2259.000000	98.090275 
2258.000000	98.090344 
2257.000000	98.090450 
2256.000000	98.090785 
2255.000000	98.091713 
2254.000000	98.093093 
2253.000000	98.094176 
2252.000000	98.094425 
2251.000000	98.094026 
2250.000000	98.093483 
2249.000000	98.093138 
2248.000000	98.093120 
2247.000000	98.093458 
2246.000000	98.094037 
2245.000000	98.094636 
2244.000000	98.095105 
2243.000000	98.095494 
2242.000000	98.095904 
2241.000000	98.096388 
2240.000000	98.096945 
2239.000000	98.097545 
2238.000000	98.098163 
2237.000000	98.098780 
2236.000000	98.099377 
2235.000000	98.099943 
2234.000000	98.100475 
2233.000000	98.100977 
2232.000000	98.101448 
2231.000000	98.101892 
2230.000000	98.102306 
2229.000000	98.102693 
2228.000000	98.103061 
2227.000000	98.103423 
2226.000000	98.103787 
2225.000000	98.104151 
2224.000000	98.104508 
2223.000000	98.104869 
2222.000000	98.105263 
2221.000000	98.105713 
2220.000000	98.106214 
2219.000000	98.106747 
2218.000000	98.107296 
2217.000000	98.107854 
2216.000000	98.108424 
2215.000000	98.109002 
2214.000000	98.109578 
2213.000000	98.110152 
2212.000000	98.110736 
2211.000000	98.111359 
2210.000000	98.112045 
2209.000000	98.112798 
2208.000000	98.113604 
2207.000000	98.114442 
2206.000000	98.115298 
2205.000000	98.116162 
2204.000000	98.117025 
2203.000000	98.117885 
2202.000000	98.118751 
2201.000000	98.119632 
2200.000000	98.120521 
2199.000000	98.121399 
2198.000000	98.122251 
2197.000000	98.123085 
2196.000000	98.123923 
2195.000000	98.124788 
2194.000000	98.125695 
2193.000000	98.126651 
2192.000000	98.127654 
2191.000000	98.128692 
2190.000000	98.129752 
2189.000000	98.130826 
2188.000000	98.131918 
2187.000000	98.133031 
2186.000000	98.134164 
2185.000000	98.135313 
2184.000000	98.136491 
2183.000000	98.137721 
2182.000000	98.139022 
2181.000000	98.140382 
2180.000000	98.141761 
2179.000000	98.143130 
2178.000000	98.144488 
2177.000000	98.145864 
2176.000000	98.147278 
2175.000000	98.148728 
2174.000000	98.150197 
2173.000000	98.151669 
2172.000000	98.153144 
2171.000000	98.154621 
2170.000000	98.156092 
2169.000000	98.157533 
2168.000000	98.158905 
2167.000000	98.160182 
2166.000000	98.161398 
2165.000000	98.162616 
2164.000000	98.163849 
2163.000000	98.165048 
2162.000000	98.166229 
2161.000000	98.167535 
2160.000000	98.169092 
2159.000000	98.170737 
2158.000000	98.172082 
2157.000000	98.172918 
2156.000000	98.173406 
2155.000000	98.173837 
2154.000000	98.174332 
2153.000000	98.174947 
2152.000000	98.175768 
2151.000000	98.176658 
2150.000000	98.177097 
2149.000000	98.176664 
2148.000000	98.175677 
2147.000000	98.174977 
2146.000000	98.174903 
2145.000000	98.175039 
2144.000000	98.175148 
2143.000000	98.175748 
2142.000000	98.177146 
2141.000000	98.178507 
2140.000000	98.178784 
2139.000000	98.178286 
2138.000000	98.178424 
2137.000000	98.179680 
2136.000000	98.180748 
2135.000000	98.179991 
2134.000000	98.176862 
2133.000000	98.172223 
2132.000000	98.167980 
2131.000000	98.165794 
2130.000000	98.165840 
2129.000000	98.166665 
2128.000000	98.166570 
2127.000000	98.165253 
2126.000000	98.163761 
2125.000000	98.163144 
2124.000000	98.163567 
2123.000000	98.164437 
2122.000000	98.164754 
2121.000000	98.163596 
2120.000000	98.160867 
2119.000000	98.157600 
2118.000000	98.155166 
2117.000000	98.154118 
2116.000000	98.153941 
2115.000000	98.153528 
2114.000000	98.151669 
2113.000000	98.147874 
2112.000000	98.143406 
2111.000000	98.140844 
2110.000000	98.141711 
2109.000000	98.145027 
2108.000000	98.148621 
2107.000000	98.151392 
2106.000000	98.153357 
2105.000000	98.154520 
2104.000000	98.155031 
2103.000000	98.155628 
2102.000000	98.156498 
2101.000000	98.156265 
2100.000000	98.153705 
2099.000000	98.150368 
2098.000000	98.149732 
2097.000000	98.153280 
2096.000000	98.159081 
2095.000000	98.164142 
2094.000000	98.167278 
2093.000000	98.169004 
2092.000000	98.169875 
2091.000000	98.170161 
2090.000000	98.170496 
2089.000000	98.171728 
2088.000000	98.173944 
2087.000000	98.176133 
2086.000000	98.177079 
2085.000000	98.176560 
2084.000000	98.175647 
2083.000000	98.175710 
2082.000000	98.177098 
2081.000000	98.179077 
2080.000000	98.181085 
2079.000000	98.183524 
2078.000000	98.186837 
2077.000000	98.190351 
2076.000000	98.192816 
2075.000000	98.193864 
2074.000000	98.194223 
2073.000000	98.194420 
2072.000000	98.194263 
2071.000000	98.193720 
2070.000000	98.193307 
2069.000000	98.193618 
2068.000000	98.194992 
2067.000000	98.197503 
2066.000000	98.200804 
2065.000000	98.203903 
2064.000000	98.205766 
2063.000000	98.206374 
2062.000000	98.206820 
2061.000000	98.208309 
2060.000000	98.211161 
2059.000000	98.215002 
2058.000000	98.219222 
2057.000000	98.223093 
2056.000000	98.225950 
2055.000000	98.227585 
2054.000000	98.228570 
2053.000000	98.229913 
2052.000000	98.232105 
2051.000000	98.234727 
2050.000000	98.237046 
2049.000000	98.238836 
2048.000000	98.240515 
2047.000000	98.242569 
2046.000000	98.245045 
2045.000000	98.247695 
2044.000000	98.250423 
2043.000000	98.253363 
2042.000000	98.256524 
2041.000000	98.259636 
2040.000000	98.262510 
2039.000000	98.265387 
2038.000000	98.268589 
2037.000000	98.271871 
2036.000000	98.274461 
2035.000000	98.275916 
2034.000000	98.276756 
2033.000000	98.278139 
2032.000000	98.280729 
2031.000000	98.284055 
2030.000000	98.286797 
2029.000000	98.287972 
2028.000000	98.287725 
2027.000000	98.287138 
2026.000000	98.287170 
2025.000000	98.288009 
2024.000000	98.289453 
2023.000000	98.291526 
2022.000000	98.294427 
2021.000000	98.297791 
2020.000000	98.300384 
2019.000000	98.301024 
2018.000000	98.299572 
2017.000000	98.297127 
2016.000000	98.295295 
2015.000000	98.294855 
2014.000000	98.295288 
2013.000000	98.295388 
2012.000000	98.294638 
2011.000000	98.293933 
2010.000000	98.294516 
2009.000000	98.296391 
2008.000000	98.298197 
2007.000000	98.298828 
2006.000000	98.298533 
2005.000000	98.298081 
2004.000000	98.297583 
2003.000000	98.296822 
2002.000000	98.296073 
2001.000000	98.295733 
2000.000000	98.295392 
1999.000000	98.294065 
1998.000000	98.291402 
1997.000000	98.288148 
1996.000000	98.285486 
1995.000000	98.284108 
1994.000000	98.283945 
1993.000000	98.284409 
1992.000000	98.284700 
1991.000000	98.284376 
1990.000000	98.283684 
1989.000000	98.283151 
1988.000000	98.282883 
1987.000000	98.282476 
1986.000000	98.281577 
1985.000000	98.280312 
1984.000000	98.279091 
1983.000000	98.278176 
1982.000000	98.277510 
1981.000000	98.276908 
1980.000000	98.276251 
1979.000000	98.275475 
1978.000000	98.274548 
1977.000000	98.273486 
1976.000000	98.272355 
1975.000000	98.271217 
1974.000000	98.270100 
1973.000000	98.268995 
1972.000000	98.267873 
1971.000000	98.266702 
1970.000000	98.265460 
1969.000000	98.264137 
1968.000000	98.262735 
1967.000000	98.261280 
1966.000000	98.259809 
1965.000000	98.258361 
1964.000000	98.256960 
1963.000000	98.255592 
1962.000000	98.254218 
1961.000000	98.252797 
1960.000000	98.251302 
1959.000000	98.249728 
1958.000000	98.248101 
1957.000000	98.246467 
1956.000000	98.244857 
1955.000000	98.243266 
1954.000000	98.241649 
1953.000000	98.239965 
1952.000000	98.238200 
1951.000000	98.236368 
1950.000000	98.234495 
1949.000000	98.232609 
1948.000000	98.230726 
1947.000000	98.228854 
1946.000000	98.226984 
1945.000000	98.225072 
1944.000000	98.223063 
1943.000000	98.220942 
1942.000000	98.218747 
1941.000000	98.216515 
1940.000000	98.214283 
1939.000000	98.212090 
1938.000000	98.209936 
1937.000000	98.207823 
1936.000000	98.205850 
1935.000000	98.204070 
1934.000000	98.202300 
1933.000000	98.200358 
1932.000000	98.198461 
1931.000000	98.197025 
1930.000000	98.196048 
1929.000000	98.194971 
1928.000000	98.193436 
1927.000000	98.191719 
1926.000000	98.190196 
1925.000000	98.188747 
1924.000000	98.186996 
1923.000000	98.184975 
1922.000000	98.182984 
1921.000000	98.181020 
1920.000000	98.179030 
1919.000000	98.177346 
1918.000000	98.176111 
1917.000000	98.174560 
1916.000000	98.171939 
1915.000000	98.168967 
1914.000000	98.167080 
1913.000000	98.166497 
1912.000000	98.165958 
1911.000000	98.164599 
1910.000000	98.162798 
1909.000000	98.161262 
1908.000000	98.160297 
1907.000000	98.159779 
1906.000000	98.159066 
1905.000000	98.157107 
1904.000000	98.153448 
1903.000000	98.149291 
1902.000000	98.146460 
1901.000000	98.145247 
1900.000000	98.144508 
1899.000000	98.143473 
1898.000000	98.142392 
1897.000000	98.141524 
1896.000000	98.140329 
1895.000000	98.138134 
1894.000000	98.134950 
1893.000000	98.131331 
1892.000000	98.128042 
1891.000000	98.125910 
1890.000000	98.125321 
1889.000000	98.125772 
1888.000000	98.126524 
1887.000000	98.127623 
1886.000000	98.129276 
1885.000000	98.130454 
1884.000000	98.129478 
1883.000000	98.126209 
1882.000000	98.122748 
1881.000000	98.121346 
1880.000000	98.122217 
1879.000000	98.123613 
1878.000000	98.123600 
1877.000000	98.122061 
1876.000000	98.120675 
1875.000000	98.121102 
1874.000000	98.123511 
1873.000000	98.126684 
1872.000000	98.129331 
1871.000000	98.130917 
1870.000000	98.131213 
1869.000000	98.130171 
1868.000000	98.128697 
1867.000000	98.128338 
1866.000000	98.129273 
1865.000000	98.129765 
1864.000000	98.128564 
1863.000000	98.126997 
1862.000000	98.127500 
1861.000000	98.130589 
1860.000000	98.134574 
1859.000000	98.138009 
1858.000000	98.140976 
1857.000000	98.143813 
1856.000000	98.146403 
1855.000000	98.148735 
1854.000000	98.150826 
1853.000000	98.152279 
1852.000000	98.153351 
1851.000000	98.155475 
1850.000000	98.159402 
1849.000000	98.163904 
1848.000000	98.167060 
1847.000000	98.168625 
1846.000000	98.170012 
1845.000000	98.172289 
1844.000000	98.174962 
1843.000000	98.176903 
1842.000000	98.177753 
1841.000000	98.178088 
1840.000000	98.179244 
1839.000000	98.182269 
1838.000000	98.186474 
1837.000000	98.189472 
1836.000000	98.189792 
1835.000000	98.188626 
1834.000000	98.188247 
1833.000000	98.189222 
1832.000000	98.190600 
1831.000000	98.191583 
1830.000000	98.192288 
1829.000000	98.193355 
1828.000000	98.194959 
1827.000000	98.196843 
1826.000000	98.198798 
1825.000000	98.200723 
1824.000000	98.202401 
1823.000000	98.203567 
1822.000000	98.204115 
1821.000000	98.203917 
1820.000000	98.202907 
1819.000000	98.201533 
1818.000000	98.200925 
1817.000000	98.201768 
1816.000000	98.203358 
1815.000000	98.204756 
1814.000000	98.206103 
1813.000000	98.208044 
1812.000000	98.210194 
1811.000000	98.211091 
1810.000000	98.210417 
1809.000000	98.209431 
1808.000000	98.209019 
1807.000000	98.209154 
1806.000000	98.209972 
1805.000000	98.211753 
1804.000000	98.213787 
1803.000000	98.214658 
1802.000000	98.213659 
1801.000000	98.211810 
1800.000000	98.210632 
1799.000000	98.210484 
1798.000000	98.211136 
1797.000000	98.211781 
1796.000000	98.211334 
1795.000000	98.210211 
1794.000000	98.210472 
1793.000000	98.213308 
1792.000000	98.216645 
1791.000000	98.217921 
1790.000000	98.218207 
1789.000000	98.219867 
1788.000000	98.223179 
1787.000000	98.226618 
1786.000000	98.229009 
1785.000000	98.230527 
1784.000000	98.231743 
1783.000000	98.233256 
1782.000000	98.235116 
1781.000000	98.237006 
1780.000000	98.238878 
1779.000000	98.240814 
1778.000000	98.243277 
1777.000000	98.246051 
1776.000000	98.248346 
1775.000000	98.249896 
1774.000000	98.251344 
1773.000000	98.254114 
1772.000000	98.258791 
1771.000000	98.263480 
1770.000000	98.266348 
1769.000000	98.267595 
1768.000000	98.268414 
1767.000000	98.269615 
1766.000000	98.271079 
1765.000000	98.272775 
1764.000000	98.275079 
1763.000000	98.277795 
1762.000000	98.279978 
1761.000000	98.281739 
1760.000000	98.284023 
1759.000000	98.286694 
1758.000000	98.288543 
1757.000000	98.288711 
1756.000000	98.288677 
1755.000000	98.289743 
1754.000000	98.290480 
1753.000000	98.288930 
1752.000000	98.285990 
1751.000000	98.285554 
1750.000000	98.289578 
1749.000000	98.294993 
1748.000000	98.297829 
1747.000000	98.297720 
1746.000000	98.296164 
1745.000000	98.294835 
1744.000000	98.294779 
1743.000000	98.295171 
1742.000000	98.294409 
1741.000000	98.293017 
1740.000000	98.293465 
1739.000000	98.296502 
1738.000000	98.299565 
1737.000000	98.300184 
1736.000000	98.298556 
1735.000000	98.296580 
1734.000000	98.295334 
1733.000000	98.293897 
1732.000000	98.292754 
1731.000000	98.294033 
1730.000000	98.297958 
1729.000000	98.301246 
1728.000000	98.301230 
1727.000000	98.298795 
1726.000000	98.295911 
1725.000000	98.293714 
1724.000000	98.292194 
1723.000000	98.291063 
1722.000000	98.290333 
1721.000000	98.289229 
1720.000000	98.286989 
1719.000000	98.284056 
1718.000000	98.281781 
1717.000000	98.280508 
1716.000000	98.277063 
1715.000000	98.270425 
1714.000000	98.264158 
1713.000000	98.260159 
1712.000000	98.256481 
1711.000000	98.252116 
1710.000000	98.247713 
1709.000000	98.242775 
1708.000000	98.236380 
1707.000000	98.230124 
1706.000000	98.227040 
1705.000000	98.226192 
1704.000000	98.221840 
1703.000000	98.211129 
1702.000000	98.197029 
1701.000000	98.186402 
1700.000000	98.182273 
1699.000000	98.178604 
1698.000000	98.173654 
1697.000000	98.169277 
1696.000000	98.164944 
1695.000000	98.159715 
1694.000000	98.154014 
1693.000000	98.148267 
1692.000000	98.142058 
1691.000000	98.135029 
1690.000000	98.127110 
1689.000000	98.118116 
1688.000000	98.108363 
1687.000000	98.098786 
1686.000000	98.091420 
1685.000000	98.088494 
1684.000000	98.086338 
1683.000000	98.080308 
1682.000000	98.072138 
1681.000000	98.062995 
1680.000000	98.053730 
1679.000000	98.044865 
1678.000000	98.035759 
1677.000000	98.026042 
1676.000000	98.017225 
1675.000000	98.010728 
1674.000000	98.003270 
1673.000000	97.992314 
1672.000000	97.980173 
1671.000000	97.970986 
1670.000000	97.965801 
1669.000000	97.961138 
1668.000000	97.956286 
1667.000000	97.952494 
1666.000000	97.947238 
1665.000000	97.938590 
1664.000000	97.929164 
1663.000000	97.923185 
1662.000000	97.919022 
1661.000000	97.910741 
1660.000000	97.898765 
1659.000000	97.888488 
1658.000000	97.881072 
1657.000000	97.872554 
1656.000000	97.859066 
1655.000000	97.842317 
1654.000000	97.827507 
1653.000000	97.816356 
1652.000000	97.804130 
1651.000000	97.793402 
1650.000000	97.782187 
1649.000000	97.770872 
1648.000000	97.761319 
1647.000000	97.755854 
1646.000000	97.754913 
1645.000000	97.755395 
1644.000000	97.753584 
1643.000000	97.749504 
1642.000000	97.746159 
1641.000000	97.744294 
1640.000000	97.742627 
1639.000000	97.739097 
1638.000000	97.733609 
1637.000000	97.728739 
1636.000000	97.726554 
1635.000000	97.727911 
1634.000000	97.731622 
1633.000000	97.734977 
1632.000000	97.735821 
1631.000000	97.736308 
1630.000000	97.739692 
1629.000000	97.746369 
1628.000000	97.754014 
1627.000000	97.761570 
1626.000000	97.769209 
1625.000000	97.777586 
1624.000000	97.788933 
1623.000000	97.804375 
1622.000000	97.819978 
1621.000000	97.829952 
1620.000000	97.834557 
1619.000000	97.839626 
1618.000000	97.851397 
1617.000000	97.869058 
1616.000000	97.885439 
1615.000000	97.898132 
1614.000000	97.908788 
1613.000000	97.916904 
1612.000000	97.922284 
1611.000000	97.927567 
1610.000000	97.935599 
1609.000000	97.946924 
1608.000000	97.961325 
1607.000000	97.977816 
1606.000000	97.992561 
1605.000000	98.002611 
1604.000000	98.010748 
1603.000000	98.021084 
1602.000000	98.033304 
1601.000000	98.044375 
1600.000000	98.053680 
1599.000000	98.062866 
1598.000000	98.071929 
1597.000000	98.079803 
1596.000000	98.087197 
1595.000000	98.096128 
1594.000000	98.106778 
1593.000000	98.117006 
1592.000000	98.125546 
1591.000000	98.133218 
1590.000000	98.140712 
1589.000000	98.147720 
1588.000000	98.154967 
1587.000000	98.163918 
1586.000000	98.173647 
1585.000000	98.180752 
1584.000000	98.184905 
1583.000000	98.189584 
1582.000000	98.196168 
1581.000000	98.202615 
1580.000000	98.207816 
1579.000000	98.213282 
1578.000000	98.221035 
1577.000000	98.232101 
1576.000000	98.244395 
1575.000000	98.254306 
1574.000000	98.260085 
1573.000000	98.262621 
1572.000000	98.265442 
1571.000000	98.272158 
1570.000000	98.280368 
1569.000000	98.282474 
1568.000000	98.279238 
1567.000000	98.276975 
1566.000000	98.276691 
1565.000000	98.276155 
1564.000000	98.275684 
1563.000000	98.274299 
1562.000000	98.271030 
1561.000000	98.263972 
1560.000000	98.266528 
1559.000000	98.280698 
1558.000000	98.286445 
1557.000000	98.283557 
1556.000000	98.280420 
1555.000000	98.278753 
1554.000000	98.277630 
1553.000000	98.276438 
1552.000000	98.275745 
1551.000000	98.272373 
1550.000000	98.263587 
1549.000000	98.252187 
1548.000000	98.244266 
1547.000000	98.241817 
1546.000000	98.240054 
1545.000000	98.233090 
1544.000000	98.220806 
1543.000000	98.208233 
1542.000000	98.200822 
1541.000000	98.200201 
1540.000000	98.196635 
1539.000000	98.184353 
1538.000000	98.169011 
1537.000000	98.153141 
1536.000000	98.136729 
1535.000000	98.123130 
1534.000000	98.115018 
1533.000000	98.109722 
1532.000000	98.102023 
1531.000000	98.090286 
1530.000000	98.076900 
1529.000000	98.064410 
1528.000000	98.052460 
1527.000000	98.039442 
1526.000000	98.024577 
1525.000000	98.009156 
1524.000000	97.995714 
1523.000000	97.986120 
1522.000000	97.978845 
1521.000000	97.967817 
1520.000000	97.950067 
1519.000000	97.929100 
1518.000000	97.908429 
1517.000000	97.889385 
1516.000000	97.872631 
1515.000000	97.859564 
1514.000000	97.850253 
1513.000000	97.842516 
1512.000000	97.832910 
1511.000000	97.817802 
1510.000000	97.797455 
1509.000000	97.774462 
1508.000000	97.753266 
1507.000000	97.733970 
1506.000000	97.715967 
1505.000000	97.699571 
1504.000000	97.683326 
1503.000000	97.665651 
1502.000000	97.646757 
1501.000000	97.627795 
1500.000000	97.610650 
1499.000000	97.595201 
1498.000000	97.578464 
1497.000000	97.559190 
1496.000000	97.539671 
1495.000000	97.522882 
1494.000000	97.509872 
1493.000000	97.500103 
1492.000000	97.492502 
1491.000000	97.485097 
1490.000000	97.474733 
1489.000000	97.460170 
1488.000000	97.442233 
1487.000000	97.422118 
1486.000000	97.401686 
1485.000000	97.380951 
1484.000000	97.360226 
1483.000000	97.341804 
1482.000000	97.326584 
1481.000000	97.313074 
1480.000000	97.299047 
1479.000000	97.284404 
1478.000000	97.270322 
1477.000000	97.256830 
1476.000000	97.241858 
1475.000000	97.223895 
1474.000000	97.204744 
1473.000000	97.188077 
1472.000000	97.175680 
1471.000000	97.165058 
1470.000000	97.153084 
1469.000000	97.138443 
1468.000000	97.121117 
1467.000000	97.102486 
1466.000000	97.086009 
1465.000000	97.074349 
1464.000000	97.065874 
1463.000000	97.055167 
1462.000000	97.039386 
1461.000000	97.021511 
1460.000000	97.007078 
1459.000000	96.998277 
1458.000000	96.988675 
1457.000000	96.969153 
1456.000000	96.943547 
1455.000000	96.919856 
1454.000000	96.897930 
1453.000000	96.878410 
1452.000000	96.865233 
1451.000000	96.860338 
1450.000000	96.862134 
1449.000000	96.867794 
1448.000000	96.873044 
1447.000000	96.873195 
1446.000000	96.866967 
1445.000000	96.858112 
1444.000000	96.851732 
1443.000000	96.847996 
1442.000000	96.843963 
1441.000000	96.838281 
1440.000000	96.832372 
1439.000000	96.826449 
1438.000000	96.818827 
1437.000000	96.810109 
1436.000000	96.804357 
1435.000000	96.802372 
1434.000000	96.801673 
1433.000000	96.802111 
1432.000000	96.804986 
1431.000000	96.809927 
1430.000000	96.814675 
1429.000000	96.818797 
1428.000000	96.823442 
1427.000000	96.829566 
1426.000000	96.837305 
1425.000000	96.846370 
1424.000000	96.856627 
1423.000000	96.865171 
1422.000000	96.870073 
1421.000000	96.875018 
1420.000000	96.885297 
1419.000000	96.896002 
1418.000000	96.896589 
1417.000000	96.890735 
1416.000000	96.890361 
1415.000000	96.898149 
1414.000000	96.907095 
1413.000000	96.910978 
1412.000000	96.911880 
1411.000000	96.914929 
1410.000000	96.921208 
1409.000000	96.930444 
1408.000000	96.943977 
1407.000000	96.962816 
1406.000000	96.985407 
1405.000000	97.009828 
1404.000000	97.036610 
1403.000000	97.064683 
1402.000000	97.091767 
1401.000000	97.119739 
1400.000000	97.152754 
1399.000000	97.188382 
1398.000000	97.215751 
1397.000000	97.227307 
1396.000000	97.226941 
1395.000000	97.228061 
1394.000000	97.243477 
1393.000000	97.275966 
1392.000000	97.319685 
1391.000000	97.365375 
1390.000000	97.405110 
1389.000000	97.435061 
1388.000000	97.455139 
1387.000000	97.467666 
1386.000000	97.476821 
1385.000000	97.487707 
1384.000000	97.504011 
1383.000000	97.525407 
1382.000000	97.548474 
1381.000000	97.570494 
1380.000000	97.591167 
1379.000000	97.611928 
1378.000000	97.634532 
1377.000000	97.659736 
1376.000000	97.686254 
1375.000000	97.711138 
1374.000000	97.732269 
1373.000000	97.751524 
1372.000000	97.772651 
1371.000000	97.797174 
1370.000000	97.823536 
1369.000000	97.848671 
1368.000000	97.871544 
1367.000000	97.893318 
1366.000000	97.915448 
1365.000000	97.938680 
1364.000000	97.961573 
1363.000000	97.980603 
1362.000000	97.994304 
1361.000000	98.005963 
1360.000000	98.019966 
1359.000000	98.037652 
1358.000000	98.057246 
1357.000000	98.076112 
1356.000000	98.092635 
1355.000000	98.106451 
1354.000000	98.118217 
1353.000000	98.130030 
1352.000000	98.143038 
1351.000000	98.157159 
1350.000000	98.171955 
1349.000000	98.185540 
1348.000000	98.196151 
1347.000000	98.204114 
1346.000000	98.211942 
1345.000000	98.221689 
1344.000000	98.232923 
1343.000000	98.244164 
1342.000000	98.254845 
1341.000000	98.264387 
1340.000000	98.270728 
1339.000000	98.272343 
1338.000000	98.270743 
1337.000000	98.269134 
1336.000000	98.269001 
1335.000000	98.269521 
1334.000000	98.270118 
1333.000000	98.271734 
1332.000000	98.275019 
1331.000000	98.279433 
1330.000000	98.284336 
1329.000000	98.289695 
1328.000000	98.295099 
1327.000000	98.299675 
1326.000000	98.302681 
1325.000000	98.303401 
1324.000000	98.301793 
1323.000000	98.298536 
1322.000000	98.294778 
1321.000000	98.291848 
1320.000000	98.290758 
1319.000000	98.291617 
1318.000000	98.293619 
1317.000000	98.295732 
1316.000000	98.296922 
1315.000000	98.296219 
1314.000000	98.293596 
1313.000000	98.291055 
1312.000000	98.291273 
1311.000000	98.294603 
1310.000000	98.298259 
1309.000000	98.299410 
1308.000000	98.298087 
1307.000000	98.296873 
1306.000000	98.297920 
1305.000000	98.300832 
1304.000000	98.303945 
1303.000000	98.305820 
1302.000000	98.305642 
1301.000000	98.303331 
1300.000000	98.300026 
1299.000000	98.297761 
1298.000000	98.297722 
1297.000000	98.298864 
1296.000000	98.298891 
1295.000000	98.297070 
1294.000000	98.295241 
1293.000000	98.295793 
1292.000000	98.299005 
1291.000000	98.302770 
1290.000000	98.304898 
1289.000000	98.304919 
1288.000000	98.303470 
1287.000000	98.300931 
1286.000000	98.297458 
1285.000000	98.294062 
1284.000000	98.292585 
1283.000000	98.293655 
1282.000000	98.295294 
1281.000000	98.294539 
1280.000000	98.290829 
1279.000000	98.287066 
1278.000000	98.286769 
1277.000000	98.290583 
1276.000000	98.295977 
1275.000000	98.300201 
1274.000000	98.302641 
1273.000000	98.304237 
1272.000000	98.305574 
1271.000000	98.306160 
1270.000000	98.305216 
1269.000000	98.302513 
1268.000000	98.298669 
1267.000000	98.294766 
1266.000000	98.291561 
1265.000000	98.289383 
1264.000000	98.288734 
1263.000000	98.290158 
1262.000000	98.293116 
1261.000000	98.295655 
1260.000000	98.296607 
1259.000000	98.297658 
1258.000000	98.301216 
1257.000000	98.306201 
1256.000000	98.308004 
1255.000000	98.303914 
1254.000000	98.297078 
1253.000000	98.292875 
1252.000000	98.292233 
1251.000000	98.291324 
1250.000000	98.287988 
1249.000000	98.285590 
1248.000000	98.289008 
1247.000000	98.298082 
1246.000000	98.306580 
1245.000000	98.307613 
1244.000000	98.299593 
1243.000000	98.288032 
1242.000000	98.282314 
1241.000000	98.288797 
1240.000000	98.304802 
1239.000000	98.319582 
1238.000000	98.323156 
1237.000000	98.314525 
1236.000000	98.300492 
1235.000000	98.287587 
1234.000000	98.277065 
1233.000000	98.267065 
1232.000000	98.256339 
1231.000000	98.244474 
1230.000000	98.230953 
1229.000000	98.216090 
1228.000000	98.201295 
1227.000000	98.186381 
1226.000000	98.167631 
1225.000000	98.140665 
1224.000000	98.104992 
1223.000000	98.064096 
1222.000000	98.021130 
1221.000000	97.975981 
1220.000000	97.926827 
1219.000000	97.873014 
1218.000000	97.815401 
1217.000000	97.754655 
1216.000000	97.689854 
1215.000000	97.618912 
1214.000000	97.540945 
1213.000000	97.458761 
1212.000000	97.377603 
1211.000000	97.299346 
1210.000000	97.218903 
1209.000000	97.129320 
1208.000000	97.030397 
1207.000000	96.929512 
1206.000000	96.833298 
1205.000000	96.741104 
1204.000000	96.647771 
1203.000000	96.550119 
1202.000000	96.449117 
1201.000000	96.347563 
1200.000000	96.247390 
1199.000000	96.148389 
1198.000000	96.048576 
1197.000000	95.946661 
1196.000000	95.843985 
1195.000000	95.742601 
1194.000000	95.641867 
1193.000000	95.538961 
1192.000000	95.432583 
1191.000000	95.323795 
1190.000000	95.213371 
1189.000000	95.100892 
1188.000000	94.986486 
1187.000000	94.870856 
1186.000000	94.753587 
1185.000000	94.633944 
1184.000000	94.512957 
1183.000000	94.391987 
1182.000000	94.269955 
1181.000000	94.144993 
1180.000000	94.017692 
1179.000000	93.888848 
1178.000000	93.755077 
1177.000000	93.611592 
1176.000000	93.458950 
1175.000000	93.302259 
1174.000000	93.144033 
1173.000000	92.982971 
1172.000000	92.819520 
1171.000000	92.656277 
1170.000000	92.492463 
1169.000000	92.324938 
1168.000000	92.156463 
1167.000000	91.997125 
1166.000000	91.856810 
1165.000000	91.743175 
1164.000000	91.667491 
1163.000000	91.642773 
1162.000000	91.671058 
1161.000000	91.737148 
1160.000000	91.816533 
1159.000000	91.884701 
1158.000000	91.920118 
1157.000000	91.908237 
1156.000000	91.847586 
1155.000000	91.748314 
1154.000000	91.623014 
1153.000000	91.482047 
1152.000000	91.336263 
1151.000000	91.195557 
1150.000000	91.061482 
1149.000000	90.927894 
1148.000000	90.791522 
1147.000000	90.655647 
1146.000000	90.521813 
1145.000000	90.385751 
1144.000000	90.244680 
1143.000000	90.101528 
1142.000000	89.958621 
1141.000000	89.813819 
1140.000000	89.665926 
1139.000000	89.517376 
1138.000000	89.368883 
1137.000000	89.217928 
1136.000000	89.064664 
1135.000000	88.912207 
1134.000000	88.759101 
1133.000000	88.599187 
1132.000000	88.431174 
1131.000000	88.260620 
1130.000000	88.090427 
1129.000000	87.917478 
1128.000000	87.740549 
1127.000000	87.562547 
1126.000000	87.382424 
1125.000000	87.194114 
1124.000000	86.996509 
1123.000000	86.795964 
1122.000000	86.596419 
1121.000000	86.395998 
1120.000000	86.195441 
1119.000000	85.999683 
1118.000000	85.808793 
1117.000000	85.618322 
1116.000000	85.430902 
1115.000000	85.255930 
1114.000000	85.095133 
1113.000000	84.940333 
1112.000000	84.787642 
1111.000000	84.640642 
1110.000000	84.497319 
1109.000000	84.348352 
1108.000000	84.191296 
1107.000000	84.033021 
1106.000000	83.875785 
1105.000000	83.714562 
1104.000000	83.550031 
1103.000000	83.389684 
1102.000000	83.233218 
1101.000000	83.072797 
1100.000000	82.909111 
1099.000000	82.751937 
1098.000000	82.602718 
1097.000000	82.451834 
1096.000000	82.296201 
1095.000000	82.142066 
1094.000000	81.988022 
1093.000000	81.823695 
1092.000000	81.649700 
1091.000000	81.480885 
1090.000000	81.324741 
1089.000000	81.173455 
1088.000000	81.021129 
1087.000000	80.870710 
1086.000000	80.720286 
1085.000000	80.561981 
1084.000000	80.399181 
1083.000000	80.245530 
1082.000000	80.101762 
1081.000000	79.953148 
1080.000000	79.795058 
1079.000000	79.640491 
1078.000000	79.496052 
1077.000000	79.350725 
1076.000000	79.195388 
1075.000000	79.033083 
1074.000000	78.862988 
1073.000000	78.674166 
1072.000000	78.461634 
1071.000000	78.228386 
1070.000000	77.965696 
1069.000000	77.654404 
1068.000000	77.295641 
1067.000000	76.920904 
1066.000000	76.561337 
1065.000000	76.223319 
1064.000000	75.901129 
1063.000000	75.590569 
1062.000000	75.279208 
1061.000000	74.946049 
1060.000000	74.585739 
1059.000000	74.217478 
1058.000000	73.859654 
1057.000000	73.510784 
1056.000000	73.162005 
1055.000000	72.808917 
1054.000000	72.443286 
1053.000000	72.053519 
1052.000000	71.643578 
1051.000000	71.232474 
1050.000000	70.826006 
1049.000000	70.410628 
1048.000000	69.981827 
1047.000000	69.551979 
1046.000000	69.124324 
1045.000000	68.686732 
1044.000000	68.236977 
1043.000000	67.788446 
1042.000000	67.345130 
1041.000000	66.896062 
1040.000000	66.441151 
1039.000000	65.997719 
1038.000000	65.574797 
1037.000000	65.166022 
1036.000000	64.773151 
1035.000000	64.409413 
1034.000000	64.073630 
1033.000000	63.748681 
1032.000000	63.431153 
1031.000000	63.134660 
1030.000000	62.860489 
1029.000000	62.596506 
1028.000000	62.349484 
1027.000000	62.144025 
1026.000000	61.981513 
1025.000000	61.832642 
1024.000000	61.678541 
1023.000000	61.526994 
1022.000000	61.380613 
1021.000000	61.224306 
1020.000000	61.054496 
1019.000000	60.887826 
1018.000000	60.730270 
1017.000000	60.568471 
1016.000000	60.400175 
1015.000000	60.241401 
1014.000000	60.094819 
1013.000000	59.943255 
1012.000000	59.783240 
1011.000000	59.632932 
1010.000000	59.498439 
1009.000000	59.365089 
1008.000000	59.230718 
1007.000000	59.114631 
1006.000000	59.024379 
1005.000000	58.946011 
1004.000000	58.875388 
1003.000000	58.826180 
1002.000000	58.798435 
1001.000000	58.773086 
1000.000000	58.746930 
999.000000	 58.739642 
998.000000	 58.756662 
997.000000	 58.778450 
996.000000	 58.795965 
995.000000	 58.823905 
994.000000	 58.868905 
993.000000	 58.917297 
992.000000	 58.964163 
991.000000	 59.022585 
990.000000	 59.094858 
989.000000	 59.166553 
988.000000	 59.237910 
987.000000	 59.328904 
986.000000	 59.444824 
985.000000	 59.569584 
984.000000	 59.701118 
983.000000	 59.859387 
982.000000	 60.049817 
981.000000	 60.252554 
980.000000	 60.458312 
979.000000	 60.682403 
978.000000	 60.932577 
977.000000	 61.195615 
976.000000	 61.466748 
975.000000	 61.760831 
974.000000	 62.082733 
973.000000	 62.416565 
972.000000	 62.754965 
971.000000	 63.110233 
970.000000	 63.486370 
969.000000	 63.868655 
968.000000	 64.250375 
967.000000	 64.642003 
966.000000	 65.044922 
965.000000	 65.443831 
964.000000	 65.833986 
963.000000	 66.228829 
962.000000	 66.632169 
961.000000	 67.029405 
960.000000	 67.414346 
959.000000	 67.798260 
958.000000	 68.184123 
957.000000	 68.557810 
956.000000	 68.913354 
955.000000	 69.262306 
954.000000	 69.610162 
953.000000	 69.947143 
952.000000	 70.269068 
951.000000	 70.583332 
950.000000	 70.887911 
949.000000	 71.168542 
948.000000	 71.422996 
947.000000	 71.664581 
946.000000	 71.896116 
945.000000	 72.104569 
944.000000	 72.287561 
943.000000	 72.460820 
942.000000	 72.632519 
941.000000	 72.794032 
940.000000	 72.943385 
939.000000	 73.093886 
938.000000	 73.251582 
937.000000	 73.407171 
936.000000	 73.558108 
935.000000	 73.716035 
934.000000	 73.884825 
933.000000	 74.053808 
932.000000	 74.220006 
931.000000	 74.394398 
930.000000	 74.578832 
929.000000	 74.759146 
928.000000	 74.928706 
927.000000	 75.096835 
926.000000	 75.266504 
925.000000	 75.425153 
924.000000	 75.565137 
923.000000	 75.692926 
922.000000	 75.811761 
921.000000	 75.915827 
920.000000	 76.007466 
919.000000	 76.098947 
918.000000	 76.190770 
917.000000	 76.269351 
916.000000	 76.333193 
915.000000	 76.401476 
914.000000	 76.490918 
913.000000	 76.604232 
912.000000	 76.745791 
911.000000	 76.926428 
910.000000	 77.146967 
909.000000	 77.398611 
908.000000	 77.684338 
907.000000	 78.017712 
906.000000	 78.396634 
905.000000	 78.801163 
904.000000	 79.220916 
903.000000	 79.661537 
902.000000	 80.121245 
901.000000	 80.585495 
900.000000	 81.048722 
899.000000	 81.517828 
898.000000	 81.990240 
897.000000	 82.450913 
896.000000	 82.894057 
895.000000	 83.325838 
894.000000	 83.743669 
893.000000	 84.135888 
892.000000	 84.504856 
891.000000	 84.867490 
890.000000	 85.228153 
889.000000	 85.571405 
888.000000	 85.885316 
887.000000	 86.172193 
886.000000	 86.434309 
885.000000	 86.670015 
884.000000	 86.886553 
883.000000	 87.095237 
882.000000	 87.291377 
881.000000	 87.462174 
880.000000	 87.617906 
879.000000	 87.790012 
878.000000	 87.991970 
877.000000	 88.207449 
876.000000	 88.424382 
875.000000	 88.654544 
874.000000	 88.911038 
873.000000	 89.192610 
872.000000	 89.499669 
871.000000	 89.840199 
870.000000	 90.208432 
869.000000	 90.579833 
868.000000	 90.937887 
867.000000	 91.287419 
866.000000	 91.634397 
865.000000	 91.972054 
864.000000	 92.295799 
863.000000	 92.614135 
862.000000	 92.934197 
861.000000	 93.249768 
860.000000	 93.552018 
859.000000	 93.840138 
858.000000	 94.114787 
857.000000	 94.372369 
856.000000	 94.611464 
855.000000	 94.834596 
854.000000	 95.039539 
853.000000	 95.219439 
852.000000	 95.374995 
851.000000	 95.516437 
850.000000	 95.651245 
849.000000	 95.779938 
848.000000	 95.903800 
847.000000	 96.023502 
846.000000	 96.129439 
845.000000	 96.208018 
844.000000	 96.259367 
843.000000	 96.294876 
842.000000	 96.315932 
841.000000	 96.310185 
840.000000	 96.270784 
839.000000	 96.203537 
838.000000	 96.113166 
837.000000	 96.000312 
836.000000	 95.877120 
835.000000	 95.767802 
834.000000	 95.684546 
833.000000	 95.617115 
832.000000	 95.554278 
831.000000	 95.501555 
830.000000	 95.470614 
829.000000	 95.466409 
828.000000	 95.493774 
827.000000	 95.560898 
826.000000	 95.664461 
825.000000	 95.784766 
824.000000	 95.905494 
823.000000	 96.024911 
822.000000	 96.141876 
821.000000	 96.248560 
820.000000	 96.343092 
819.000000	 96.431465 
818.000000	 96.510146 
817.000000	 96.561001 
816.000000	 96.569095 
815.000000	 96.534053 
814.000000	 96.459276 
813.000000	 96.340329 
812.000000	 96.167362 
811.000000	 95.927230 
810.000000	 95.599038 
809.000000	 95.160570 
808.000000	 94.607159 
807.000000	 93.956993 
806.000000	 93.235208 
805.000000	 92.464252 
804.000000	 91.673762 
803.000000	 90.903695 
802.000000	 90.188538 
801.000000	 89.552280 
800.000000	 89.024454 
799.000000	 88.640861 
798.000000	 88.417455 
797.000000	 88.339416 
796.000000	 88.381394 
795.000000	 88.519165 
794.000000	 88.718442 
793.000000	 88.937581 
792.000000	 89.150637 
791.000000	 89.349684 
790.000000	 89.521471 
789.000000	 89.642787 
788.000000	 89.702061 
787.000000	 89.703433 
786.000000	 89.644454 
785.000000	 89.510934 
784.000000	 89.300701 
783.000000	 89.034344 
782.000000	 88.738727 
781.000000	 88.441087 
780.000000	 88.183041 
779.000000	 88.013392 
778.000000	 87.954768 
777.000000	 87.996368 
776.000000	 88.124380 
775.000000	 88.334510 
774.000000	 88.607738 
773.000000	 88.902040 
772.000000	 89.181980 
771.000000	 89.436884 
770.000000	 89.662789 
769.000000	 89.849964 
768.000000	 89.997506 
767.000000	 90.117603 
766.000000	 90.214334 
765.000000	 90.278474 
764.000000	 90.313068 
763.000000	 90.342727 
762.000000	 90.385737 
761.000000	 90.436695 
760.000000	 90.487838 
759.000000	 90.546738 
758.000000	 90.620240 
757.000000	 90.701414 
756.000000	 90.787018 
755.000000	 90.889448 
754.000000	 91.015615 
753.000000	 91.148996 
752.000000	 91.267065 
751.000000	 91.365667 
750.000000	 91.457301 
749.000000	 91.557710 
748.000000	 91.681076 
747.000000	 91.833247 
746.000000	 92.001085 
745.000000	 92.163072 
744.000000	 92.318048 
743.000000	 92.488413 
742.000000	 92.689160 
741.000000	 92.911442 
740.000000	 93.142721 
739.000000	 93.383121 
738.000000	 93.632243 
737.000000	 93.877502 
736.000000	 94.106729 
735.000000	 94.318357 
734.000000	 94.511516 
733.000000	 94.680601 
732.000000	 94.825524 
731.000000	 94.952091 
730.000000	 95.057663 
729.000000	 95.133348 
728.000000	 95.184124 
727.000000	 95.230974 
726.000000	 95.290191 
725.000000	 95.364649 
724.000000	 95.456389 
723.000000	 95.569588 
722.000000	 95.697642 
721.000000	 95.825398 
720.000000	 95.948973 
719.000000	 96.076092 
718.000000	 96.203067 
717.000000	 96.312408 
716.000000	 96.398159 
715.000000	 96.472715 
714.000000	 96.544020 
713.000000	 96.607176 
712.000000	 96.664231 
711.000000	 96.729190 
710.000000	 96.803760 
709.000000	 96.870547 
708.000000	 96.916838 
707.000000	 96.945578 
706.000000	 96.956506 
705.000000	 96.936012 
704.000000	 96.875424 
703.000000	 96.780591 
702.000000	 96.648863 
701.000000	 96.454793 
700.000000	 96.173891 
699.000000	 95.807413 
698.000000	 95.382317 
697.000000	 94.947527 
696.000000	 94.576128 
695.000000	 94.345190 
694.000000	 94.288850 
693.000000	 94.379860 
692.000000	 94.562230 
691.000000	 94.786250 
690.000000	 95.014993 
689.000000	 95.223597 
688.000000	 95.407865 
687.000000	 95.578688 
686.000000	 95.735582 
685.000000	 95.865373 
684.000000	 95.971131 
683.000000	 96.073444 
682.000000	 96.179298 
681.000000	 96.275436 
680.000000	 96.359093 
679.000000	 96.445407 
678.000000	 96.539905 
677.000000	 96.635643 
676.000000	 96.736721 
675.000000	 96.860036 
674.000000	 96.998244 
673.000000	 97.107131 
672.000000	 97.151462 
671.000000	 97.129610 
670.000000	 97.059622 
669.000000	 96.968470 
668.000000	 96.967127 
667.000000	 97.166136 
666.000000	 97.452099 
665.000000	 97.676308 
664.000000	 97.825556 
663.000000	 97.930552 
662.000000	 98.019776 
661.000000	 98.101815 
660.000000	 98.176980 
659.000000	 98.249744 
658.000000	 98.317526 
657.000000	 98.364853 
656.000000	 98.376588 
655.000000	 98.357427 
654.000000	 98.323247 
653.000000	 98.282110 
652.000000	 98.243694 
651.000000	 98.232531 
650.000000	 98.262649 

