4000.000000	98.760619 
3999.000000	98.758871 
3998.000000	98.753127 
3997.000000	98.746103 
3996.000000	98.741256 
3995.000000	98.740085 
3994.000000	98.742319 
3993.000000	98.745969 
3992.000000	98.748651 
3991.000000	98.749373 
3990.000000	98.748720 
3989.000000	98.747880 
3988.000000	98.747477 
3987.000000	98.747440 
3986.000000	98.747831 
3985.000000	98.749162 
3984.000000	98.751603 
3983.000000	98.754339 
3982.000000	98.756276 
3981.000000	98.757097 
3980.000000	98.757058 
3979.000000	98.756219 
3978.000000	98.754478 
3977.000000	98.752174 
3976.000000	98.749949 
3975.000000	98.747895 
3974.000000	98.745546 
3973.000000	98.742849 
3972.000000	98.740519 
3971.000000	98.739344 
3970.000000	98.739485 
3969.000000	98.740678 
3968.000000	98.742598 
3967.000000	98.744703 
3966.000000	98.746183 
3965.000000	98.746304 
3964.000000	98.744838 
3963.000000	98.742256 
3962.000000	98.739687 
3961.000000	98.738301 
3960.000000	98.738380 
3959.000000	98.739136 
3958.000000	98.739546 
3957.000000	98.739369 
3956.000000	98.738925 
3955.000000	98.738207 
3954.000000	98.736932 
3953.000000	98.735061 
3952.000000	98.732990 
3951.000000	98.731035 
3950.000000	98.729077 
3949.000000	98.726981 
3948.000000	98.724929 
3947.000000	98.723410 
3946.000000	98.722913 
3945.000000	98.723419 
3944.000000	98.724077 
3943.000000	98.723851 
3942.000000	98.722854 
3941.000000	98.722295 
3940.000000	98.722983 
3939.000000	98.724513 
3938.000000	98.725807 
3937.000000	98.726314 
3936.000000	98.726107 
3935.000000	98.724919 
3934.000000	98.722367 
3933.000000	98.718945 
3932.000000	98.716277 
3931.000000	98.715355 
3930.000000	98.715624 
3929.000000	98.716360 
3928.000000	98.717499 
3927.000000	98.718768 
3926.000000	98.718884 
3925.000000	98.716930 
3924.000000	98.714186 
3923.000000	98.712639 
3922.000000	98.712194 
3921.000000	98.711398 
3920.000000	98.710066 
3919.000000	98.709740 
3918.000000	98.711115 
3917.000000	98.712849 
3916.000000	98.713560 
3915.000000	98.713612 
3914.000000	98.714101 
3913.000000	98.715439 
3912.000000	98.717213 
3911.000000	98.718936 
3910.000000	98.719869 
3909.000000	98.719366 
3908.000000	98.717532 
3907.000000	98.714868 
3906.000000	98.711548 
3905.000000	98.707079 
3904.000000	98.701687 
3903.000000	98.697083 
3902.000000	98.694845 
3901.000000	98.695019 
3900.000000	98.696486 
3899.000000	98.698171 
3898.000000	98.699658 
3897.000000	98.700514 
3896.000000	98.700173 
3895.000000	98.698864 
3894.000000	98.697539 
3893.000000	98.696956 
3892.000000	98.696671 
3891.000000	98.695749 
3890.000000	98.694187 
3889.000000	98.692771 
3888.000000	98.692034 
3887.000000	98.691743 
3886.000000	98.691500 
3885.000000	98.691242 
3884.000000	98.690925 
3883.000000	98.690321 
3882.000000	98.689384 
3881.000000	98.688397 
3880.000000	98.687671 
3879.000000	98.687178 
3878.000000	98.686688 
3877.000000	98.686079 
3876.000000	98.685385 
3875.000000	98.684637 
3874.000000	98.683863 
3873.000000	98.683139 
3872.000000	98.682517 
3871.000000	98.681913 
3870.000000	98.681256 
3869.000000	98.680673 
3868.000000	98.680295 
3867.000000	98.680061 
3866.000000	98.679741 
3865.000000	98.679185 
3864.000000	98.678609 
3863.000000	98.678383 
3862.000000	98.678347 
3861.000000	98.678131 
3860.000000	98.677743 
3859.000000	98.677355 
3858.000000	98.676857 
3857.000000	98.676148 
3856.000000	98.675587 
3855.000000	98.675234 
3854.000000	98.674087 
3853.000000	98.672299 
3852.000000	98.671368 
3851.000000	98.671740 
3850.000000	98.672543 
3849.000000	98.673255 
3848.000000	98.674207 
3847.000000	98.675755 
3846.000000	98.676970 
3845.000000	98.676571 
3844.000000	98.674334 
3843.000000	98.670932 
3842.000000	98.667096 
3841.000000	98.663665 
3840.000000	98.661209 
3839.000000	98.660406 
3838.000000	98.661479 
3837.000000	98.662892 
3836.000000	98.662848 
3835.000000	98.661417 
3834.000000	98.660260 
3833.000000	98.660715 
3832.000000	98.662612 
3831.000000	98.665015 
3830.000000	98.667265 
3829.000000	98.669359 
3828.000000	98.671666 
3827.000000	98.674076 
3826.000000	98.675731 
3825.000000	98.676285 
3824.000000	98.675906 
3823.000000	98.674627 
3822.000000	98.672213 
3821.000000	98.669265 
3820.000000	98.667427 
3819.000000	98.667067 
3818.000000	98.667204 
3817.000000	98.667046 
3816.000000	98.667573 
3815.000000	98.670477 
3814.000000	98.674931 
3813.000000	98.677909 
3812.000000	98.677940 
3811.000000	98.676804 
3810.000000	98.677257 
3809.000000	98.679815 
3808.000000	98.682120 
3807.000000	98.681980 
3806.000000	98.679738 
3805.000000	98.676914 
3804.000000	98.674076 
3803.000000	98.671548 
3802.000000	98.670116 
3801.000000	98.670977 
3800.000000	98.673719 
3799.000000	98.675448 
3798.000000	98.674459 
3797.000000	98.672617 
3796.000000	98.673457 
3795.000000	98.678174 
3794.000000	98.684405 
3793.000000	98.689086 
3792.000000	98.691748 
3791.000000	98.693980 
3790.000000	98.696190 
3789.000000	98.696789 
3788.000000	98.694808 
3787.000000	98.691304 
3786.000000	98.688032 
3785.000000	98.685786 
3784.000000	98.684651 
3783.000000	98.684795 
3782.000000	98.685667 
3781.000000	98.685824 
3780.000000	98.684597 
3779.000000	98.683591 
3778.000000	98.684646 
3777.000000	98.687275 
3776.000000	98.689079 
3775.000000	98.688582 
3774.000000	98.686784 
3773.000000	98.685678 
3772.000000	98.685354 
3771.000000	98.683631 
3770.000000	98.679405 
3769.000000	98.674777 
3768.000000	98.672222 
3767.000000	98.671742 
3766.000000	98.671819 
3765.000000	98.671575 
3764.000000	98.671547 
3763.000000	98.671871 
3762.000000	98.670894 
3761.000000	98.667242 
3760.000000	98.662304 
3759.000000	98.659119 
3758.000000	98.657320 
3757.000000	98.654071 
3756.000000	98.649044 
3755.000000	98.644079 
3754.000000	98.639995 
3753.000000	98.636188 
3752.000000	98.633629 
3751.000000	98.633674 
3750.000000	98.632871 
3749.000000	98.626922 
3748.000000	98.618881 
3747.000000	98.615825 
3746.000000	98.620133 
3745.000000	98.626722 
3744.000000	98.632747 
3743.000000	98.638695 
3742.000000	98.641178 
3741.000000	98.636780 
3740.000000	98.628311 
3739.000000	98.623876 
3738.000000	98.627180 
3737.000000	98.631435 
3736.000000	98.629585 
3735.000000	98.625449 
3734.000000	98.626703 
3733.000000	98.632086 
3732.000000	98.635472 
3731.000000	98.635811 
3730.000000	98.636148 
3729.000000	98.637870 
3728.000000	98.639525 
3727.000000	98.639503 
3726.000000	98.638605 
3725.000000	98.637737 
3724.000000	98.635770 
3723.000000	98.632041 
3722.000000	98.628401 
3721.000000	98.626904 
3720.000000	98.626491 
3719.000000	98.625690 
3718.000000	98.624018 
3717.000000	98.621174 
3716.000000	98.617020 
3715.000000	98.610533 
3714.000000	98.601508 
3713.000000	98.593095 
3712.000000	98.589936 
3711.000000	98.593127 
3710.000000	98.598045 
3709.000000	98.599644 
3708.000000	98.595908 
3707.000000	98.586525 
3706.000000	98.572823 
3705.000000	98.557791 
3704.000000	98.544693 
3703.000000	98.535280 
3702.000000	98.528310 
3701.000000	98.520772 
3700.000000	98.510739 
3699.000000	98.498832 
3698.000000	98.486792 
3697.000000	98.475468 
3696.000000	98.465820 
3695.000000	98.458452 
3694.000000	98.451910 
3693.000000	98.444513 
3692.000000	98.436897 
3691.000000	98.431253 
3690.000000	98.427618 
3689.000000	98.424691 
3688.000000	98.422224 
3687.000000	98.419978 
3686.000000	98.416810 
3685.000000	98.411571 
3684.000000	98.405208 
3683.000000	98.401019 
3682.000000	98.400267 
3681.000000	98.397684 
3680.000000	98.386377 
3679.000000	98.365949 
3678.000000	98.343669 
3677.000000	98.325873 
3676.000000	98.313098 
3675.000000	98.305913 
3674.000000	98.303701 
3673.000000	98.302683 
3672.000000	98.299160 
3671.000000	98.293405 
3670.000000	98.289669 
3669.000000	98.290623 
3668.000000	98.291987 
3667.000000	98.288776 
3666.000000	98.282561 
3665.000000	98.277869 
3664.000000	98.276386 
3663.000000	98.276397 
3662.000000	98.274863 
3661.000000	98.269951 
3660.000000	98.263208 
3659.000000	98.257897 
3658.000000	98.256330 
3657.000000	98.256663 
3656.000000	98.254996 
3655.000000	98.249809 
3654.000000	98.241702 
3653.000000	98.231534 
3652.000000	98.219094 
3651.000000	98.204694 
3650.000000	98.191941 
3649.000000	98.185886 
3648.000000	98.188049 
3647.000000	98.196789 
3646.000000	98.210398 
3645.000000	98.226991 
3644.000000	98.243731 
3643.000000	98.258007 
3642.000000	98.268306 
3641.000000	98.274164 
3640.000000	98.275517 
3639.000000	98.272333 
3638.000000	98.266419 
3637.000000	98.261267 
3636.000000	98.258957 
3635.000000	98.257277 
3634.000000	98.252420 
3633.000000	98.244129 
3632.000000	98.235354 
3631.000000	98.227481 
3630.000000	98.218573 
3629.000000	98.209464 
3628.000000	98.204940 
3627.000000	98.205280 
3626.000000	98.206550 
3625.000000	98.207704 
3624.000000	98.210607 
3623.000000	98.215983 
3622.000000	98.221051 
3621.000000	98.221271 
3620.000000	98.215306 
3619.000000	98.207694 
3618.000000	98.204018 
3617.000000	98.206125 
3616.000000	98.213701 
3615.000000	98.225397 
3614.000000	98.238651 
3613.000000	98.251085 
3612.000000	98.261511 
3611.000000	98.269099 
3610.000000	98.273390 
3609.000000	98.274945 
3608.000000	98.274982 
3607.000000	98.274604 
3606.000000	98.274545 
3605.000000	98.276420 
3604.000000	98.282317 
3603.000000	98.291965 
3602.000000	98.301624 
3601.000000	98.306533 
3600.000000	98.305560 
3599.000000	98.302037 
3598.000000	98.300651 
3597.000000	98.303830 
3596.000000	98.311285 
3595.000000	98.319916 
3594.000000	98.325921 
3593.000000	98.327663 
3592.000000	98.326061 
3591.000000	98.322918 
3590.000000	98.319480 
3589.000000	98.316402 
3588.000000	98.315047 
3587.000000	98.317019 
3586.000000	98.321375 
3585.000000	98.324882 
3584.000000	98.326014 
3583.000000	98.326307 
3582.000000	98.328694 
3581.000000	98.334231 
3580.000000	98.341132 
3579.000000	98.346538 
3578.000000	98.349162 
3577.000000	98.349987 
3576.000000	98.350649 
3575.000000	98.351901 
3574.000000	98.353224 
3573.000000	98.353741 
3572.000000	98.352548 
3571.000000	98.348837 
3570.000000	98.342087 
3569.000000	98.332709 
3568.000000	98.323065 
3567.000000	98.316958 
3566.000000	98.316087 
3565.000000	98.318582 
3564.000000	98.322013 
3563.000000	98.326097 
3562.000000	98.331757 
3561.000000	98.338995 
3560.000000	98.345942 
3559.000000	98.350234 
3558.000000	98.351062 
3557.000000	98.349893 
3556.000000	98.348891 
3555.000000	98.348881 
3554.000000	98.348899 
3553.000000	98.347548 
3552.000000	98.344580 
3551.000000	98.340735 
3550.000000	98.336840 
3549.000000	98.333699 
3548.000000	98.332267 
3547.000000	98.332942 
3546.000000	98.334858 
3545.000000	98.336704 
3544.000000	98.338438 
3543.000000	98.341046 
3542.000000	98.344656 
3541.000000	98.348129 
3540.000000	98.350460 
3539.000000	98.351477 
3538.000000	98.351262 
3537.000000	98.349737 
3536.000000	98.347335 
3535.000000	98.344859 
3534.000000	98.342770 
3533.000000	98.340976 
3532.000000	98.339507 
3531.000000	98.338543 
3530.000000	98.337544 
3529.000000	98.335280 
3528.000000	98.331312 
3527.000000	98.326948 
3526.000000	98.324099 
3525.000000	98.323571 
3524.000000	98.324836 
3523.000000	98.326800 
3522.000000	98.328474 
3521.000000	98.329395 
3520.000000	98.329936 
3519.000000	98.330859 
3518.000000	98.332325 
3517.000000	98.333297 
3516.000000	98.332501 
3515.000000	98.329849 
3514.000000	98.326663 
3513.000000	98.324349 
3512.000000	98.322981 
3511.000000	98.321530 
3510.000000	98.319326 
3509.000000	98.317001 
3508.000000	98.315861 
3507.000000	98.316510 
3506.000000	98.318381 
3505.000000	98.320137 
3504.000000	98.320656 
3503.000000	98.319733 
3502.000000	98.317947 
3501.000000	98.316121 
3500.000000	98.314780 
3499.000000	98.313992 
3498.000000	98.313545 
3497.000000	98.313149 
3496.000000	98.312527 
3495.000000	98.311524 
3494.000000	98.310210 
3493.000000	98.308859 
3492.000000	98.307715 
3491.000000	98.306791 
3490.000000	98.305952 
3489.000000	98.305106 
3488.000000	98.304190 
3487.000000	98.303067 
3486.000000	98.301631 
3485.000000	98.300022 
3484.000000	98.298572 
3483.000000	98.297464 
3482.000000	98.296584 
3481.000000	98.295733 
3480.000000	98.294850 
3479.000000	98.293980 
3478.000000	98.293110 
3477.000000	98.292150 
3476.000000	98.291047 
3475.000000	98.289844 
3474.000000	98.288624 
3473.000000	98.287443 
3472.000000	98.286306 
3471.000000	98.285194 
3470.000000	98.284090 
3469.000000	98.282986 
3468.000000	98.281887 
3467.000000	98.280794 
3466.000000	98.279701 
3465.000000	98.278601 
3464.000000	98.277490 
3463.000000	98.276373 
3462.000000	98.275262 
3461.000000	98.274170 
3460.000000	98.273107 
3459.000000	98.272077 
3458.000000	98.271072 
3457.000000	98.270085 
3456.000000	98.269109 
3455.000000	98.268147 
3454.000000	98.267205 
3453.000000	98.266288 
3452.000000	98.265388 
3451.000000	98.264497 
3450.000000	98.263609 
3449.000000	98.262728 
3448.000000	98.261857 
3447.000000	98.260998 
3446.000000	98.260145 
3445.000000	98.259296 
3444.000000	98.258455 
3443.000000	98.257631 
3442.000000	98.256832 
3441.000000	98.256058 
3440.000000	98.255302 
3439.000000	98.254556 
3438.000000	98.253814 
3437.000000	98.253078 
3436.000000	98.252358 
3435.000000	98.251667 
3434.000000	98.251014 
3433.000000	98.250396 
3432.000000	98.249799 
3431.000000	98.249216 
3430.000000	98.248647 
3429.000000	98.248098 
3428.000000	98.247577 
3427.000000	98.247079 
3426.000000	98.246591 
3425.000000	98.246101 
3424.000000	98.245601 
3423.000000	98.245091 
3422.000000	98.244569 
3421.000000	98.244038 
3420.000000	98.243499 
3419.000000	98.242956 
3418.000000	98.242415 
3417.000000	98.241880 
3416.000000	98.241353 
3415.000000	98.240837 
3414.000000	98.240332 
3413.000000	98.239804 
3412.000000	98.239185 
3411.000000	98.238469 
3410.000000	98.237787 
3409.000000	98.237311 
3408.000000	98.237087 
3407.000000	98.236962 
3406.000000	98.236751 
3405.000000	98.236401 
3404.000000	98.235989 
3403.000000	98.235619 
3402.000000	98.235315 
3401.000000	98.235034 
3400.000000	98.234780 
3399.000000	98.234616 
3398.000000	98.234531 
3397.000000	98.234405 
3396.000000	98.234150 
3395.000000	98.233835 
3394.000000	98.233594 
3393.000000	98.233438 
3392.000000	98.233232 
3391.000000	98.232860 
3390.000000	98.232338 
3389.000000	98.231793 
3388.000000	98.231383 
3387.000000	98.231192 
3386.000000	98.231177 
3385.000000	98.231167 
3384.000000	98.230983 
3383.000000	98.230606 
3382.000000	98.230227 
3381.000000	98.230086 
3380.000000	98.230238 
3379.000000	98.230536 
3378.000000	98.230824 
3377.000000	98.231133 
3376.000000	98.231575 
3375.000000	98.232135 
3374.000000	98.232623 
3373.000000	98.232868 
3372.000000	98.232877 
3371.000000	98.232808 
3370.000000	98.232867 
3369.000000	98.233144 
3368.000000	98.233585 
3367.000000	98.234046 
3366.000000	98.234390 
3365.000000	98.234578 
3364.000000	98.234687 
3363.000000	98.234878 
3362.000000	98.235267 
3361.000000	98.235850 
3360.000000	98.236546 
3359.000000	98.237259 
3358.000000	98.237893 
3357.000000	98.238394 
3356.000000	98.238784 
3355.000000	98.239172 
3354.000000	98.239681 
3353.000000	98.240334 
3352.000000	98.241079 
3351.000000	98.241854 
3350.000000	98.242634 
3349.000000	98.243406 
3348.000000	98.244143 
3347.000000	98.244823 
3346.000000	98.245461 
3345.000000	98.246094 
3344.000000	98.246726 
3343.000000	98.247330 
3342.000000	98.247899 
3341.000000	98.248460 
3340.000000	98.249048 
3339.000000	98.249663 
3338.000000	98.250283 
3337.000000	98.250895 
3336.000000	98.251502 
3335.000000	98.252110 
3334.000000	98.252715 
3333.000000	98.253306 
3332.000000	98.253880 
3331.000000	98.254449 
3330.000000	98.255033 
3329.000000	98.255645 
3328.000000	98.256283 
3327.000000	98.256935 
3326.000000	98.257590 
3325.000000	98.258238 
3324.000000	98.258875 
3323.000000	98.259497 
3322.000000	98.260110 
3321.000000	98.260722 
3320.000000	98.261336 
3319.000000	98.261953 
3318.000000	98.262568 
3317.000000	98.263170 
3316.000000	98.263749 
3315.000000	98.264303 
3314.000000	98.264839 
3313.000000	98.265364 
3312.000000	98.265887 
3311.000000	98.266412 
3310.000000	98.266936 
3309.000000	98.267449 
3308.000000	98.267939 
3307.000000	98.268396 
3306.000000	98.268822 
3305.000000	98.269229 
3304.000000	98.269636 
3303.000000	98.270059 
3302.000000	98.270512 
3301.000000	98.271008 
3300.000000	98.271544 
3299.000000	98.272097 
3298.000000	98.272633 
3297.000000	98.273149 
3296.000000	98.273675 
3295.000000	98.274240 
3294.000000	98.274835 
3293.000000	98.275418 
3292.000000	98.275957 
3291.000000	98.276468 
3290.000000	98.276997 
3289.000000	98.277573 
3288.000000	98.278185 
3287.000000	98.278812 
3286.000000	98.279442 
3285.000000	98.280054 
3284.000000	98.280589 
3283.000000	98.281006 
3282.000000	98.281346 
3281.000000	98.281734 
3280.000000	98.282253 
3279.000000	98.282855 
3278.000000	98.283420 
3277.000000	98.283902 
3276.000000	98.284329 
3275.000000	98.284669 
3274.000000	98.284828 
3273.000000	98.284852 
3272.000000	98.285011 
3271.000000	98.285525 
3270.000000	98.286390 
3269.000000	98.287397 
3268.000000	98.288313 
3267.000000	98.289015 
3266.000000	98.289497 
3265.000000	98.289900 
3264.000000	98.290439 
3263.000000	98.291169 
3262.000000	98.291874 
3261.000000	98.292308 
3260.000000	98.292466 
3259.000000	98.292565 
3258.000000	98.292803 
3257.000000	98.293220 
3256.000000	98.293767 
3255.000000	98.294332 
3254.000000	98.294780 
3253.000000	98.295059 
3252.000000	98.295295 
3251.000000	98.295701 
3250.000000	98.296359 
3249.000000	98.297131 
3248.000000	98.297803 
3247.000000	98.298299 
3246.000000	98.298703 
3245.000000	98.299112 
3244.000000	98.299517 
3243.000000	98.299833 
3242.000000	98.300030 
3241.000000	98.300200 
3240.000000	98.300487 
3239.000000	98.300946 
3238.000000	98.301511 
3237.000000	98.302107 
3236.000000	98.302762 
3235.000000	98.303546 
3234.000000	98.304395 
3233.000000	98.305119 
3232.000000	98.305633 
3231.000000	98.306113 
3230.000000	98.306817 
3229.000000	98.307757 
3228.000000	98.308666 
3227.000000	98.309297 
3226.000000	98.309698 
3225.000000	98.310114 
3224.000000	98.310682 
3223.000000	98.311308 
3222.000000	98.311915 
3221.000000	98.312659 
3220.000000	98.313726 
3219.000000	98.314971 
3218.000000	98.315958 
3217.000000	98.316424 
3216.000000	98.316514 
3215.000000	98.316656 
3214.000000	98.317169 
3213.000000	98.318105 
3212.000000	98.319327 
3211.000000	98.320577 
3210.000000	98.321614 
3209.000000	98.322375 
3208.000000	98.322951 
3207.000000	98.323411 
3206.000000	98.323732 
3205.000000	98.323954 
3204.000000	98.324260 
3203.000000	98.324799 
3202.000000	98.325531 
3201.000000	98.326312 
3200.000000	98.327074 
3199.000000	98.327848 
3198.000000	98.328663 
3197.000000	98.329473 
3196.000000	98.330165 
3195.000000	98.330656 
3194.000000	98.331065 
3193.000000	98.331761 
3192.000000	98.333099 
3191.000000	98.335006 
3190.000000	98.336862 
3189.000000	98.337939 
3188.000000	98.337913 
3187.000000	98.337065 
3186.000000	98.336164 
3185.000000	98.336033 
3184.000000	98.337117 
3183.000000	98.339251 
3182.000000	98.341885 
3181.000000	98.344576 
3180.000000	98.347128 
3179.000000	98.349357 
3178.000000	98.350945 
3177.000000	98.351609 
3176.000000	98.351363 
3175.000000	98.350696 
3174.000000	98.350591 
3173.000000	98.352043 
3172.000000	98.355230 
3171.000000	98.359062 
3170.000000	98.361939 
3169.000000	98.363173 
3168.000000	98.363332 
3167.000000	98.363283 
3166.000000	98.363356 
3165.000000	98.363497 
3164.000000	98.363672 
3163.000000	98.363846 
3162.000000	98.363887 
3161.000000	98.363777 
3160.000000	98.363730 
3159.000000	98.363949 
3158.000000	98.364502 
3157.000000	98.365508 
3156.000000	98.367171 
3155.000000	98.369491 
3154.000000	98.372204 
3153.000000	98.375108 
3152.000000	98.378220 
3151.000000	98.381412 
3150.000000	98.384123 
3149.000000	98.385691 
3148.000000	98.385934 
3147.000000	98.385335 
3146.000000	98.384814 
3145.000000	98.385194 
3144.000000	98.386669 
3143.000000	98.388675 
3142.000000	98.390313 
3141.000000	98.391102 
3140.000000	98.391240 
3139.000000	98.391256 
3138.000000	98.391538 
3137.000000	98.392194 
3136.000000	98.393189 
3135.000000	98.394453 
3134.000000	98.395916 
3133.000000	98.397493 
3132.000000	98.399029 
3131.000000	98.400289 
3130.000000	98.401153 
3129.000000	98.401801 
3128.000000	98.402618 
3127.000000	98.403821 
3126.000000	98.405309 
3125.000000	98.406809 
3124.000000	98.408096 
3123.000000	98.409103 
3122.000000	98.409889 
3121.000000	98.410581 
3120.000000	98.411340 
3119.000000	98.412266 
3118.000000	98.413355 
3117.000000	98.414532 
3116.000000	98.415700 
3115.000000	98.416795 
3114.000000	98.417800 
3113.000000	98.418734 
3112.000000	98.419659 
3111.000000	98.420653 
3110.000000	98.421767 
3109.000000	98.422987 
3108.000000	98.424222 
3107.000000	98.425364 
3106.000000	98.426331 
3105.000000	98.427083 
3104.000000	98.427620 
3103.000000	98.428001 
3102.000000	98.428378 
3101.000000	98.428935 
3100.000000	98.429737 
3099.000000	98.430655 
3098.000000	98.431510 
3097.000000	98.432288 
3096.000000	98.433150 
3095.000000	98.434202 
3094.000000	98.435375 
3093.000000	98.436574 
3092.000000	98.437809 
3091.000000	98.438992 
3090.000000	98.439713 
3089.000000	98.439529 
3088.000000	98.438532 
3087.000000	98.437520 
3086.000000	98.437626 
3085.000000	98.439676 
3084.000000	98.443340 
3083.000000	98.446925 
3082.000000	98.448751 
3081.000000	98.448973 
3080.000000	98.449530 
3079.000000	98.451731 
3078.000000	98.454822 
3077.000000	98.457647 
3076.000000	98.460378 
3075.000000	98.463127 
3074.000000	98.464122 
3073.000000	98.461454 
3072.000000	98.456189 
3071.000000	98.451575 
3070.000000	98.449050 
3069.000000	98.447225 
3068.000000	98.444959 
3067.000000	98.443256 
3066.000000	98.443345 
3065.000000	98.444797 
3064.000000	98.446528 
3063.000000	98.448161 
3062.000000	98.449431 
3061.000000	98.449616 
3060.000000	98.448617 
3059.000000	98.447811 
3058.000000	98.449105 
3057.000000	98.453326 
3056.000000	98.459338 
3055.000000	98.463912 
3054.000000	98.463167 
3053.000000	98.456014 
3052.000000	98.446579 
3051.000000	98.441466 
3050.000000	98.443492 
3049.000000	98.449160 
3048.000000	98.452489 
3047.000000	98.449800 
3046.000000	98.440573 
3045.000000	98.426570 
3044.000000	98.412195 
3043.000000	98.403757 
3042.000000	98.405130 
3041.000000	98.413637 
3040.000000	98.421719 
3039.000000	98.423361 
3038.000000	98.418116 
3037.000000	98.409267 
3036.000000	98.399591 
3035.000000	98.389449 
3034.000000	98.378113 
3033.000000	98.365605 
3032.000000	98.352938 
3031.000000	98.341204 
3030.000000	98.330804 
3029.000000	98.321001 
3028.000000	98.309528 
3027.000000	98.293091 
3026.000000	98.269940 
3025.000000	98.242943 
3024.000000	98.219131 
3023.000000	98.204357 
3022.000000	98.198205 
3021.000000	98.194970 
3020.000000	98.189220 
3019.000000	98.179218 
3018.000000	98.165317 
3017.000000	98.147497 
3016.000000	98.125864 
3015.000000	98.102311 
3014.000000	98.080118 
3013.000000	98.061814 
3012.000000	98.047587 
3011.000000	98.035063 
3010.000000	98.020300 
3009.000000	98.000065 
3008.000000	97.974128 
3007.000000	97.945369 
3006.000000	97.917432 
3005.000000	97.892560 
3004.000000	97.871465 
3003.000000	97.854023 
3002.000000	97.839350 
3001.000000	97.825715 
3000.000000	97.810962 
2999.000000	97.793078 
2998.000000	97.771089 
2997.000000	97.746665 
2996.000000	97.724371 
2995.000000	97.708028 
2994.000000	97.695604 
2993.000000	97.679126 
2992.000000	97.651454 
2991.000000	97.613282 
2990.000000	97.573203 
2989.000000	97.541707 
2988.000000	97.525519 
2987.000000	97.525776 
2986.000000	97.538699 
2985.000000	97.557504 
2984.000000	97.575306 
2983.000000	97.587780 
2982.000000	97.593819 
2981.000000	97.594345 
2980.000000	97.590813 
2979.000000	97.584284 
2978.000000	97.575343 
2977.000000	97.564954 
2976.000000	97.555382 
2975.000000	97.549621 
2974.000000	97.549534 
2973.000000	97.555073 
2972.000000	97.565338 
2971.000000	97.579249 
2970.000000	97.594679 
2969.000000	97.608496 
2968.000000	97.619051 
2967.000000	97.628072 
2966.000000	97.638729 
2965.000000	97.652135 
2964.000000	97.666796 
2963.000000	97.680965 
2962.000000	97.694059 
2961.000000	97.705813 
2960.000000	97.715681 
2959.000000	97.723744 
2958.000000	97.731337 
2957.000000	97.740050 
2956.000000	97.750407 
2955.000000	97.761797 
2954.000000	97.773385 
2953.000000	97.784901 
2952.000000	97.796638 
2951.000000	97.808522 
2950.000000	97.819044 
2949.000000	97.825707 
2948.000000	97.827261 
2947.000000	97.825381 
2946.000000	97.823917 
2945.000000	97.826747 
2944.000000	97.836013 
2943.000000	97.850767 
2942.000000	97.866032 
2941.000000	97.874600 
2940.000000	97.872304 
2939.000000	97.862414 
2938.000000	97.853517 
2937.000000	97.851742 
2936.000000	97.855688 
2935.000000	97.859229 
2934.000000	97.857743 
2933.000000	97.850933 
2932.000000	97.841463 
2931.000000	97.832514 
2930.000000	97.825954 
2929.000000	97.821405 
2928.000000	97.816934 
2927.000000	97.811386 
2926.000000	97.806028 
2925.000000	97.803457 
2924.000000	97.805010 
2923.000000	97.809580 
2922.000000	97.814528 
2921.000000	97.817471 
2920.000000	97.817831 
2919.000000	97.817281 
2918.000000	97.817994 
2917.000000	97.819662 
2916.000000	97.818948 
2915.000000	97.813110 
2914.000000	97.803840 
2913.000000	97.796119 
2912.000000	97.793105 
2911.000000	97.793251 
2910.000000	97.792745 
2909.000000	97.789654 
2908.000000	97.785133 
2907.000000	97.781261 
2906.000000	97.778408 
2905.000000	97.774291 
2904.000000	97.765768 
2903.000000	97.752538 
2902.000000	97.740306 
2901.000000	97.737560 
2900.000000	97.748850 
2899.000000	97.771116 
2898.000000	97.796196 
2897.000000	97.817014 
2896.000000	97.830739 
2895.000000	97.837737 
2894.000000	97.840413 
2893.000000	97.843066 
2892.000000	97.849822 
2891.000000	97.860888 
2890.000000	97.872045 
2889.000000	97.879140 
2888.000000	97.882156 
2887.000000	97.883886 
2886.000000	97.886183 
2885.000000	97.889478 
2884.000000	97.895068 
2883.000000	97.904951 
2882.000000	97.918773 
2881.000000	97.933111 
2880.000000	97.945308 
2879.000000	97.956837 
2878.000000	97.971180 
2877.000000	97.988998 
2876.000000	98.006930 
2875.000000	98.021038 
2874.000000	98.030183 
2873.000000	98.035903 
2872.000000	98.040384 
2871.000000	98.045247 
2870.000000	98.051458 
2869.000000	98.059351 
2868.000000	98.068850 
2867.000000	98.080202 
2866.000000	98.094096 
2865.000000	98.110299 
2864.000000	98.126535 
2863.000000	98.139962 
2862.000000	98.150168 
2861.000000	98.159748 
2860.000000	98.171392 
2859.000000	98.185348 
2858.000000	98.200502 
2857.000000	98.216861 
2856.000000	98.235264 
2855.000000	98.254644 
2854.000000	98.271370 
2853.000000	98.282415 
2852.000000	98.288202 
2851.000000	98.291753 
2850.000000	98.295924 
2849.000000	98.302144 
2848.000000	98.310962 
2847.000000	98.322230 
2846.000000	98.334621 
2845.000000	98.346127 
2844.000000	98.355701 
2843.000000	98.364082 
2842.000000	98.372726 
2841.000000	98.382050 
2840.000000	98.390918 
2839.000000	98.397824 
2838.000000	98.402439 
2837.000000	98.406033 
2836.000000	98.410432 
2835.000000	98.416636 
2834.000000	98.424530 
2833.000000	98.433555 
2832.000000	98.442905 
2831.000000	98.451035 
2830.000000	98.455966 
2829.000000	98.456862 
2828.000000	98.455152 
2827.000000	98.453610 
2826.000000	98.454415 
2825.000000	98.458151 
2824.000000	98.463948 
2823.000000	98.469845 
2822.000000	98.473682 
2821.000000	98.474785 
2820.000000	98.474668 
2819.000000	98.475223 
2818.000000	98.476383 
2817.000000	98.476791 
2816.000000	98.476675 
2815.000000	98.478470 
2814.000000	98.483692 
2813.000000	98.490281 
2812.000000	98.494234 
2811.000000	98.493637 
2810.000000	98.490309 
2809.000000	98.487854 
2808.000000	98.488709 
2807.000000	98.492985 
2806.000000	98.499075 
2805.000000	98.504808 
2804.000000	98.508635 
2803.000000	98.510416 
2802.000000	98.511328 
2801.000000	98.512865 
2800.000000	98.515642 
2799.000000	98.518916 
2798.000000	98.521198 
2797.000000	98.521532 
2796.000000	98.520269 
2795.000000	98.518772 
2794.000000	98.518381 
2793.000000	98.519492 
2792.000000	98.521620 
2791.000000	98.524018 
2790.000000	98.526144 
2789.000000	98.527771 
2788.000000	98.528953 
2787.000000	98.529939 
2786.000000	98.531014 
2785.000000	98.532324 
2784.000000	98.533812 
2783.000000	98.535309 
2782.000000	98.536692 
2781.000000	98.537977 
2780.000000	98.539235 
2779.000000	98.540470 
2778.000000	98.541623 
2777.000000	98.542677 
2776.000000	98.543705 
2775.000000	98.544791 
2774.000000	98.545934 
2773.000000	98.547047 
2772.000000	98.548061 
2771.000000	98.548990 
2770.000000	98.549913 
2769.000000	98.550902 
2768.000000	98.551957 
2767.000000	98.552983 
2766.000000	98.553864 
2765.000000	98.554592 
2764.000000	98.555272 
2763.000000	98.555972 
2762.000000	98.556642 
2761.000000	98.557256 
2760.000000	98.557986 
2759.000000	98.559092 
2758.000000	98.560635 
2757.000000	98.562293 
2756.000000	98.563575 
2755.000000	98.564270 
2754.000000	98.564578 
2753.000000	98.564945 
2752.000000	98.565567 
2751.000000	98.566297 
2750.000000	98.566941 
2749.000000	98.567491 
2748.000000	98.567995 
2747.000000	98.568362 
2746.000000	98.568448 
2745.000000	98.568355 
2744.000000	98.568472 
2743.000000	98.569094 
2742.000000	98.570137 
2741.000000	98.571262 
2740.000000	98.572270 
2739.000000	98.573193 
2738.000000	98.574051 
2737.000000	98.574764 
2736.000000	98.575288 
2735.000000	98.575737 
2734.000000	98.576270 
2733.000000	98.576911 
2732.000000	98.577545 
2731.000000	98.578090 
2730.000000	98.578618 
2729.000000	98.579269 
2728.000000	98.580063 
2727.000000	98.580845 
2726.000000	98.581449 
2725.000000	98.581866 
2724.000000	98.582229 
2723.000000	98.582666 
2722.000000	98.583205 
2721.000000	98.583822 
2720.000000	98.584514 
2719.000000	98.585283 
2718.000000	98.586086 
2717.000000	98.586839 
2716.000000	98.587487 
2715.000000	98.588046 
2714.000000	98.588577 
2713.000000	98.589132 
2712.000000	98.589733 
2711.000000	98.590379 
2710.000000	98.591066 
2709.000000	98.591788 
2708.000000	98.592537 
2707.000000	98.593304 
2706.000000	98.594083 
2705.000000	98.594868 
2704.000000	98.595653 
2703.000000	98.596434 
2702.000000	98.597209 
2701.000000	98.597975 
2700.000000	98.598736 
2699.000000	98.599492 
2698.000000	98.600239 
2697.000000	98.600968 
2696.000000	98.601672 
2695.000000	98.602355 
2694.000000	98.603027 
2693.000000	98.603697 
2692.000000	98.604367 
2691.000000	98.605034 
2690.000000	98.605694 
2689.000000	98.606345 
2688.000000	98.606986 
2687.000000	98.607616 
2686.000000	98.608239 
2685.000000	98.608859 
2684.000000	98.609483 
2683.000000	98.610107 
2682.000000	98.610717 
2681.000000	98.611303 
2680.000000	98.611867 
2679.000000	98.612422 
2678.000000	98.612969 
2677.000000	98.613506 
2676.000000	98.614046 
2675.000000	98.614614 
2674.000000	98.615202 
2673.000000	98.615751 
2672.000000	98.616211 
2671.000000	98.616584 
2670.000000	98.616884 
2669.000000	98.617121 
2668.000000	98.617322 
2667.000000	98.617523 
2666.000000	98.617726 
2665.000000	98.617903 
2664.000000	98.618048 
2663.000000	98.618203 
2662.000000	98.618420 
2661.000000	98.618692 
2660.000000	98.618950 
2659.000000	98.619127 
2658.000000	98.619225 
2657.000000	98.619299 
2656.000000	98.619387 
2655.000000	98.619481 
2654.000000	98.619539 
2653.000000	98.619540 
2652.000000	98.619510 
2651.000000	98.619508 
2650.000000	98.619574 
2649.000000	98.619694 
2648.000000	98.619826 
2647.000000	98.619934 
2646.000000	98.620002 
2645.000000	98.620029 
2644.000000	98.620031 
2643.000000	98.620033 
2642.000000	98.620052 
2641.000000	98.620084 
2640.000000	98.620120 
2639.000000	98.620152 
2638.000000	98.620174 
2637.000000	98.620181 
2636.000000	98.620169 
2635.000000	98.620138 
2634.000000	98.620095 
2633.000000	98.620044 
2632.000000	98.619991 
2631.000000	98.619937 
2630.000000	98.619884 
2629.000000	98.619836 
2628.000000	98.619796 
2627.000000	98.619769 
2626.000000	98.619756 
2625.000000	98.619756 
2624.000000	98.619762 
2623.000000	98.619765 
2622.000000	98.619751 
2621.000000	98.619708 
2620.000000	98.619624 
2619.000000	98.619504 
2618.000000	98.619367 
2617.000000	98.619233 
2616.000000	98.619120 
2615.000000	98.619034 
2614.000000	98.618972 
2613.000000	98.618928 
2612.000000	98.618893 
2611.000000	98.618859 
2610.000000	98.618816 
2609.000000	98.618763 
2608.000000	98.618710 
2607.000000	98.618663 
2606.000000	98.618626 
2605.000000	98.618595 
2604.000000	98.618567 
2603.000000	98.618528 
2602.000000	98.618471 
2601.000000	98.618434 
2600.000000	98.618467 
2599.000000	98.618548 
2598.000000	98.618547 
2597.000000	98.618364 
2596.000000	98.618040 
2595.000000	98.617725 
2594.000000	98.617487 
2593.000000	98.617286 
2592.000000	98.617147 
2591.000000	98.617192 
2590.000000	98.617400 
2589.000000	98.617499 
2588.000000	98.617261 
2587.000000	98.616819 
2586.000000	98.616534 
2585.000000	98.616537 
2584.000000	98.616602 
2583.000000	98.616494 
2582.000000	98.616261 
2581.000000	98.616084 
2580.000000	98.616074 
2579.000000	98.616284 
2578.000000	98.616769 
2577.000000	98.617467 
2576.000000	98.618111 
2575.000000	98.618488 
2574.000000	98.618680 
2573.000000	98.618952 
2572.000000	98.619383 
2571.000000	98.619668 
2570.000000	98.619436 
2569.000000	98.618686 
2568.000000	98.617876 
2567.000000	98.617495 
2566.000000	98.617553 
2565.000000	98.617707 
2564.000000	98.617718 
2563.000000	98.617628 
2562.000000	98.617522 
2561.000000	98.617336 
2560.000000	98.617017 
2559.000000	98.616714 
2558.000000	98.616586 
2557.000000	98.616563 
2556.000000	98.616459 
2555.000000	98.616244 
2554.000000	98.616071 
2553.000000	98.616036 
2552.000000	98.616074 
2551.000000	98.616068 
2550.000000	98.615966 
2549.000000	98.615792 
2548.000000	98.615551 
2547.000000	98.615231 
2546.000000	98.614884 
2545.000000	98.614651 
2544.000000	98.614586 
2543.000000	98.614572 
2542.000000	98.614452 
2541.000000	98.614240 
2540.000000	98.614104 
2539.000000	98.614129 
2538.000000	98.614160 
2537.000000	98.613955 
2536.000000	98.613460 
2535.000000	98.612917 
2534.000000	98.612632 
2533.000000	98.612646 
2532.000000	98.612709 
2531.000000	98.612551 
2530.000000	98.612084 
2529.000000	98.611345 
2528.000000	98.610403 
2527.000000	98.609473 
2526.000000	98.608982 
2525.000000	98.609294 
2524.000000	98.610413 
2523.000000	98.611876 
2522.000000	98.613009 
2521.000000	98.613261 
2520.000000	98.612387 
2519.000000	98.610678 
2518.000000	98.609006 
2517.000000	98.608196 
2516.000000	98.608277 
2515.000000	98.608445 
2514.000000	98.607885 
2513.000000	98.606525 
2512.000000	98.604882 
2511.000000	98.603448 
2510.000000	98.602498 
2509.000000	98.602221 
2508.000000	98.602661 
2507.000000	98.603601 
2506.000000	98.604810 
2505.000000	98.606253 
2504.000000	98.607728 
2503.000000	98.608566 
2502.000000	98.608195 
2501.000000	98.607073 
2500.000000	98.606671 
2499.000000	98.608187 
2498.000000	98.611328 
2497.000000	98.614402 
2496.000000	98.615807 
2495.000000	98.615397 
2494.000000	98.614367 
2493.000000	98.613898 
2492.000000	98.614077 
2491.000000	98.614322 
2490.000000	98.614334 
2489.000000	98.614051 
2488.000000	98.612932 
2487.000000	98.610219 
2486.000000	98.606246 
2485.000000	98.602838 
2484.000000	98.601689 
2483.000000	98.602715 
2482.000000	98.604446 
2481.000000	98.605797 
2480.000000	98.607003 
2479.000000	98.608851 
2478.000000	98.611666 
2477.000000	98.615128 
2476.000000	98.618620 
2475.000000	98.621465 
2474.000000	98.623004 
2473.000000	98.622793 
2472.000000	98.620732 
2471.000000	98.617258 
2470.000000	98.613543 
2469.000000	98.611049 
2468.000000	98.610500 
2467.000000	98.611241 
2466.000000	98.611760 
2465.000000	98.610978 
2464.000000	98.609105 
2463.000000	98.607394 
2462.000000	98.607175 
2461.000000	98.609020 
2460.000000	98.612541 
2459.000000	98.616710 
2458.000000	98.620294 
2457.000000	98.622116 
2456.000000	98.621455 
2455.000000	98.618660 
2454.000000	98.615219 
2453.000000	98.612659 
2452.000000	98.611222 
2451.000000	98.610030 
2450.000000	98.608486 
2449.000000	98.606983 
2448.000000	98.606153 
2447.000000	98.606062 
2446.000000	98.606470 
2445.000000	98.607309 
2444.000000	98.608376 
2443.000000	98.608982 
2442.000000	98.608525 
2441.000000	98.607301 
2440.000000	98.606407 
2439.000000	98.606848 
2438.000000	98.608870 
2437.000000	98.611879 
2436.000000	98.614630 
2435.000000	98.615956 
2434.000000	98.615674 
2433.000000	98.614677 
2432.000000	98.614090 
2431.000000	98.614284 
2430.000000	98.614996 
2429.000000	98.616013 
2428.000000	98.617296 
2427.000000	98.618543 
2426.000000	98.619186 
2425.000000	98.618968 
2424.000000	98.618187 
2423.000000	98.617415 
2422.000000	98.617087 
2421.000000	98.617378 
2420.000000	98.618156 
2419.000000	98.618938 
2418.000000	98.619207 
2417.000000	98.618943 
2416.000000	98.618655 
2415.000000	98.618776 
2414.000000	98.619228 
2413.000000	98.619689 
2412.000000	98.620033 
2411.000000	98.620316 
2410.000000	98.620615 
2409.000000	98.621134 
2408.000000	98.622156 
2407.000000	98.623567 
2406.000000	98.624657 
2405.000000	98.624778 
2404.000000	98.623959 
2403.000000	98.622734 
2402.000000	98.621555 
2401.000000	98.620779 
2400.000000	98.620877 
2399.000000	98.621916 
2398.000000	98.623080 
2397.000000	98.623356 
2396.000000	98.622648 
2395.000000	98.621624 
2394.000000	98.620739 
2393.000000	98.619897 
2392.000000	98.619038 
2391.000000	98.618454 
2390.000000	98.618266 
2389.000000	98.618089 
2388.000000	98.617502 
2387.000000	98.616531 
2386.000000	98.615573 
2385.000000	98.614952 
2384.000000	98.614647 
2383.000000	98.614281 
2382.000000	98.613374 
2381.000000	98.611761 
2380.000000	98.609767 
2379.000000	98.607890 
2378.000000	98.606291 
2377.000000	98.604769 
2376.000000	98.603188 
2375.000000	98.601705 
2374.000000	98.600481 
2373.000000	98.599412 
2372.000000	98.598275 
2371.000000	98.597063 
2370.000000	98.595954 
2369.000000	98.594986 
2368.000000	98.593985 
2367.000000	98.592798 
2366.000000	98.591450 
2365.000000	98.590047 
2364.000000	98.588672 
2363.000000	98.587379 
2362.000000	98.586231 
2361.000000	98.585257 
2360.000000	98.584401 
2359.000000	98.583566 
2358.000000	98.582685 
2357.000000	98.581746 
2356.000000	98.580770 
2355.000000	98.579796 
2354.000000	98.578860 
2353.000000	98.578029 
2352.000000	98.577368 
2351.000000	98.576881 
2350.000000	98.576522 
2349.000000	98.576230 
2348.000000	98.575971 
2347.000000	98.575738 
2346.000000	98.575553 
2345.000000	98.575441 
2344.000000	98.575416 
2343.000000	98.575471 
2342.000000	98.575594 
2341.000000	98.575781 
2340.000000	98.576039 
2339.000000	98.576375 
2338.000000	98.576783 
2337.000000	98.577248 
2336.000000	98.577764 
2335.000000	98.578346 
2334.000000	98.578974 
2333.000000	98.579587 
2332.000000	98.580186 
2331.000000	98.580904 
2330.000000	98.581836 
2329.000000	98.582928 
2328.000000	98.584033 
2327.000000	98.585062 
2326.000000	98.585994 
2325.000000	98.586847 
2324.000000	98.587724 
2323.000000	98.588741 
2322.000000	98.589861 
2321.000000	98.590845 
2320.000000	98.591538 
2319.000000	98.592136 
2318.000000	98.593010 
2317.000000	98.594346 
2316.000000	98.595991 
2315.000000	98.597570 
2314.000000	98.598625 
2313.000000	98.598857 
2312.000000	98.598505 
2311.000000	98.598449 
2310.000000	98.599362 
2309.000000	98.600941 
2308.000000	98.602170 
2307.000000	98.602555 
2306.000000	98.602498 
2305.000000	98.602586 
2304.000000	98.603109 
2303.000000	98.604276 
2302.000000	98.606248 
2301.000000	98.608547 
2300.000000	98.610053 
2299.000000	98.609947 
2298.000000	98.608396 
2297.000000	98.606049 
2296.000000	98.603306 
2295.000000	98.600335 
2294.000000	98.597475 
2293.000000	98.595243 
2292.000000	98.594119 
2291.000000	98.594311 
2290.000000	98.595540 
2289.000000	98.596947 
2288.000000	98.597558 
2287.000000	98.596931 
2286.000000	98.595407 
2285.000000	98.593828 
2284.000000	98.593108 
2283.000000	98.593696 
2282.000000	98.595092 
2281.000000	98.595900 
2280.000000	98.594794 
2279.000000	98.591460 
2278.000000	98.586638 
2277.000000	98.581744 
2276.000000	98.578366 
2275.000000	98.577427 
2274.000000	98.578137 
2273.000000	98.578433 
2272.000000	98.577414 
2271.000000	98.576419 
2270.000000	98.576701 
2269.000000	98.577199 
2268.000000	98.576118 
2267.000000	98.573949 
2266.000000	98.572927 
2265.000000	98.573773 
2264.000000	98.574833 
2263.000000	98.574443 
2262.000000	98.572629 
2261.000000	98.570286 
2260.000000	98.567912 
2259.000000	98.565467 
2258.000000	98.562807 
2257.000000	98.559978 
2256.000000	98.557502 
2255.000000	98.556289 
2254.000000	98.556609 
2253.000000	98.557389 
2252.000000	98.557187 
2251.000000	98.555642 
2250.000000	98.553278 
2249.000000	98.550235 
2248.000000	98.546385 
2247.000000	98.542343 
2246.000000	98.539209 
2245.000000	98.537304 
2244.000000	98.535839 
2243.000000	98.533990 
2242.000000	98.531836 
2241.000000	98.529952 
2240.000000	98.528370 
2239.000000	98.526419 
2238.000000	98.523574 
2237.000000	98.520040 
2236.000000	98.516522 
2235.000000	98.513841 
2234.000000	98.512570 
2233.000000	98.512684 
2232.000000	98.513691 
2231.000000	98.514919 
2230.000000	98.515433 
2229.000000	98.514136 
2228.000000	98.510603 
2227.000000	98.506126 
2226.000000	98.503151 
2225.000000	98.502933 
2224.000000	98.504356 
2223.000000	98.505161 
2222.000000	98.504269 
2221.000000	98.502114 
2220.000000	98.499160 
2219.000000	98.495088 
2218.000000	98.489835 
2217.000000	98.484774 
2216.000000	98.482125 
2215.000000	98.483056 
2214.000000	98.486248 
2213.000000	98.488367 
2212.000000	98.486910 
2211.000000	98.482492 
2210.000000	98.478147 
2209.000000	98.476161 
2208.000000	98.476312 
2207.000000	98.477443 
2206.000000	98.479370 
2205.000000	98.482185 
2204.000000	98.484745 
2203.000000	98.485495 
2202.000000	98.484475 
2201.000000	98.482970 
2200.000000	98.481006 
2199.000000	98.476738 
2198.000000	98.469013 
2197.000000	98.459611 
2196.000000	98.452199 
2195.000000	98.449104 
2194.000000	98.449390 
2193.000000	98.449536 
2192.000000	98.446153 
2191.000000	98.438526 
2190.000000	98.429116 
2189.000000	98.421853 
2188.000000	98.419264 
2187.000000	98.420882 
2186.000000	98.423638 
2185.000000	98.424115 
2184.000000	98.421468 
2183.000000	98.418130 
2182.000000	98.417322 
2181.000000	98.419632 
2180.000000	98.422404 
2179.000000	98.422539 
2178.000000	98.419634 
2177.000000	98.416198 
2176.000000	98.415241 
2175.000000	98.417642 
2174.000000	98.421803 
2173.000000	98.425214 
2172.000000	98.426621 
2171.000000	98.426423 
2170.000000	98.425386 
2169.000000	98.423864 
2168.000000	98.422256 
2167.000000	98.421404 
2166.000000	98.421853 
2165.000000	98.423051 
2164.000000	98.423849 
2163.000000	98.423725 
2162.000000	98.423128 
2161.000000	98.422854 
2160.000000	98.423432 
2159.000000	98.424944 
2158.000000	98.427128 
2157.000000	98.429480 
2156.000000	98.431515 
2155.000000	98.433091 
2154.000000	98.434392 
2153.000000	98.435801 
2152.000000	98.437638 
2151.000000	98.439914 
2150.000000	98.442406 
2149.000000	98.444882 
2148.000000	98.447316 
2147.000000	98.449814 
2146.000000	98.452383 
2145.000000	98.454932 
2144.000000	98.457408 
2143.000000	98.459826 
2142.000000	98.462207 
2141.000000	98.464549 
2140.000000	98.466846 
2139.000000	98.469105 
2138.000000	98.471350 
2137.000000	98.473601 
2136.000000	98.475849 
2135.000000	98.478063 
2134.000000	98.480218 
2133.000000	98.482320 
2132.000000	98.484406 
2131.000000	98.486525 
2130.000000	98.488709 
2129.000000	98.490951 
2128.000000	98.493223 
2127.000000	98.495489 
2126.000000	98.497724 
2125.000000	98.499924 
2124.000000	98.502084 
2123.000000	98.504144 
2122.000000	98.506031 
2121.000000	98.507737 
2120.000000	98.509336 
2119.000000	98.510915 
2118.000000	98.512511 
2117.000000	98.514115 
2116.000000	98.515684 
2115.000000	98.517152 
2114.000000	98.518459 
2113.000000	98.519582 
2112.000000	98.520585 
2111.000000	98.521597 
2110.000000	98.522705 
2109.000000	98.523905 
2108.000000	98.525082 
2107.000000	98.526098 
2106.000000	98.526851 
2105.000000	98.527295 
2104.000000	98.527489 
2103.000000	98.527636 
2102.000000	98.527917 
2101.000000	98.528241 
2100.000000	98.528362 
2099.000000	98.528361 
2098.000000	98.528731 
2097.000000	98.529766 
2096.000000	98.531156 
2095.000000	98.532221 
2094.000000	98.532614 
2093.000000	98.532466 
2092.000000	98.532057 
2091.000000	98.531651 
2090.000000	98.531498 
2089.000000	98.531680 
2088.000000	98.531855 
2087.000000	98.531427 
2086.000000	98.530114 
2085.000000	98.528148 
2084.000000	98.526047 
2083.000000	98.524211 
2082.000000	98.522723 
2081.000000	98.521426 
2080.000000	98.520145 
2079.000000	98.518927 
2078.000000	98.517974 
2077.000000	98.517269 
2076.000000	98.516386 
2075.000000	98.514852 
2074.000000	98.512637 
2073.000000	98.510084 
2072.000000	98.507558 
2071.000000	98.505326 
2070.000000	98.503579 
2069.000000	98.502365 
2068.000000	98.501539 
2067.000000	98.500876 
2066.000000	98.500114 
2065.000000	98.498814 
2064.000000	98.496540 
2063.000000	98.493359 
2062.000000	98.490063 
2061.000000	98.487612 
2060.000000	98.486256 
2059.000000	98.485640 
2058.000000	98.485200 
2057.000000	98.484320 
2056.000000	98.482445 
2055.000000	98.479382 
2054.000000	98.475652 
2053.000000	98.472282 
2052.000000	98.469849 
2051.000000	98.468075 
2050.000000	98.466263 
2049.000000	98.464056 
2048.000000	98.461667 
2047.000000	98.459473 
2046.000000	98.457604 
2045.000000	98.455952 
2044.000000	98.454389 
2043.000000	98.452934 
2042.000000	98.451715 
2041.000000	98.450805 
2040.000000	98.450163 
2039.000000	98.449822 
2038.000000	98.449883 
2037.000000	98.450156 
2036.000000	98.450059 
2035.000000	98.449165 
2034.000000	98.447752 
2033.000000	98.446582 
2032.000000	98.446091 
2031.000000	98.445985 
2030.000000	98.445602 
2029.000000	98.444472 
2028.000000	98.442557 
2027.000000	98.440112 
2026.000000	98.437520 
2025.000000	98.435236 
2024.000000	98.433762 
2023.000000	98.433455 
2022.000000	98.434255 
2021.000000	98.435553 
2020.000000	98.436392 
2019.000000	98.436190 
2018.000000	98.434992 
2017.000000	98.433260 
2016.000000	98.431584 
2015.000000	98.430300 
2014.000000	98.429493 
2013.000000	98.429044 
2012.000000	98.428693 
2011.000000	98.428310 
2010.000000	98.427968 
2009.000000	98.427607 
2008.000000	98.426884 
2007.000000	98.425654 
2006.000000	98.424428 
2005.000000	98.423906 
2004.000000	98.424186 
2003.000000	98.424809 
2002.000000	98.425471 
2001.000000	98.426205 
2000.000000	98.426710 
1999.000000	98.426126 
1998.000000	98.423918 
1997.000000	98.420670 
1996.000000	98.417739 
1995.000000	98.416094 
1994.000000	98.415812 
1993.000000	98.416312 
1992.000000	98.416816 
1991.000000	98.416956 
1990.000000	98.417125 
1989.000000	98.417980 
1988.000000	98.419362 
1987.000000	98.420012 
1986.000000	98.418855 
1985.000000	98.416477 
1984.000000	98.414903 
1983.000000	98.415637 
1982.000000	98.418358 
1981.000000	98.421264 
1980.000000	98.422549 
1979.000000	98.421490 
1978.000000	98.418244 
1977.000000	98.413143 
1976.000000	98.406715 
1975.000000	98.400389 
1974.000000	98.396652 
1973.000000	98.397663 
1972.000000	98.403276 
1971.000000	98.410882 
1970.000000	98.417427 
1969.000000	98.421213 
1968.000000	98.421955 
1967.000000	98.420625 
1966.000000	98.419723 
1965.000000	98.422112 
1964.000000	98.428625 
1963.000000	98.437301 
1962.000000	98.445137 
1961.000000	98.450259 
1960.000000	98.451980 
1959.000000	98.450024 
1958.000000	98.445470 
1957.000000	98.441539 
1956.000000	98.441171 
1955.000000	98.443921 
1954.000000	98.446728 
1953.000000	98.447735 
1952.000000	98.447771 
1951.000000	98.448074 
1950.000000	98.448795 
1949.000000	98.450112 
1948.000000	98.452834 
1947.000000	98.456855 
1946.000000	98.460271 
1945.000000	98.461266 
1944.000000	98.460001 
1943.000000	98.457873 
1942.000000	98.455860 
1941.000000	98.454598 
1940.000000	98.455192 
1939.000000	98.458446 
1938.000000	98.463709 
1937.000000	98.469300 
1936.000000	98.473805 
1935.000000	98.476403 
1934.000000	98.476804 
1933.000000	98.476224 
1932.000000	98.477294 
1931.000000	98.481751 
1930.000000	98.488800 
1929.000000	98.495577 
1928.000000	98.499799 
1927.000000	98.501235 
1926.000000	98.500816 
1925.000000	98.499510 
1924.000000	98.498134 
1923.000000	98.497597 
1922.000000	98.498198 
1921.000000	98.499133 
1920.000000	98.499610 
1919.000000	98.499766 
1918.000000	98.500036 
1917.000000	98.500214 
1916.000000	98.499941 
1915.000000	98.499815 
1914.000000	98.500821 
1913.000000	98.503018 
1912.000000	98.505490 
1911.000000	98.507449 
1910.000000	98.508719 
1909.000000	98.509269 
1908.000000	98.509279 
1907.000000	98.509450 
1906.000000	98.510473 
1905.000000	98.512121 
1904.000000	98.513362 
1903.000000	98.513618 
1902.000000	98.513174 
1901.000000	98.512483 
1900.000000	98.511970 
1899.000000	98.512262 
1898.000000	98.513805 
1897.000000	98.516262 
1896.000000	98.518557 
1895.000000	98.519886 
1894.000000	98.520328 
1893.000000	98.520404 
1892.000000	98.520591 
1891.000000	98.521205 
1890.000000	98.522354 
1889.000000	98.523750 
1888.000000	98.524929 
1887.000000	98.525874 
1886.000000	98.526921 
1885.000000	98.528153 
1884.000000	98.529335 
1883.000000	98.530335 
1882.000000	98.531275 
1881.000000	98.532278 
1880.000000	98.533265 
1879.000000	98.534107 
1878.000000	98.534870 
1877.000000	98.535799 
1876.000000	98.537042 
1875.000000	98.538491 
1874.000000	98.539884 
1873.000000	98.541021 
1872.000000	98.541870 
1871.000000	98.542514 
1870.000000	98.543116 
1869.000000	98.543922 
1868.000000	98.545114 
1867.000000	98.546680 
1866.000000	98.548403 
1865.000000	98.549993 
1864.000000	98.551333 
1863.000000	98.552547 
1862.000000	98.553862 
1861.000000	98.555382 
1860.000000	98.557060 
1859.000000	98.558842 
1858.000000	98.560698 
1857.000000	98.562539 
1856.000000	98.564252 
1855.000000	98.565807 
1854.000000	98.567261 
1853.000000	98.568683 
1852.000000	98.570144 
1851.000000	98.571683 
1850.000000	98.573276 
1849.000000	98.574861 
1848.000000	98.576397 
1847.000000	98.577892 
1846.000000	98.579376 
1845.000000	98.580876 
1844.000000	98.582392 
1843.000000	98.583916 
1842.000000	98.585441 
1841.000000	98.586969 
1840.000000	98.588504 
1839.000000	98.590047 
1838.000000	98.591588 
1837.000000	98.593109 
1836.000000	98.594589 
1835.000000	98.596022 
1834.000000	98.597413 
1833.000000	98.598764 
1832.000000	98.600081 
1831.000000	98.601375 
1830.000000	98.602663 
1829.000000	98.603962 
1828.000000	98.605276 
1827.000000	98.606592 
1826.000000	98.607881 
1825.000000	98.609114 
1824.000000	98.610277 
1823.000000	98.611376 
1822.000000	98.612435 
1821.000000	98.613469 
1820.000000	98.614480 
1819.000000	98.615455 
1818.000000	98.616380 
1817.000000	98.617246 
1816.000000	98.618048 
1815.000000	98.618793 
1814.000000	98.619506 
1813.000000	98.620219 
1812.000000	98.620949 
1811.000000	98.621693 
1810.000000	98.622437 
1809.000000	98.623167 
1808.000000	98.623868 
1807.000000	98.624532 
1806.000000	98.625169 
1805.000000	98.625792 
1804.000000	98.626412 
1803.000000	98.627024 
1802.000000	98.627623 
1801.000000	98.628208 
1800.000000	98.628776 
1799.000000	98.629315 
1798.000000	98.629816 
1797.000000	98.630269 
1796.000000	98.630676 
1795.000000	98.631045 
1794.000000	98.631395 
1793.000000	98.631748 
1792.000000	98.632119 
1791.000000	98.632514 
1790.000000	98.632934 
1789.000000	98.633372 
1788.000000	98.633811 
1787.000000	98.634228 
1786.000000	98.634607 
1785.000000	98.634954 
1784.000000	98.635293 
1783.000000	98.635654 
1782.000000	98.636052 
1781.000000	98.636485 
1780.000000	98.636932 
1779.000000	98.637368 
1778.000000	98.637778 
1777.000000	98.638156 
1776.000000	98.638505 
1775.000000	98.638835 
1774.000000	98.639154 
1773.000000	98.639478 
1772.000000	98.639842 
1771.000000	98.640263 
1770.000000	98.640692 
1769.000000	98.641066 
1768.000000	98.641359 
1767.000000	98.641586 
1766.000000	98.641801 
1765.000000	98.642105 
1764.000000	98.642600 
1763.000000	98.643258 
1762.000000	98.643875 
1761.000000	98.644317 
1760.000000	98.644640 
1759.000000	98.644788 
1758.000000	98.644541 
1757.000000	98.643848 
1756.000000	98.643309 
1755.000000	98.643400 
1754.000000	98.643712 
1753.000000	98.643648 
1752.000000	98.643474 
1751.000000	98.644239 
1750.000000	98.646349 
1749.000000	98.648878 
1748.000000	98.650672 
1747.000000	98.651399 
1746.000000	98.651092 
1745.000000	98.650349 
1744.000000	98.650393 
1743.000000	98.651645 
1742.000000	98.653131 
1741.000000	98.653836 
1740.000000	98.653587 
1739.000000	98.652690 
1738.000000	98.651123 
1737.000000	98.649002 
1736.000000	98.646871 
1735.000000	98.645410 
1734.000000	98.645072 
1733.000000	98.645600 
1732.000000	98.646871 
1731.000000	98.649389 
1730.000000	98.653052 
1729.000000	98.655972 
1728.000000	98.656738 
1727.000000	98.655636 
1726.000000	98.653987 
1725.000000	98.653010 
1724.000000	98.653378 
1723.000000	98.655062 
1722.000000	98.657914 
1721.000000	98.661144 
1720.000000	98.663198 
1719.000000	98.662041 
1718.000000	98.657204 
1717.000000	98.651829 
1716.000000	98.648009 
1715.000000	98.645176 
1714.000000	98.643931 
1713.000000	98.644516 
1712.000000	98.645333 
1711.000000	98.645358 
1710.000000	98.645073 
1709.000000	98.644735 
1708.000000	98.643707 
1707.000000	98.641619 
1706.000000	98.639579 
1705.000000	98.638892 
1704.000000	98.638081 
1703.000000	98.635565 
1702.000000	98.631701 
1701.000000	98.627987 
1700.000000	98.624083 
1699.000000	98.618227 
1698.000000	98.612593 
1697.000000	98.610271 
1696.000000	98.611229 
1695.000000	98.612810 
1694.000000	98.613097 
1693.000000	98.612372 
1692.000000	98.611005 
1691.000000	98.608943 
1690.000000	98.606288 
1689.000000	98.603230 
1688.000000	98.599947 
1687.000000	98.596580 
1686.000000	98.593329 
1685.000000	98.590520 
1684.000000	98.587920 
1683.000000	98.585434 
1682.000000	98.583059 
1681.000000	98.580336 
1680.000000	98.577452 
1679.000000	98.574521 
1678.000000	98.571494 
1677.000000	98.568251 
1676.000000	98.565130 
1675.000000	98.562516 
1674.000000	98.560079 
1673.000000	98.557427 
1672.000000	98.554764 
1671.000000	98.552317 
1670.000000	98.549878 
1669.000000	98.546977 
1668.000000	98.543873 
1667.000000	98.541172 
1666.000000	98.538811 
1665.000000	98.536596 
1664.000000	98.534586 
1663.000000	98.532739 
1662.000000	98.530431 
1661.000000	98.526963 
1660.000000	98.522826 
1659.000000	98.519130 
1658.000000	98.516467 
1657.000000	98.514293 
1656.000000	98.512463 
1655.000000	98.511261 
1654.000000	98.510428 
1653.000000	98.507700 
1652.000000	98.502274 
1651.000000	98.497357 
1650.000000	98.494005 
1649.000000	98.491775 
1648.000000	98.489536 
1647.000000	98.487012 
1646.000000	98.484415 
1645.000000	98.482604 
1644.000000	98.481203 
1643.000000	98.479947 
1642.000000	98.478894 
1641.000000	98.478266 
1640.000000	98.477869 
1639.000000	98.476949 
1638.000000	98.475206 
1637.000000	98.473125 
1636.000000	98.471650 
1635.000000	98.471589 
1634.000000	98.472179 
1633.000000	98.471986 
1632.000000	98.470402 
1631.000000	98.468051 
1630.000000	98.466059 
1629.000000	98.464586 
1628.000000	98.463549 
1627.000000	98.463845 
1626.000000	98.465970 
1625.000000	98.468776 
1624.000000	98.470749 
1623.000000	98.471795 
1622.000000	98.472665 
1621.000000	98.472946 
1620.000000	98.472227 
1619.000000	98.471088 
1618.000000	98.470285 
1617.000000	98.469360 
1616.000000	98.468147 
1615.000000	98.468722 
1614.000000	98.471545 
1613.000000	98.474196 
1612.000000	98.474423 
1611.000000	98.472342 
1610.000000	98.469618 
1609.000000	98.467691 
1608.000000	98.467798 
1607.000000	98.471023 
1606.000000	98.476243 
1605.000000	98.480603 
1604.000000	98.483015 
1603.000000	98.484404 
1602.000000	98.485492 
1601.000000	98.486029 
1600.000000	98.486206 
1599.000000	98.487067 
1598.000000	98.488807 
1597.000000	98.490524 
1596.000000	98.491768 
1595.000000	98.493198 
1594.000000	98.495146 
1593.000000	98.496574 
1592.000000	98.496768 
1591.000000	98.496899 
1590.000000	98.498506 
1589.000000	98.501503 
1588.000000	98.505265 
1587.000000	98.510050 
1586.000000	98.515525 
1585.000000	98.519541 
1584.000000	98.521314 
1583.000000	98.523215 
1582.000000	98.527244 
1581.000000	98.532736 
1580.000000	98.538063 
1579.000000	98.542661 
1578.000000	98.546334 
1577.000000	98.548559 
1576.000000	98.549674 
1575.000000	98.552188 
1574.000000	98.556639 
1573.000000	98.561036 
1572.000000	98.565275 
1571.000000	98.570267 
1570.000000	98.574873 
1569.000000	98.576036 
1568.000000	98.575754 
1567.000000	98.578335 
1566.000000	98.583680 
1565.000000	98.588010 
1564.000000	98.590206 
1563.000000	98.591394 
1562.000000	98.593136 
1561.000000	98.594663 
1560.000000	98.595586 
1559.000000	98.595516 
1558.000000	98.594666 
1557.000000	98.595161 
1556.000000	98.596652 
1555.000000	98.601409 
1554.000000	98.606616 
1553.000000	98.611729 
1552.000000	98.615997 
1551.000000	98.619098 
1550.000000	98.620053 
1549.000000	98.619969 
1548.000000	98.620666 
1547.000000	98.622957 
1546.000000	98.625357 
1545.000000	98.626243 
1544.000000	98.625956 
1543.000000	98.625581 
1542.000000	98.625924 
1541.000000	98.627319 
1540.000000	98.626575 
1539.000000	98.623327 
1538.000000	98.621444 
1537.000000	98.621271 
1536.000000	98.621730 
1535.000000	98.622858 
1534.000000	98.625632 
1533.000000	98.629587 
1532.000000	98.632873 
1531.000000	98.633820 
1530.000000	98.633954 
1529.000000	98.635273 
1528.000000	98.637268 
1527.000000	98.638484 
1526.000000	98.638584 
1525.000000	98.638640 
1524.000000	98.639516 
1523.000000	98.640586 
1522.000000	98.640384 
1521.000000	98.638023 
1520.000000	98.634025 
1519.000000	98.629290 
1518.000000	98.623994 
1517.000000	98.618789 
1516.000000	98.615142 
1515.000000	98.614440 
1514.000000	98.616572 
1513.000000	98.620598 
1512.000000	98.624430 
1511.000000	98.625100 
1510.000000	98.622036 
1509.000000	98.617860 
1508.000000	98.616291 
1507.000000	98.617067 
1506.000000	98.617420 
1505.000000	98.616277 
1504.000000	98.613980 
1503.000000	98.611824 
1502.000000	98.609654 
1501.000000	98.608003 
1500.000000	98.606490 
1499.000000	98.603451 
1498.000000	98.597195 
1497.000000	98.591155 
1496.000000	98.589919 
1495.000000	98.592667 
1494.000000	98.596289 
1493.000000	98.599906 
1492.000000	98.604133 
1491.000000	98.608764 
1490.000000	98.612525 
1489.000000	98.614926 
1488.000000	98.614827 
1487.000000	98.611382 
1486.000000	98.607193 
1485.000000	98.603314 
1484.000000	98.599289 
1483.000000	98.595879 
1482.000000	98.593747 
1481.000000	98.592593 
1480.000000	98.590882 
1479.000000	98.588025 
1478.000000	98.585089 
1477.000000	98.583361 
1476.000000	98.581875 
1475.000000	98.578775 
1474.000000	98.574455 
1473.000000	98.571498 
1472.000000	98.571284 
1471.000000	98.571383 
1470.000000	98.570197 
1469.000000	98.568918 
1468.000000	98.568366 
1467.000000	98.567890 
1466.000000	98.567214 
1465.000000	98.566920 
1464.000000	98.567166 
1463.000000	98.565815 
1462.000000	98.561897 
1461.000000	98.557968 
1460.000000	98.557131 
1459.000000	98.559259 
1458.000000	98.557049 
1457.000000	98.545321 
1456.000000	98.532240 
1455.000000	98.525145 
1454.000000	98.520821 
1453.000000	98.517570 
1452.000000	98.516170 
1451.000000	98.517507 
1450.000000	98.521136 
1449.000000	98.527975 
1448.000000	98.537081 
1447.000000	98.543744 
1446.000000	98.543891 
1445.000000	98.539491 
1444.000000	98.536570 
1443.000000	98.536410 
1442.000000	98.536136 
1441.000000	98.534045 
1440.000000	98.531698 
1439.000000	98.529960 
1438.000000	98.526366 
1437.000000	98.520023 
1436.000000	98.515299 
1435.000000	98.514135 
1434.000000	98.513696 
1433.000000	98.513775 
1432.000000	98.514629 
1431.000000	98.514924 
1430.000000	98.512667 
1429.000000	98.508806 
1428.000000	98.505131 
1427.000000	98.501492 
1426.000000	98.496241 
1425.000000	98.488259 
1424.000000	98.480567 
1423.000000	98.474308 
1422.000000	98.466662 
1421.000000	98.456950 
1420.000000	98.447739 
1419.000000	98.437004 
1418.000000	98.418977 
1417.000000	98.397557 
1416.000000	98.382142 
1415.000000	98.374868 
1414.000000	98.369092 
1413.000000	98.359100 
1412.000000	98.346887 
1411.000000	98.336567 
1410.000000	98.327263 
1409.000000	98.317862 
1408.000000	98.310756 
1407.000000	98.308308 
1406.000000	98.309171 
1405.000000	98.311198 
1404.000000	98.316619 
1403.000000	98.325969 
1402.000000	98.335575 
1401.000000	98.344299 
1400.000000	98.355069 
1399.000000	98.367986 
1398.000000	98.375061 
1397.000000	98.368146 
1396.000000	98.348579 
1395.000000	98.328556 
1394.000000	98.321177 
1393.000000	98.330219 
1392.000000	98.351784 
1391.000000	98.377962 
1390.000000	98.400241 
1389.000000	98.413108 
1388.000000	98.415457 
1387.000000	98.409930 
1386.000000	98.400960 
1385.000000	98.392984 
1384.000000	98.389857 
1383.000000	98.392770 
1382.000000	98.399459 
1381.000000	98.407089 
1380.000000	98.414484 
1379.000000	98.422511 
1378.000000	98.432313 
1377.000000	98.444044 
1376.000000	98.457214 
1375.000000	98.471360 
1374.000000	98.485779 
1373.000000	98.500203 
1372.000000	98.515119 
1371.000000	98.530986 
1370.000000	98.546668 
1369.000000	98.559015 
1368.000000	98.567667 
1367.000000	98.575401 
1366.000000	98.584383 
1365.000000	98.594568 
1364.000000	98.604112 
1363.000000	98.610910 
1362.000000	98.615142 
1361.000000	98.619416 
1360.000000	98.626343 
1359.000000	98.636857 
1358.000000	98.649385 
1357.000000	98.660861 
1356.000000	98.669626 
1355.000000	98.676230 
1354.000000	98.681825 
1353.000000	98.687613 
1352.000000	98.693844 
1351.000000	98.701146 
1350.000000	98.711167 
1349.000000	98.722718 
1348.000000	98.733206 
1347.000000	98.741015 
1346.000000	98.746369 
1345.000000	98.749979 
1344.000000	98.752929 
1343.000000	98.756735 
1342.000000	98.761930 
1341.000000	98.766101 
1340.000000	98.765652 
1339.000000	98.760173 
1338.000000	98.752787 
1337.000000	98.746790 
1336.000000	98.743596 
1335.000000	98.742711 
1334.000000	98.742769 
1333.000000	98.742858 
1332.000000	98.743173 
1331.000000	98.744853 
1330.000000	98.748479 
1329.000000	98.752941 
1328.000000	98.756637 
1327.000000	98.759571 
1326.000000	98.762496 
1325.000000	98.764187 
1324.000000	98.763149 
1323.000000	98.759653 
1322.000000	98.755393 
1321.000000	98.751898 
1320.000000	98.750121 
1319.000000	98.750465 
1318.000000	98.752596 
1317.000000	98.755670 
1316.000000	98.758368 
1315.000000	98.758557 
1314.000000	98.754339 
1313.000000	98.747121 
1312.000000	98.741900 
1311.000000	98.742296 
1310.000000	98.746304 
1309.000000	98.749088 
1308.000000	98.748793 
1307.000000	98.747781 
1306.000000	98.748639 
1305.000000	98.751173 
1304.000000	98.754495 
1303.000000	98.758131 
1302.000000	98.760858 
1301.000000	98.760918 
1300.000000	98.758715 
1299.000000	98.756994 
1298.000000	98.757456 
1297.000000	98.758887 
1296.000000	98.759391 
1295.000000	98.758856 
1294.000000	98.757810 
1293.000000	98.755922 
1292.000000	98.753054 
1291.000000	98.750517 
1290.000000	98.750012 
1289.000000	98.751820 
1288.000000	98.754625 
1287.000000	98.756483 
1286.000000	98.755683 
1285.000000	98.752001 
1284.000000	98.747651 
1283.000000	98.745420 
1282.000000	98.745122 
1281.000000	98.743242 
1280.000000	98.737083 
1279.000000	98.728197 
1278.000000	98.720675 
1277.000000	98.717155 
1276.000000	98.717036 
1275.000000	98.717799 
1274.000000	98.716815 
1273.000000	98.712505 
1272.000000	98.704837 
1271.000000	98.695007 
1270.000000	98.684438 
1269.000000	98.674228 
1268.000000	98.665391 
1267.000000	98.658490 
1266.000000	98.652688 
1265.000000	98.646465 
1264.000000	98.639326 
1263.000000	98.631646 
1262.000000	98.623089 
1261.000000	98.612883 
1260.000000	98.602314 
1259.000000	98.595049 
1258.000000	98.593262 
1257.000000	98.594734 
1256.000000	98.594808 
1255.000000	98.590826 
1254.000000	98.583829 
1253.000000	98.576465 
1252.000000	98.570541 
1251.000000	98.566808 
1250.000000	98.565922 
1249.000000	98.568519 
1248.000000	98.574195 
1247.000000	98.580599 
1246.000000	98.583953 
1245.000000	98.581410 
1244.000000	98.573472 
1243.000000	98.564482 
1242.000000	98.560348 
1241.000000	98.564610 
1240.000000	98.575501 
1239.000000	98.586208 
1238.000000	98.589579 
1237.000000	98.583590 
1236.000000	98.572274 
1235.000000	98.561622 
1234.000000	98.554689 
1233.000000	98.550812 
1232.000000	98.548045 
1231.000000	98.544751 
1230.000000	98.539862 
1229.000000	98.533648 
1228.000000	98.528207 
1227.000000	98.525693 
1226.000000	98.525724 
1225.000000	98.525380 
1224.000000	98.521973 
1223.000000	98.515218 
1222.000000	98.507028 
1221.000000	98.499986 
1220.000000	98.495920 
1219.000000	98.495082 
1218.000000	98.496383 
1217.000000	98.498503 
1216.000000	98.500267 
1215.000000	98.500108 
1214.000000	98.496888 
1213.000000	98.492048 
1212.000000	98.488941 
1211.000000	98.488129 
1210.000000	98.485140 
1209.000000	98.475422 
1208.000000	98.460429 
1207.000000	98.446352 
1206.000000	98.436788 
1205.000000	98.428808 
1204.000000	98.416814 
1203.000000	98.398543 
1202.000000	98.376778 
1201.000000	98.356285 
1200.000000	98.339603 
1199.000000	98.325659 
1198.000000	98.312109 
1197.000000	98.298542 
1196.000000	98.286249 
1195.000000	98.274978 
1194.000000	98.262082 
1193.000000	98.245703 
1192.000000	98.227280 
1191.000000	98.209726 
1190.000000	98.194320 
1189.000000	98.180449 
1188.000000	98.166844 
1187.000000	98.151594 
1186.000000	98.132543 
1185.000000	98.109589 
1184.000000	98.085558 
1183.000000	98.063499 
1182.000000	98.044399 
1181.000000	98.028426 
1180.000000	98.015926 
1179.000000	98.004969 
1178.000000	97.990141 
1177.000000	97.966910 
1176.000000	97.936131 
1175.000000	97.902096 
1174.000000	97.867769 
1173.000000	97.834630 
1172.000000	97.805406 
1171.000000	97.782179 
1170.000000	97.761681 
1169.000000	97.736851 
1168.000000	97.704756 
1167.000000	97.670423 
1166.000000	97.641847 
1165.000000	97.623661 
1164.000000	97.616301 
1163.000000	97.618057 
1162.000000	97.625892 
1161.000000	97.635714 
1160.000000	97.643612 
1159.000000	97.646918 
1158.000000	97.644060 
1157.000000	97.634086 
1156.000000	97.616324 
1155.000000	97.590406 
1154.000000	97.557530 
1153.000000	97.521854 
1152.000000	97.488698 
1151.000000	97.460127 
1150.000000	97.434019 
1149.000000	97.408733 
1148.000000	97.385979 
1147.000000	97.366516 
1146.000000	97.345517 
1145.000000	97.316275 
1144.000000	97.277809 
1143.000000	97.235910 
1142.000000	97.197092 
1141.000000	97.163733 
1140.000000	97.134254 
1139.000000	97.105046 
1138.000000	97.072661 
1137.000000	97.036706 
1136.000000	97.000146 
1135.000000	96.964841 
1134.000000	96.928291 
1133.000000	96.887430 
1132.000000	96.843656 
1131.000000	96.800785 
1130.000000	96.759773 
1129.000000	96.718977 
1128.000000	96.677621 
1127.000000	96.634527 
1126.000000	96.585143 
1125.000000	96.525367 
1124.000000	96.458336 
1123.000000	96.393084 
1122.000000	96.335750 
1121.000000	96.285389 
1120.000000	96.237975 
1119.000000	96.190283 
1118.000000	96.140232 
1117.000000	96.087964 
1116.000000	96.036902 
1115.000000	95.990049 
1114.000000	95.945519 
1113.000000	95.899562 
1112.000000	95.853210 
1111.000000	95.811020 
1110.000000	95.773074 
1109.000000	95.733260 
1108.000000	95.686594 
1107.000000	95.634071 
1106.000000	95.579626 
1105.000000	95.526159 
1104.000000	95.475188 
1103.000000	95.427137 
1102.000000	95.380504 
1101.000000	95.333519 
1100.000000	95.286667 
1099.000000	95.241465 
1098.000000	95.199216 
1097.000000	95.160621 
1096.000000	95.125513 
1095.000000	95.089874 
1094.000000	95.045940 
1093.000000	94.989302 
1092.000000	94.924712 
1091.000000	94.861358 
1090.000000	94.803206 
1089.000000	94.747538 
1088.000000	94.691125 
1087.000000	94.632743 
1086.000000	94.570817 
1085.000000	94.504329 
1084.000000	94.436398 
1083.000000	94.372100 
1082.000000	94.312235 
1081.000000	94.253906 
1080.000000	94.197277 
1079.000000	94.146174 
1078.000000	94.101203 
1077.000000	94.058302 
1076.000000	94.015701 
1075.000000	93.976609 
1074.000000	93.943378 
1073.000000	93.914203 
1072.000000	93.885573 
1071.000000	93.850858 
1070.000000	93.796656 
1069.000000	93.711382 
1068.000000	93.602320 
1067.000000	93.497201 
1066.000000	93.422324 
1065.000000	93.382643 
1064.000000	93.364983 
1063.000000	93.351320 
1062.000000	93.324021 
1061.000000	93.267876 
1060.000000	93.178809 
1059.000000	93.070617 
1058.000000	92.966236 
1057.000000	92.879868 
1056.000000	92.809003 
1055.000000	92.741014 
1054.000000	92.664240 
1053.000000	92.575424 
1052.000000	92.480369 
1051.000000	92.387167 
1050.000000	92.297778 
1049.000000	92.207760 
1048.000000	92.113357 
1047.000000	92.014993 
1046.000000	91.914673 
1045.000000	91.814666 
1044.000000	91.718434 
1043.000000	91.628446 
1042.000000	91.543032 
1041.000000	91.458978 
1040.000000	91.376733 
1039.000000	91.299962 
1038.000000	91.231856 
1037.000000	91.175394 
1036.000000	91.133894 
1035.000000	91.106491 
1034.000000	91.086440 
1033.000000	91.068372 
1032.000000	91.051660 
1031.000000	91.031393 
1030.000000	90.995627 
1029.000000	90.943233 
1028.000000	90.897390 
1027.000000	90.886079 
1026.000000	90.910843 
1025.000000	90.946698 
1024.000000	90.971592 
1023.000000	90.983767 
1022.000000	90.991060 
1021.000000	90.998120 
1020.000000	91.006944 
1019.000000	91.017772 
1018.000000	91.025564 
1017.000000	91.024597 
1016.000000	91.018798 
1015.000000	91.019272 
1014.000000	91.030660 
1013.000000	91.048199 
1012.000000	91.067908 
1011.000000	91.089977 
1010.000000	91.112239 
1009.000000	91.131237 
1008.000000	91.151379 
1007.000000	91.183364 
1006.000000	91.231386 
1005.000000	91.289589 
1004.000000	91.351263 
1003.000000	91.413309 
1002.000000	91.472599 
1001.000000	91.528184 
1000.000000	91.587555 
999.000000	 91.660634 
998.000000	 91.745947 
997.000000	 91.831198 
996.000000	 91.908558 
995.000000	 91.981428 
994.000000	 92.055999 
993.000000	 92.134743 
992.000000	 92.218066 
991.000000	 92.303281 
990.000000	 92.381982 
989.000000	 92.448009 
988.000000	 92.508497 
987.000000	 92.577738 
986.000000	 92.659868 
985.000000	 92.747254 
984.000000	 92.835722 
983.000000	 92.929976 
982.000000	 93.032262 
981.000000	 93.136694 
980.000000	 93.238179 
979.000000	 93.337800 
978.000000	 93.436153 
977.000000	 93.530355 
976.000000	 93.621173 
975.000000	 93.714817 
974.000000	 93.813664 
973.000000	 93.912243 
972.000000	 94.005789 
971.000000	 94.096171 
970.000000	 94.186244 
969.000000	 94.274613 
968.000000	 94.359229 
967.000000	 94.440975 
966.000000	 94.521416 
965.000000	 94.601855 
964.000000	 94.685490 
963.000000	 94.774502 
962.000000	 94.864021 
961.000000	 94.945529 
960.000000	 95.017436 
959.000000	 95.085833 
958.000000	 95.153724 
957.000000	 95.216757 
956.000000	 95.272059 
955.000000	 95.324018 
954.000000	 95.377787 
953.000000	 95.433034 
952.000000	 95.487384 
951.000000	 95.540184 
950.000000	 95.589600 
949.000000	 95.631551 
948.000000	 95.665358 
947.000000	 95.696214 
946.000000	 95.728810 
945.000000	 95.761949 
944.000000	 95.791894 
943.000000	 95.817314 
942.000000	 95.838701 
941.000000	 95.856944 
940.000000	 95.874864 
939.000000	 95.896425 
938.000000	 95.922233 
937.000000	 95.949085 
936.000000	 95.975232 
935.000000	 96.002250 
934.000000	 96.030539 
933.000000	 96.057340 
932.000000	 96.080895 
931.000000	 96.102676 
930.000000	 96.123840 
929.000000	 96.143203 
928.000000	 96.160609 
927.000000	 96.178794 
926.000000	 96.199452 
925.000000	 96.219546 
924.000000	 96.233332 
923.000000	 96.237197 
922.000000	 96.233087 
921.000000	 96.228962 
920.000000	 96.234100 
919.000000	 96.250561 
918.000000	 96.269848 
917.000000	 96.281271 
916.000000	 96.283174 
915.000000	 96.283025 
914.000000	 96.288313 
913.000000	 96.301463 
912.000000	 96.321888 
911.000000	 96.347684 
910.000000	 96.375692 
909.000000	 96.404608 
908.000000	 96.437754 
907.000000	 96.479267 
906.000000	 96.529044 
905.000000	 96.584951 
904.000000	 96.646947 
903.000000	 96.713744 
902.000000	 96.778408 
901.000000	 96.834261 
900.000000	 96.883909 
899.000000	 96.936312 
898.000000	 96.995697 
897.000000	 97.057965 
896.000000	 97.116243 
895.000000	 97.164874 
894.000000	 97.200765 
893.000000	 97.227631 
892.000000	 97.257443 
891.000000	 97.300638 
890.000000	 97.354733 
889.000000	 97.407804 
888.000000	 97.451858 
887.000000	 97.487466 
886.000000	 97.518054 
885.000000	 97.546736 
884.000000	 97.576807 
883.000000	 97.607783 
882.000000	 97.632787 
881.000000	 97.648528 
880.000000	 97.666507 
879.000000	 97.703846 
878.000000	 97.761645 
877.000000	 97.821833 
876.000000	 97.867355 
875.000000	 97.896340 
874.000000	 97.915560 
873.000000	 97.931337 
872.000000	 97.950204 
871.000000	 97.978085 
870.000000	 98.012949 
869.000000	 98.045573 
868.000000	 98.072067 
867.000000	 98.098766 
866.000000	 98.131203 
865.000000	 98.165824 
864.000000	 98.197722 
863.000000	 98.229675 
862.000000	 98.267027 
861.000000	 98.308257 
860.000000	 98.347190 
859.000000	 98.381774 
858.000000	 98.415436 
857.000000	 98.451330 
856.000000	 98.488671 
855.000000	 98.522970 
854.000000	 98.547618 
853.000000	 98.558195 
852.000000	 98.558098 
851.000000	 98.557755 
850.000000	 98.566029 
849.000000	 98.584325 
848.000000	 98.609266 
847.000000	 98.636408 
846.000000	 98.660434 
845.000000	 98.677405 
844.000000	 98.689168 
843.000000	 98.701065 
842.000000	 98.713591 
841.000000	 98.721097 
840.000000	 98.720019 
839.000000	 98.712869 
838.000000	 98.702809 
837.000000	 98.690596 
836.000000	 98.679261 
835.000000	 98.675064 
834.000000	 98.679525 
833.000000	 98.685856 
832.000000	 98.687004 
831.000000	 98.682258 
830.000000	 98.673341 
829.000000	 98.660728 
828.000000	 98.648649 
827.000000	 98.647118 
826.000000	 98.661641 
825.000000	 98.685192 
824.000000	 98.706665 
823.000000	 98.722688 
822.000000	 98.735752 
821.000000	 98.746998 
820.000000	 98.757279 
819.000000	 98.769558 
818.000000	 98.783238 
817.000000	 98.789780 
816.000000	 98.780119 
815.000000	 98.755033 
814.000000	 98.724120 
813.000000	 98.695462 
812.000000	 98.669455 
811.000000	 98.641024 
810.000000	 98.603316 
809.000000	 98.549621 
808.000000	 98.476098 
807.000000	 98.385172 
806.000000	 98.285754 
805.000000	 98.188729 
804.000000	 98.100901 
803.000000	 98.022020 
802.000000	 97.948149 
801.000000	 97.879760 
800.000000	 97.825181 
799.000000	 97.793300 
798.000000	 97.784535 
797.000000	 97.792277 
796.000000	 97.810732 
795.000000	 97.836238 
794.000000	 97.863183 
793.000000	 97.885930 
792.000000	 97.904562 
791.000000	 97.922835 
790.000000	 97.941025 
789.000000	 97.956161 
788.000000	 97.967486 
787.000000	 97.974943 
786.000000	 97.973646 
785.000000	 97.957036 
784.000000	 97.925601 
783.000000	 97.886535 
782.000000	 97.845947 
781.000000	 97.808393 
780.000000	 97.782036 
779.000000	 97.774586 
778.000000	 97.783732 
777.000000	 97.800560 
776.000000	 97.823361 
775.000000	 97.858579 
774.000000	 97.906302 
773.000000	 97.954657 
772.000000	 97.992311 
771.000000	 98.019004 
770.000000	 98.040809 
769.000000	 98.062126 
768.000000	 98.084405 
767.000000	 98.105316 
766.000000	 98.117259 
765.000000	 98.114688 
764.000000	 98.105032 
763.000000	 98.103799 
762.000000	 98.115720 
761.000000	 98.129408 
760.000000	 98.134453 
759.000000	 98.135143 
758.000000	 98.142172 
757.000000	 98.159251 
756.000000	 98.184318 
755.000000	 98.216236 
754.000000	 98.251929 
753.000000	 98.281296 
752.000000	 98.293802 
751.000000	 98.290206 
750.000000	 98.283667 
749.000000	 98.288649 
748.000000	 98.309919 
747.000000	 98.340457 
746.000000	 98.367293 
745.000000	 98.381872 
744.000000	 98.387365 
743.000000	 98.395317 
742.000000	 98.414080 
741.000000	 98.442181 
740.000000	 98.472973 
739.000000	 98.501999 
738.000000	 98.528111 
737.000000	 98.550615 
736.000000	 98.568490 
735.000000	 98.581556 
734.000000	 98.591064 
733.000000	 98.600011 
732.000000	 98.612261 
731.000000	 98.628504 
730.000000	 98.643455 
729.000000	 98.650934 
728.000000	 98.650789 
727.000000	 98.647567 
726.000000	 98.645156 
725.000000	 98.646661 
724.000000	 98.656494 
723.000000	 98.676233 
722.000000	 98.699392 
721.000000	 98.716882 
720.000000	 98.727667 
719.000000	 98.737718 
718.000000	 98.748708 
717.000000	 98.756151 
716.000000	 98.758691 
715.000000	 98.759517 
714.000000	 98.757923 
713.000000	 98.749250 
712.000000	 98.735781 
711.000000	 98.728626 
710.000000	 98.734765 
709.000000	 98.750182 
708.000000	 98.767104 
707.000000	 98.779726 
706.000000	 98.782811 
705.000000	 98.773084 
704.000000	 98.755086 
703.000000	 98.740028 
702.000000	 98.733781 
701.000000	 98.730639 
700.000000	 98.722194 
699.000000	 98.706599 
698.000000	 98.687529 
697.000000	 98.668885 
696.000000	 98.653699 
695.000000	 98.645627 
694.000000	 98.646664 
693.000000	 98.655169 
692.000000	 98.668745 
691.000000	 98.686166 
690.000000	 98.705753 
689.000000	 98.723879 
688.000000	 98.736736 
687.000000	 98.742999 
686.000000	 98.743585 
685.000000	 98.740957 
684.000000	 98.739130 
683.000000	 98.741310 
682.000000	 98.747012 
681.000000	 98.752992 
680.000000	 98.756723 
679.000000	 98.757537 
678.000000	 98.755520 
677.000000	 98.752130 
676.000000	 98.750254 
675.000000	 98.751789 
674.000000	 98.755446 
673.000000	 98.757839 
672.000000	 98.756809 
671.000000	 98.752412 
670.000000	 98.745607 
669.000000	 98.737735 
668.000000	 98.733516 
667.000000	 98.737322 
666.000000	 98.745343 
665.000000	 98.750445 
664.000000	 98.752214 
663.000000	 98.752509 
662.000000	 98.753157 
661.000000	 98.754606 
660.000000	 98.756503 
659.000000	 98.758761 
658.000000	 98.760976 
657.000000	 98.761906 
656.000000	 98.760750 
655.000000	 98.758435 
654.000000	 98.756307 
653.000000	 98.754059 
652.000000	 98.750792 
651.000000	 98.747288 
650.000000	 98.745516 

