4000.000000	96.708444 
3999.000000	96.708621 
3998.000000	96.705962 
3997.000000	96.700989 
3996.000000	96.695432 
3995.000000	96.691034 
3994.000000	96.688784 
3993.000000	96.688771 
3992.000000	96.690078 
3991.000000	96.691420 
3990.000000	96.692019 
3989.000000	96.691621 
3988.000000	96.690106 
3987.000000	96.687584 
3986.000000	96.684864 
3985.000000	96.683133 
3984.000000	96.682832 
3983.000000	96.683400 
3982.000000	96.684208 
3981.000000	96.685143 
3980.000000	96.686013 
3979.000000	96.685992 
3978.000000	96.684485 
3977.000000	96.682317 
3976.000000	96.681064 
3975.000000	96.681096 
3974.000000	96.681081 
3973.000000	96.679657 
3972.000000	96.676766 
3971.000000	96.673277 
3970.000000	96.670226 
3969.000000	96.668503 
3968.000000	96.668651 
3967.000000	96.670445 
3966.000000	96.672832 
3965.000000	96.674412 
3964.000000	96.674147 
3963.000000	96.671897 
3962.000000	96.668572 
3961.000000	96.665727 
3960.000000	96.664228 
3959.000000	96.663439 
3958.000000	96.662455 
3957.000000	96.661123 
3956.000000	96.659554 
3955.000000	96.657079 
3954.000000	96.652702 
3953.000000	96.646435 
3952.000000	96.639693 
3951.000000	96.634605 
3950.000000	96.632609 
3949.000000	96.633441 
3948.000000	96.635202 
3947.000000	96.635994 
3946.000000	96.635316 
3945.000000	96.633879 
3944.000000	96.632903 
3943.000000	96.633531 
3942.000000	96.636164 
3941.000000	96.640042 
3940.000000	96.643340 
3939.000000	96.644070 
3938.000000	96.641905 
3937.000000	96.638105 
3936.000000	96.633885 
3935.000000	96.629315 
3934.000000	96.624655 
3933.000000	96.621780 
3932.000000	96.622269 
3931.000000	96.624905 
3930.000000	96.626442 
3929.000000	96.625239 
3928.000000	96.622870 
3927.000000	96.621281 
3926.000000	96.620330 
3925.000000	96.619212 
3924.000000	96.618394 
3923.000000	96.618160 
3922.000000	96.617057 
3921.000000	96.614323 
3920.000000	96.612270 
3919.000000	96.613575 
3918.000000	96.617539 
3917.000000	96.621104 
3916.000000	96.622804 
3915.000000	96.623455 
3914.000000	96.623520 
3913.000000	96.622442 
3912.000000	96.620520 
3911.000000	96.618191 
3910.000000	96.615762 
3909.000000	96.613224 
3908.000000	96.611011 
3907.000000	96.609566 
3906.000000	96.608865 
3905.000000	96.608552 
3904.000000	96.608412 
3903.000000	96.608380 
3902.000000	96.608263 
3901.000000	96.607917 
3900.000000	96.607452 
3899.000000	96.606972 
3898.000000	96.606486 
3897.000000	96.606009 
3896.000000	96.605546 
3895.000000	96.605082 
3894.000000	96.604598 
3893.000000	96.604089 
3892.000000	96.603552 
3891.000000	96.602984 
3890.000000	96.602390 
3889.000000	96.601786 
3888.000000	96.601174 
3887.000000	96.600554 
3886.000000	96.599934 
3885.000000	96.599333 
3884.000000	96.598766 
3883.000000	96.598227 
3882.000000	96.597698 
3881.000000	96.597183 
3880.000000	96.596694 
3879.000000	96.596239 
3878.000000	96.595800 
3877.000000	96.595349 
3876.000000	96.594872 
3875.000000	96.594390 
3874.000000	96.593939 
3873.000000	96.593544 
3872.000000	96.593199 
3871.000000	96.592879 
3870.000000	96.592584 
3869.000000	96.592343 
3868.000000	96.592175 
3867.000000	96.592055 
3866.000000	96.591942 
3865.000000	96.591835 
3864.000000	96.591753 
3863.000000	96.591687 
3862.000000	96.591603 
3861.000000	96.591491 
3860.000000	96.591370 
3859.000000	96.591264 
3858.000000	96.591175 
3857.000000	96.591100 
3856.000000	96.591043 
3855.000000	96.591007 
3854.000000	96.590974 
3853.000000	96.590942 
3852.000000	96.590965 
3851.000000	96.591110 
3850.000000	96.591371 
3849.000000	96.591700 
3848.000000	96.592059 
3847.000000	96.592427 
3846.000000	96.592804 
3845.000000	96.593194 
3844.000000	96.593591 
3843.000000	96.593978 
3842.000000	96.594345 
3841.000000	96.594701 
3840.000000	96.595057 
3839.000000	96.595408 
3838.000000	96.595738 
3837.000000	96.596041 
3836.000000	96.596335 
3835.000000	96.596638 
3834.000000	96.596955 
3833.000000	96.597277 
3832.000000	96.597593 
3831.000000	96.597903 
3830.000000	96.598212 
3829.000000	96.598525 
3828.000000	96.598839 
3827.000000	96.599141 
3826.000000	96.599422 
3825.000000	96.599694 
3824.000000	96.599970 
3823.000000	96.600244 
3822.000000	96.600494 
3821.000000	96.600716 
3820.000000	96.600952 
3819.000000	96.601234 
3818.000000	96.601529 
3817.000000	96.601781 
3816.000000	96.601973 
3815.000000	96.602144 
3814.000000	96.602333 
3813.000000	96.602538 
3812.000000	96.602738 
3811.000000	96.602934 
3810.000000	96.603129 
3809.000000	96.603283 
3808.000000	96.603347 
3807.000000	96.603315 
3806.000000	96.603239 
3805.000000	96.603177 
3804.000000	96.603134 
3803.000000	96.603072 
3802.000000	96.602974 
3801.000000	96.602865 
3800.000000	96.602789 
3799.000000	96.602754 
3798.000000	96.602724 
3797.000000	96.602675 
3796.000000	96.602615 
3795.000000	96.602552 
3794.000000	96.602479 
3793.000000	96.602372 
3792.000000	96.602209 
3791.000000	96.601975 
3790.000000	96.601662 
3789.000000	96.601274 
3788.000000	96.600818 
3787.000000	96.600297 
3786.000000	96.599704 
3785.000000	96.599038 
3784.000000	96.598316 
3783.000000	96.597550 
3782.000000	96.596723 
3781.000000	96.595812 
3780.000000	96.594808 
3779.000000	96.593718 
3778.000000	96.592538 
3777.000000	96.591266 
3776.000000	96.589924 
3775.000000	96.588560 
3774.000000	96.587209 
3773.000000	96.585859 
3772.000000	96.584464 
3771.000000	96.582987 
3770.000000	96.581420 
3769.000000	96.579779 
3768.000000	96.578074 
3767.000000	96.576309 
3766.000000	96.574504 
3765.000000	96.572686 
3764.000000	96.570875 
3763.000000	96.569062 
3762.000000	96.567223 
3761.000000	96.565365 
3760.000000	96.563513 
3759.000000	96.561679 
3758.000000	96.559841 
3757.000000	96.557977 
3756.000000	96.556087 
3755.000000	96.554190 
3754.000000	96.552292 
3753.000000	96.550392 
3752.000000	96.548493 
3751.000000	96.546596 
3750.000000	96.544704 
3749.000000	96.542850 
3748.000000	96.541081 
3747.000000	96.539415 
3746.000000	96.537821 
3745.000000	96.536263 
3744.000000	96.534734 
3743.000000	96.533257 
3742.000000	96.531831 
3741.000000	96.530409 
3740.000000	96.528971 
3739.000000	96.527533 
3738.000000	96.526137 
3737.000000	96.524835 
3736.000000	96.523663 
3735.000000	96.522645 
3734.000000	96.521749 
3733.000000	96.520813 
3732.000000	96.519693 
3731.000000	96.518322 
3730.000000	96.516883 
3729.000000	96.515494 
3728.000000	96.514045 
3727.000000	96.512533 
3726.000000	96.511278 
3725.000000	96.510602 
3724.000000	96.510271 
3723.000000	96.509746 
3722.000000	96.508938 
3721.000000	96.508212 
3720.000000	96.507787 
3719.000000	96.507122 
3718.000000	96.505439 
3717.000000	96.502794 
3716.000000	96.500159 
3715.000000	96.498001 
3714.000000	96.495712 
3713.000000	96.492945 
3712.000000	96.490019 
3711.000000	96.487199 
3710.000000	96.484754 
3709.000000	96.482620 
3708.000000	96.480078 
3707.000000	96.476682 
3706.000000	96.472923 
3705.000000	96.469344 
3704.000000	96.465686 
3703.000000	96.461093 
3702.000000	96.454673 
3701.000000	96.446590 
3700.000000	96.438992 
3699.000000	96.433651 
3698.000000	96.429489 
3697.000000	96.425020 
3696.000000	96.420853 
3695.000000	96.417767 
3694.000000	96.414348 
3693.000000	96.409425 
3692.000000	96.405039 
3691.000000	96.403518 
3690.000000	96.402078 
3689.000000	96.394472 
3688.000000	96.381168 
3687.000000	96.370697 
3686.000000	96.366798 
3685.000000	96.363636 
3684.000000	96.356913 
3683.000000	96.349038 
3682.000000	96.342669 
3681.000000	96.335182 
3680.000000	96.323438 
3679.000000	96.310929 
3678.000000	96.301819 
3677.000000	96.293384 
3676.000000	96.278727 
3675.000000	96.258427 
3674.000000	96.245824 
3673.000000	96.245191 
3672.000000	96.242615 
3671.000000	96.230045 
3670.000000	96.213007 
3669.000000	96.199298 
3668.000000	96.191633 
3667.000000	96.185491 
3666.000000	96.176759 
3665.000000	96.167237 
3664.000000	96.159444 
3663.000000	96.151132 
3662.000000	96.138022 
3661.000000	96.119688 
3660.000000	96.100711 
3659.000000	96.085753 
3658.000000	96.073342 
3657.000000	96.056891 
3656.000000	96.032039 
3655.000000	96.005822 
3654.000000	95.985033 
3653.000000	95.962083 
3652.000000	95.929085 
3651.000000	95.894789 
3650.000000	95.872510 
3649.000000	95.860790 
3648.000000	95.850724 
3647.000000	95.842750 
3646.000000	95.842481 
3645.000000	95.847871 
3644.000000	95.851438 
3643.000000	95.849145 
3642.000000	95.843920 
3641.000000	95.838803 
3640.000000	95.830750 
3639.000000	95.813781 
3638.000000	95.788303 
3637.000000	95.761932 
3636.000000	95.737235 
3635.000000	95.708202 
3634.000000	95.672373 
3633.000000	95.638435 
3632.000000	95.613201 
3631.000000	95.592542 
3630.000000	95.573847 
3629.000000	95.558208 
3628.000000	95.550142 
3627.000000	95.558525 
3626.000000	95.573174 
3625.000000	95.575626 
3624.000000	95.569191 
3623.000000	95.566648 
3622.000000	95.568598 
3621.000000	95.564720 
3620.000000	95.549103 
3619.000000	95.525647 
3618.000000	95.504108 
3617.000000	95.493368 
3616.000000	95.492819 
3615.000000	95.495571 
3614.000000	95.499056 
3613.000000	95.507072 
3612.000000	95.523173 
3611.000000	95.544170 
3610.000000	95.562260 
3609.000000	95.575016 
3608.000000	95.587133 
3607.000000	95.601649 
3606.000000	95.615139 
3605.000000	95.622675 
3604.000000	95.625478 
3603.000000	95.629428 
3602.000000	95.636236 
3601.000000	95.641162 
3600.000000	95.640356 
3599.000000	95.634572 
3598.000000	95.626302 
3597.000000	95.619689 
3596.000000	95.618008 
3595.000000	95.620899 
3594.000000	95.624685 
3593.000000	95.626117 
3592.000000	95.623543 
3591.000000	95.616757 
3590.000000	95.608079 
3589.000000	95.604248 
3588.000000	95.611986 
3587.000000	95.630395 
3586.000000	95.651481 
3585.000000	95.666859 
3584.000000	95.673199 
3583.000000	95.673042 
3582.000000	95.670920 
3581.000000	95.669082 
3580.000000	95.667065 
3579.000000	95.664299 
3578.000000	95.661155 
3577.000000	95.658739 
3576.000000	95.657878 
3575.000000	95.658386 
3574.000000	95.659033 
3573.000000	95.657749 
3572.000000	95.652287 
3571.000000	95.641397 
3570.000000	95.626124 
3569.000000	95.611023 
3568.000000	95.603177 
3567.000000	95.606652 
3566.000000	95.618626 
3565.000000	95.631943 
3564.000000	95.641031 
3563.000000	95.645258 
3562.000000	95.647344 
3561.000000	95.649667 
3560.000000	95.652161 
3559.000000	95.653263 
3558.000000	95.651985 
3557.000000	95.648780 
3556.000000	95.645144 
3555.000000	95.642422 
3554.000000	95.641035 
3553.000000	95.640516 
3552.000000	95.639944 
3551.000000	95.638335 
3550.000000	95.635106 
3549.000000	95.630941 
3548.000000	95.628406 
3547.000000	95.630066 
3546.000000	95.635431 
3545.000000	95.640926 
3544.000000	95.643475 
3543.000000	95.642945 
3542.000000	95.641002 
3541.000000	95.639219 
3540.000000	95.638536 
3539.000000	95.639297 
3538.000000	95.641224 
3537.000000	95.643535 
3536.000000	95.645378 
3535.000000	95.646245 
3534.000000	95.645917 
3533.000000	95.644576 
3532.000000	95.643004 
3531.000000	95.642272 
3530.000000	95.642624 
3529.000000	95.643005 
3528.000000	95.642183 
3527.000000	95.640305 
3526.000000	95.638745 
3525.000000	95.638756 
3524.000000	95.640624 
3523.000000	95.643669 
3522.000000	95.647074 
3521.000000	95.650398 
3520.000000	95.653704 
3519.000000	95.657203 
3518.000000	95.660494 
3517.000000	95.662378 
3516.000000	95.661681 
3515.000000	95.658430 
3514.000000	95.654219 
3513.000000	95.651042 
3512.000000	95.649674 
3511.000000	95.649677 
3510.000000	95.650517 
3509.000000	95.652225 
3508.000000	95.654858 
3507.000000	95.657667 
3506.000000	95.659317 
3505.000000	95.659263 
3504.000000	95.658661 
3503.000000	95.659479 
3502.000000	95.662500 
3501.000000	95.666394 
3500.000000	95.668799 
3499.000000	95.668334 
3498.000000	95.665500 
3497.000000	95.662218 
3496.000000	95.660283 
3495.000000	95.659944 
3494.000000	95.660170 
3493.000000	95.660021 
3492.000000	95.659423 
3491.000000	95.658812 
3490.000000	95.658466 
3489.000000	95.658278 
3488.000000	95.657918 
3487.000000	95.657003 
3486.000000	95.655329 
3485.000000	95.653271 
3484.000000	95.651791 
3483.000000	95.651656 
3482.000000	95.652541 
3481.000000	95.653180 
3480.000000	95.652461 
3479.000000	95.650214 
3478.000000	95.647092 
3477.000000	95.643964 
3476.000000	95.641353 
3475.000000	95.639145 
3474.000000	95.636873 
3473.000000	95.634527 
3472.000000	95.632837 
3471.000000	95.632492 
3470.000000	95.633190 
3469.000000	95.633666 
3468.000000	95.632858 
3467.000000	95.630754 
3466.000000	95.628000 
3465.000000	95.624841 
3464.000000	95.620799 
3463.000000	95.615590 
3462.000000	95.610010 
3461.000000	95.605505 
3460.000000	95.602934 
3459.000000	95.601923 
3458.000000	95.601403 
3457.000000	95.600539 
3456.000000	95.599060 
3455.000000	95.597088 
3454.000000	95.594700 
3453.000000	95.591772 
3452.000000	95.588247 
3451.000000	95.584408 
3450.000000	95.580699 
3449.000000	95.577502 
3448.000000	95.575126 
3447.000000	95.573727 
3446.000000	95.573082 
3445.000000	95.572644 
3444.000000	95.571979 
3443.000000	95.571054 
3442.000000	95.569916 
3441.000000	95.568307 
3440.000000	95.565944 
3439.000000	95.562984 
3438.000000	95.559945 
3437.000000	95.557153 
3436.000000	95.554573 
3435.000000	95.552208 
3434.000000	95.550290 
3433.000000	95.548996 
3432.000000	95.548180 
3431.000000	95.547505 
3430.000000	95.546655 
3429.000000	95.545403 
3428.000000	95.543591 
3427.000000	95.541154 
3426.000000	95.538238 
3425.000000	95.535288 
3424.000000	95.532889 
3423.000000	95.531369 
3422.000000	95.530514 
3421.000000	95.529668 
3420.000000	95.528288 
3419.000000	95.526317 
3418.000000	95.524056 
3417.000000	95.521945 
3416.000000	95.520465 
3415.000000	95.519930 
3414.000000	95.520067 
3413.000000	95.519940 
3412.000000	95.518720 
3411.000000	95.516497 
3410.000000	95.514189 
3409.000000	95.512675 
3408.000000	95.512098 
3407.000000	95.511834 
3406.000000	95.510935 
3405.000000	95.508753 
3404.000000	95.505454 
3403.000000	95.502078 
3402.000000	95.499856 
3401.000000	95.499330 
3400.000000	95.500027 
3399.000000	95.500942 
3398.000000	95.501359 
3397.000000	95.501211 
3396.000000	95.500754 
3395.000000	95.500158 
3394.000000	95.499488 
3393.000000	95.498722 
3392.000000	95.497492 
3391.000000	95.495080 
3390.000000	95.491265 
3389.000000	95.487203 
3388.000000	95.484823 
3387.000000	95.485006 
3386.000000	95.486669 
3385.000000	95.487960 
3384.000000	95.488284 
3383.000000	95.488881 
3382.000000	95.491509 
3381.000000	95.496751 
3380.000000	95.503248 
3379.000000	95.508628 
3378.000000	95.511665 
3377.000000	95.513393 
3376.000000	95.515618 
3375.000000	95.518349 
3374.000000	95.519568 
3373.000000	95.517809 
3372.000000	95.514183 
3371.000000	95.511326 
3370.000000	95.510757 
3369.000000	95.511778 
3368.000000	95.512578 
3367.000000	95.511744 
3366.000000	95.508850 
3365.000000	95.504405 
3364.000000	95.499748 
3363.000000	95.496786 
3362.000000	95.497198 
3361.000000	95.501454 
3360.000000	95.508425 
3359.000000	95.516032 
3358.000000	95.522685 
3357.000000	95.528194 
3356.000000	95.533154 
3355.000000	95.537691 
3354.000000	95.541260 
3353.000000	95.543535 
3352.000000	95.544790 
3351.000000	95.545161 
3350.000000	95.544241 
3349.000000	95.541863 
3348.000000	95.538937 
3347.000000	95.536905 
3346.000000	95.536318 
3345.000000	95.536508 
3344.000000	95.536550 
3343.000000	95.536277 
3342.000000	95.536472 
3341.000000	95.538258 
3340.000000	95.542155 
3339.000000	95.547388 
3338.000000	95.552189 
3337.000000	95.555181 
3336.000000	95.556475 
3335.000000	95.557183 
3334.000000	95.557969 
3333.000000	95.558438 
3332.000000	95.558004 
3331.000000	95.556787 
3330.000000	95.555409 
3329.000000	95.554311 
3328.000000	95.553781 
3327.000000	95.554382 
3326.000000	95.556671 
3325.000000	95.560349 
3324.000000	95.563999 
3323.000000	95.566132 
3322.000000	95.566556 
3321.000000	95.566408 
3320.000000	95.566960 
3319.000000	95.568513 
3318.000000	95.570480 
3317.000000	95.572260 
3316.000000	95.573884 
3315.000000	95.575846 
3314.000000	95.578428 
3313.000000	95.581251 
3312.000000	95.583501 
3311.000000	95.584657 
3310.000000	95.585072 
3309.000000	95.585744 
3308.000000	95.587304 
3307.000000	95.589225 
3306.000000	95.590205 
3305.000000	95.589467 
3304.000000	95.587617 
3303.000000	95.586247 
3302.000000	95.586621 
3301.000000	95.588783 
3300.000000	95.591704 
3299.000000	95.594164 
3298.000000	95.595651 
3297.000000	95.596542 
3296.000000	95.597552 
3295.000000	95.599055 
3294.000000	95.600947 
3293.000000	95.602999 
3292.000000	95.605161 
3291.000000	95.607537 
3290.000000	95.610201 
3289.000000	95.613070 
3288.000000	95.615884 
3287.000000	95.618270 
3286.000000	95.619834 
3285.000000	95.620294 
3284.000000	95.619647 
3283.000000	95.618376 
3282.000000	95.617465 
3281.000000	95.617762 
3280.000000	95.619098 
3279.000000	95.620318 
3278.000000	95.620568 
3277.000000	95.620332 
3276.000000	95.620793 
3275.000000	95.622480 
3274.000000	95.625164 
3273.000000	95.628877 
3272.000000	95.634141 
3271.000000	95.640879 
3270.000000	95.647645 
3269.000000	95.652470 
3268.000000	95.654436 
3267.000000	95.654084 
3266.000000	95.652770 
3265.000000	95.651804 
3264.000000	95.651861 
3263.000000	95.652946 
3262.000000	95.654779 
3261.000000	95.657099 
3260.000000	95.659628 
3259.000000	95.661966 
3258.000000	95.663820 
3257.000000	95.665358 
3256.000000	95.667099 
3255.000000	95.669324 
3254.000000	95.671751 
3253.000000	95.673956 
3252.000000	95.675939 
3251.000000	95.678012 
3250.000000	95.680187 
3249.000000	95.681992 
3248.000000	95.683053 
3247.000000	95.683683 
3246.000000	95.684747 
3245.000000	95.686930 
3244.000000	95.690199 
3243.000000	95.693899 
3242.000000	95.697251 
3241.000000	95.699703 
3240.000000	95.700965 
3239.000000	95.701061 
3238.000000	95.700581 
3237.000000	95.700677 
3236.000000	95.702419 
3235.000000	95.705985 
3234.000000	95.710385 
3233.000000	95.714049 
3232.000000	95.715854 
3231.000000	95.715689 
3230.000000	95.714408 
3229.000000	95.713377 
3228.000000	95.713852 
3227.000000	95.716582 
3226.000000	95.721676 
3225.000000	95.728532 
3224.000000	95.735909 
3223.000000	95.742344 
3222.000000	95.746777 
3221.000000	95.748864 
3220.000000	95.748752 
3219.000000	95.746786 
3218.000000	95.743567 
3217.000000	95.740045 
3216.000000	95.737223 
3215.000000	95.735790 
3214.000000	95.736061 
3213.000000	95.738092 
3212.000000	95.741706 
3211.000000	95.746616 
3210.000000	95.752688 
3209.000000	95.759880 
3208.000000	95.767664 
3207.000000	95.774700 
3206.000000	95.779439 
3205.000000	95.781122 
3204.000000	95.780118 
3203.000000	95.777477 
3202.000000	95.774372 
3201.000000	95.771754 
3200.000000	95.770296 
3199.000000	95.770582 
3198.000000	95.773182 
3197.000000	95.778129 
3196.000000	95.784284 
3195.000000	95.789811 
3194.000000	95.793707 
3193.000000	95.796494 
3192.000000	95.799061 
3191.000000	95.801220 
3190.000000	95.801980 
3189.000000	95.801057 
3188.000000	95.799509 
3187.000000	95.798834 
3186.000000	95.799875 
3185.000000	95.802484 
3184.000000	95.805817 
3183.000000	95.809209 
3182.000000	95.813021 
3181.000000	95.818227 
3180.000000	95.824947 
3179.000000	95.831719 
3178.000000	95.836634 
3177.000000	95.838938 
3176.000000	95.839218 
3175.000000	95.838584 
3174.000000	95.838114 
3173.000000	95.838753 
3172.000000	95.840954 
3171.000000	95.844267 
3170.000000	95.847722 
3169.000000	95.850708 
3168.000000	95.853206 
3167.000000	95.855264 
3166.000000	95.856812 
3165.000000	95.858137 
3164.000000	95.860014 
3163.000000	95.863065 
3162.000000	95.867230 
3161.000000	95.872004 
3160.000000	95.876954 
3159.000000	95.881735 
3158.000000	95.885806 
3157.000000	95.888520 
3156.000000	95.889596 
3155.000000	95.889435 
3154.000000	95.888998 
3153.000000	95.889294 
3152.000000	95.890722 
3151.000000	95.892748 
3150.000000	95.894313 
3149.000000	95.894820 
3148.000000	95.894814 
3147.000000	95.895709 
3146.000000	95.898759 
3145.000000	95.904187 
3144.000000	95.910948 
3143.000000	95.917175 
3142.000000	95.921336 
3141.000000	95.923141 
3140.000000	95.923536 
3139.000000	95.923999 
3138.000000	95.925591 
3137.000000	95.928491 
3136.000000	95.932048 
3135.000000	95.935230 
3134.000000	95.937353 
3133.000000	95.938470 
3132.000000	95.938977 
3131.000000	95.938991 
3130.000000	95.938454 
3129.000000	95.937820 
3128.000000	95.938149 
3127.000000	95.940326 
3126.000000	95.944422 
3125.000000	95.949785 
3124.000000	95.955551 
3123.000000	95.960920 
3122.000000	95.965278 
3121.000000	95.968469 
3120.000000	95.970828 
3119.000000	95.972728 
3118.000000	95.974207 
3117.000000	95.975206 
3116.000000	95.975926 
3115.000000	95.976630 
3114.000000	95.977273 
3113.000000	95.977698 
3112.000000	95.978221 
3111.000000	95.979729 
3110.000000	95.982915 
3109.000000	95.987492 
3108.000000	95.992346 
3107.000000	95.996561 
3106.000000	96.000076 
3105.000000	96.003174 
3104.000000	96.005628 
3103.000000	96.006637 
3102.000000	96.005680 
3101.000000	96.003258 
3100.000000	96.000754 
3099.000000	95.999642 
3098.000000	96.000785 
3097.000000	96.004201 
3096.000000	96.009042 
3095.000000	96.013897 
3094.000000	96.017750 
3093.000000	96.020658 
3092.000000	96.023207 
3091.000000	96.025537 
3090.000000	96.027282 
3089.000000	96.028421 
3088.000000	96.029693 
3087.000000	96.032000 
3086.000000	96.035590 
3085.000000	96.039825 
3084.000000	96.043528 
3083.000000	96.045775 
3082.000000	96.046716 
3081.000000	96.047574 
3080.000000	96.049332 
3079.000000	96.051425 
3078.000000	96.052405 
3077.000000	96.051834 
3076.000000	96.050799 
3075.000000	96.050577 
3074.000000	96.051384 
3073.000000	96.052826 
3072.000000	96.054895 
3071.000000	96.057861 
3070.000000	96.061504 
3069.000000	96.065075 
3068.000000	96.067927 
3067.000000	96.069744 
3066.000000	96.070323 
3065.000000	96.069668 
3064.000000	96.068341 
3063.000000	96.067280 
3062.000000	96.067130 
3061.000000	96.067963 
3060.000000	96.069551 
3059.000000	96.071612 
3058.000000	96.073860 
3057.000000	96.076066 
3056.000000	96.078053 
3055.000000	96.079542 
3054.000000	96.080171 
3053.000000	96.079858 
3052.000000	96.079121 
3051.000000	96.078801 
3050.000000	96.079372 
3049.000000	96.080741 
3048.000000	96.082572 
3047.000000	96.084511 
3046.000000	96.086142 
3045.000000	96.087057 
3044.000000	96.087201 
3043.000000	96.087035 
3042.000000	96.087179 
3041.000000	96.087811 
3040.000000	96.088580 
3039.000000	96.089048 
3038.000000	96.089139 
3037.000000	96.089138 
3036.000000	96.089329 
3035.000000	96.089677 
3034.000000	96.089962 
3033.000000	96.090127 
3032.000000	96.090343 
3031.000000	96.090722 
3030.000000	96.091126 
3029.000000	96.091336 
3028.000000	96.091276 
3027.000000	96.091032 
3026.000000	96.090743 
3025.000000	96.090555 
3024.000000	96.090625 
3023.000000	96.091048 
3022.000000	96.091721 
3021.000000	96.092381 
3020.000000	96.092854 
3019.000000	96.093161 
3018.000000	96.093321 
3017.000000	96.093211 
3016.000000	96.092767 
3015.000000	96.092220 
3014.000000	96.092005 
3013.000000	96.092420 
3012.000000	96.093332 
3011.000000	96.094097 
3010.000000	96.093960 
3009.000000	96.092768 
3008.000000	96.091313 
3007.000000	96.090685 
3006.000000	96.091137 
3005.000000	96.091898 
3004.000000	96.092093 
3003.000000	96.091591 
3002.000000	96.090926 
3001.000000	96.090790 
3000.000000	96.091663 
2999.000000	96.093458 
2998.000000	96.095370 
2997.000000	96.096508 
2996.000000	96.096806 
2995.000000	96.097035 
2994.000000	96.097749 
2993.000000	96.098612 
2992.000000	96.098838 
2991.000000	96.097857 
2990.000000	96.095525 
2989.000000	96.092286 
2988.000000	96.089230 
2987.000000	96.087460 
2986.000000	96.087251 
2985.000000	96.088127 
2984.000000	96.089715 
2983.000000	96.092043 
2982.000000	96.094984 
2981.000000	96.098017 
2980.000000	96.100646 
2979.000000	96.102501 
2978.000000	96.103100 
2977.000000	96.102272 
2976.000000	96.101019 
2975.000000	96.101166 
2974.000000	96.103737 
2973.000000	96.108156 
2972.000000	96.113069 
2971.000000	96.117438 
2970.000000	96.120644 
2969.000000	96.122267 
2968.000000	96.122436 
2967.000000	96.122002 
2966.000000	96.121782 
2965.000000	96.121858 
2964.000000	96.122022 
2963.000000	96.122492 
2962.000000	96.123643 
2961.000000	96.125306 
2960.000000	96.127031 
2959.000000	96.129022 
2958.000000	96.132254 
2957.000000	96.137442 
2956.000000	96.144099 
2955.000000	96.150504 
2954.000000	96.154663 
2953.000000	96.155689 
2952.000000	96.154542 
2951.000000	96.153502 
2950.000000	96.154305 
2949.000000	96.156848 
2948.000000	96.159896 
2947.000000	96.162641 
2946.000000	96.165188 
2945.000000	96.167734 
2944.000000	96.169978 
2943.000000	96.171499 
2942.000000	96.172143 
2941.000000	96.171844 
2940.000000	96.170527 
2939.000000	96.168628 
2938.000000	96.167470 
2937.000000	96.168530 
2936.000000	96.172168 
2935.000000	96.177270 
2934.000000	96.182332 
2933.000000	96.186823 
2932.000000	96.191175 
2931.000000	96.195440 
2930.000000	96.198539 
2929.000000	96.199284 
2928.000000	96.197844 
2927.000000	96.195529 
2926.000000	96.193090 
2925.000000	96.190072 
2924.000000	96.186310 
2923.000000	96.183274 
2922.000000	96.182997 
2921.000000	96.186059 
2920.000000	96.191443 
2919.000000	96.197982 
2918.000000	96.205047 
2917.000000	96.211652 
2916.000000	96.216035 
2915.000000	96.217055 
2914.000000	96.215598 
2913.000000	96.213957 
2912.000000	96.213662 
2911.000000	96.214429 
2910.000000	96.215212 
2909.000000	96.215617 
2908.000000	96.215939 
2907.000000	96.216212 
2906.000000	96.215805 
2905.000000	96.214041 
2904.000000	96.211131 
2903.000000	96.208428 
2902.000000	96.207651 
2901.000000	96.209619 
2900.000000	96.213657 
2899.000000	96.218076 
2898.000000	96.221548 
2897.000000	96.224019 
2896.000000	96.226066 
2895.000000	96.227776 
2894.000000	96.228794 
2893.000000	96.229462 
2892.000000	96.231037 
2891.000000	96.234206 
2890.000000	96.237888 
2889.000000	96.240345 
2888.000000	96.241343 
2887.000000	96.242330 
2886.000000	96.244444 
2885.000000	96.247242 
2884.000000	96.249774 
2883.000000	96.252016 
2882.000000	96.254443 
2881.000000	96.256717 
2880.000000	96.257945 
2879.000000	96.258196 
2878.000000	96.258711 
2877.000000	96.260240 
2876.000000	96.262069 
2875.000000	96.263230 
2874.000000	96.264097 
2873.000000	96.266021 
2872.000000	96.269593 
2871.000000	96.273970 
2870.000000	96.277929 
2869.000000	96.281007 
2868.000000	96.283456 
2867.000000	96.285599 
2866.000000	96.287474 
2865.000000	96.288822 
2864.000000	96.289234 
2863.000000	96.288622 
2862.000000	96.287655 
2861.000000	96.287351 
2860.000000	96.288068 
2859.000000	96.289388 
2858.000000	96.291200 
2857.000000	96.294379 
2856.000000	96.299808 
2855.000000	96.306839 
2854.000000	96.313178 
2853.000000	96.316656 
2852.000000	96.316942 
2851.000000	96.315634 
2850.000000	96.314779 
2849.000000	96.315290 
2848.000000	96.316845 
2847.000000	96.319096 
2846.000000	96.322513 
2845.000000	96.327687 
2844.000000	96.333990 
2843.000000	96.339491 
2842.000000	96.342454 
2841.000000	96.342563 
2840.000000	96.340597 
2839.000000	96.337285 
2838.000000	96.332785 
2837.000000	96.327108 
2836.000000	96.320723 
2835.000000	96.314817 
2834.000000	96.311095 
2833.000000	96.311023 
2832.000000	96.314793 
2831.000000	96.320993 
2830.000000	96.327653 
2829.000000	96.333881 
2828.000000	96.340421 
2827.000000	96.348540 
2826.000000	96.358418 
2825.000000	96.368396 
2824.000000	96.375714 
2823.000000	96.378242 
2822.000000	96.375857 
2821.000000	96.370425 
2820.000000	96.364347 
2819.000000	96.358976 
2818.000000	96.354433 
2817.000000	96.350637 
2816.000000	96.347991 
2815.000000	96.347061 
2814.000000	96.347880 
2813.000000	96.349738 
2812.000000	96.351610 
2811.000000	96.352963 
2810.000000	96.354397 
2809.000000	96.357412 
2808.000000	96.363112 
2807.000000	96.370873 
2806.000000	96.378331 
2805.000000	96.382979 
2804.000000	96.383886 
2803.000000	96.381978 
2802.000000	96.379130 
2801.000000	96.376939 
2800.000000	96.375953 
2799.000000	96.375659 
2798.000000	96.375128 
2797.000000	96.373938 
2796.000000	96.372688 
2795.000000	96.372597 
2794.000000	96.374484 
2793.000000	96.378133 
2792.000000	96.382558 
2791.000000	96.386728 
2790.000000	96.389973 
2789.000000	96.391891 
2788.000000	96.392278 
2787.000000	96.391371 
2786.000000	96.390006 
2785.000000	96.389212 
2784.000000	96.389457 
2783.000000	96.390448 
2782.000000	96.391640 
2781.000000	96.392803 
2780.000000	96.394066 
2779.000000	96.395606 
2778.000000	96.397418 
2777.000000	96.399306 
2776.000000	96.400983 
2775.000000	96.402232 
2774.000000	96.403016 
2773.000000	96.403484 
2772.000000	96.403884 
2771.000000	96.404457 
2770.000000	96.405334 
2769.000000	96.406499 
2768.000000	96.407818 
2767.000000	96.409137 
2766.000000	96.410363 
2765.000000	96.411460 
2764.000000	96.412427 
2763.000000	96.413300 
2762.000000	96.414151 
2761.000000	96.415045 
2760.000000	96.416013 
2759.000000	96.417045 
2758.000000	96.418112 
2757.000000	96.419176 
2756.000000	96.420198 
2755.000000	96.421167 
2754.000000	96.422095 
2753.000000	96.422993 
2752.000000	96.423865 
2751.000000	96.424708 
2750.000000	96.425522 
2749.000000	96.426320 
2748.000000	96.427121 
2747.000000	96.427926 
2746.000000	96.428714 
2745.000000	96.429474 
2744.000000	96.430242 
2743.000000	96.431076 
2742.000000	96.431991 
2741.000000	96.432908 
2740.000000	96.433736 
2739.000000	96.434454 
2738.000000	96.435076 
2737.000000	96.435602 
2736.000000	96.436054 
2735.000000	96.436500 
2734.000000	96.437003 
2733.000000	96.437569 
2732.000000	96.438175 
2731.000000	96.438847 
2730.000000	96.439653 
2729.000000	96.440619 
2728.000000	96.441623 
2727.000000	96.442421 
2726.000000	96.442828 
2725.000000	96.442934 
2724.000000	96.443112 
2723.000000	96.443688 
2722.000000	96.444628 
2721.000000	96.445603 
2720.000000	96.446366 
2719.000000	96.446956 
2718.000000	96.447468 
2717.000000	96.447797 
2716.000000	96.447765 
2715.000000	96.447413 
2714.000000	96.447026 
2713.000000	96.446869 
2712.000000	96.446971 
2711.000000	96.447159 
2710.000000	96.447321 
2709.000000	96.447655 
2708.000000	96.448569 
2707.000000	96.450299 
2706.000000	96.452604 
2705.000000	96.454846 
2704.000000	96.456400 
2703.000000	96.456990 
2702.000000	96.456787 
2701.000000	96.456350 
2700.000000	96.456328 
2699.000000	96.456999 
2698.000000	96.458081 
2697.000000	96.459039 
2696.000000	96.459547 
2695.000000	96.459638 
2694.000000	96.459496 
2693.000000	96.459280 
2692.000000	96.459118 
2691.000000	96.459149 
2690.000000	96.459516 
2689.000000	96.460270 
2688.000000	96.461231 
2687.000000	96.462011 
2686.000000	96.462387 
2685.000000	96.462664 
2684.000000	96.463431 
2683.000000	96.464805 
2682.000000	96.466136 
2681.000000	96.466683 
2680.000000	96.466392 
2679.000000	96.465837 
2678.000000	96.465506 
2677.000000	96.465457 
2676.000000	96.465549 
2675.000000	96.465591 
2674.000000	96.465361 
2673.000000	96.464849 
2672.000000	96.464463 
2671.000000	96.464641 
2670.000000	96.465226 
2669.000000	96.465560 
2668.000000	96.465288 
2667.000000	96.464716 
2666.000000	96.464261 
2665.000000	96.463882 
2664.000000	96.463361 
2663.000000	96.462874 
2662.000000	96.462826 
2661.000000	96.463170 
2660.000000	96.463322 
2659.000000	96.462858 
2658.000000	96.461977 
2657.000000	96.461163 
2656.000000	96.460591 
2655.000000	96.460064 
2654.000000	96.459363 
2653.000000	96.458503 
2652.000000	96.457734 
2651.000000	96.457372 
2650.000000	96.457580 
2649.000000	96.458219 
2648.000000	96.458890 
2647.000000	96.459160 
2646.000000	96.458793 
2645.000000	96.457780 
2644.000000	96.456309 
2643.000000	96.454786 
2642.000000	96.453704 
2641.000000	96.453318 
2640.000000	96.453458 
2639.000000	96.453728 
2638.000000	96.453865 
2637.000000	96.453858 
2636.000000	96.453819 
2635.000000	96.453875 
2634.000000	96.454119 
2633.000000	96.454518 
2632.000000	96.454869 
2631.000000	96.454951 
2630.000000	96.454736 
2629.000000	96.454383 
2628.000000	96.454062 
2627.000000	96.453876 
2626.000000	96.453911 
2625.000000	96.454229 
2624.000000	96.454761 
2623.000000	96.455325 
2622.000000	96.455767 
2621.000000	96.455995 
2620.000000	96.455876 
2619.000000	96.455296 
2618.000000	96.454423 
2617.000000	96.453822 
2616.000000	96.453988 
2615.000000	96.454915 
2614.000000	96.456124 
2613.000000	96.457120 
2612.000000	96.457807 
2611.000000	96.458358 
2610.000000	96.458892 
2609.000000	96.459321 
2608.000000	96.459448 
2607.000000	96.459189 
2606.000000	96.458715 
2605.000000	96.458387 
2604.000000	96.458459 
2603.000000	96.458875 
2602.000000	96.459390 
2601.000000	96.459813 
2600.000000	96.460078 
2599.000000	96.460139 
2598.000000	96.459979 
2597.000000	96.459740 
2596.000000	96.459717 
2595.000000	96.460109 
2594.000000	96.460775 
2593.000000	96.461384 
2592.000000	96.461830 
2591.000000	96.462199 
2590.000000	96.462394 
2589.000000	96.462253 
2588.000000	96.462015 
2587.000000	96.462231 
2586.000000	96.463129 
2585.000000	96.464434 
2584.000000	96.465763 
2583.000000	96.466828 
2582.000000	96.467357 
2581.000000	96.467305 
2580.000000	96.467093 
2579.000000	96.467158 
2578.000000	96.467313 
2577.000000	96.467059 
2576.000000	96.466515 
2575.000000	96.466470 
2574.000000	96.467425 
2573.000000	96.469013 
2572.000000	96.470385 
2571.000000	96.470875 
2570.000000	96.470380 
2569.000000	96.469565 
2568.000000	96.469466 
2567.000000	96.470277 
2566.000000	96.470736 
2565.000000	96.469598 
2564.000000	96.467738 
2563.000000	96.467724 
2562.000000	96.470900 
2561.000000	96.475833 
2560.000000	96.480146 
2559.000000	96.483317 
2558.000000	96.486522 
2557.000000	96.490292 
2556.000000	96.493695 
2555.000000	96.495774 
2554.000000	96.496434 
2553.000000	96.495542 
2552.000000	96.492566 
2551.000000	96.488148 
2550.000000	96.484745 
2549.000000	96.483943 
2548.000000	96.484097 
2547.000000	96.482383 
2546.000000	96.478767 
2545.000000	96.476025 
2544.000000	96.475833 
2543.000000	96.476724 
2542.000000	96.476728 
2541.000000	96.476346 
2540.000000	96.477402 
2539.000000	96.479966 
2538.000000	96.482106 
2537.000000	96.482557 
2536.000000	96.482155 
2535.000000	96.482233 
2534.000000	96.482799 
2533.000000	96.482908 
2532.000000	96.482163 
2531.000000	96.481195 
2530.000000	96.480904 
2529.000000	96.481654 
2528.000000	96.483079 
2527.000000	96.484428 
2526.000000	96.485212 
2525.000000	96.485609 
2524.000000	96.486095 
2523.000000	96.486710 
2522.000000	96.487029 
2521.000000	96.486865 
2520.000000	96.486578 
2519.000000	96.486546 
2518.000000	96.486656 
2517.000000	96.486479 
2516.000000	96.485657 
2515.000000	96.484089 
2514.000000	96.482181 
2513.000000	96.481037 
2512.000000	96.481842 
2511.000000	96.484760 
2510.000000	96.488526 
2509.000000	96.491326 
2508.000000	96.492192 
2507.000000	96.491631 
2506.000000	96.491394 
2505.000000	96.493377 
2504.000000	96.498024 
2503.000000	96.503466 
2502.000000	96.506880 
2501.000000	96.507211 
2500.000000	96.505700 
2499.000000	96.503801 
2498.000000	96.501404 
2497.000000	96.498088 
2496.000000	96.495009 
2495.000000	96.493964 
2494.000000	96.495057 
2493.000000	96.496658 
2492.000000	96.497721 
2491.000000	96.498984 
2490.000000	96.501353 
2489.000000	96.504312 
2488.000000	96.506653 
2487.000000	96.508048 
2486.000000	96.509066 
2485.000000	96.510003 
2484.000000	96.510453 
2483.000000	96.510040 
2482.000000	96.509009 
2481.000000	96.507938 
2480.000000	96.507210 
2479.000000	96.506915 
2478.000000	96.507034 
2477.000000	96.507496 
2476.000000	96.508107 
2475.000000	96.508646 
2474.000000	96.509077 
2473.000000	96.509520 
2472.000000	96.509964 
2471.000000	96.510201 
2470.000000	96.510205 
2469.000000	96.510410 
2468.000000	96.511237 
2467.000000	96.512356 
2466.000000	96.512787 
2465.000000	96.512026 
2464.000000	96.510786 
2463.000000	96.510405 
2462.000000	96.511474 
2461.000000	96.513345 
2460.000000	96.514833 
2459.000000	96.515371 
2458.000000	96.515167 
2457.000000	96.514613 
2456.000000	96.513847 
2455.000000	96.512964 
2454.000000	96.512305 
2453.000000	96.512185 
2452.000000	96.512419 
2451.000000	96.512431 
2450.000000	96.512006 
2449.000000	96.511643 
2448.000000	96.511919 
2447.000000	96.512703 
2446.000000	96.513326 
2445.000000	96.513449 
2444.000000	96.513312 
2443.000000	96.513196 
2442.000000	96.513155 
2441.000000	96.513365 
2440.000000	96.514230 
2439.000000	96.515936 
2438.000000	96.518240 
2437.000000	96.520764 
2436.000000	96.523128 
2435.000000	96.524757 
2434.000000	96.525057 
2433.000000	96.524042 
2432.000000	96.522480 
2431.000000	96.521234 
2430.000000	96.520751 
2429.000000	96.521220 
2428.000000	96.522541 
2427.000000	96.523921 
2426.000000	96.524190 
2425.000000	96.522943 
2424.000000	96.521058 
2423.000000	96.519766 
2422.000000	96.519626 
2421.000000	96.520890 
2420.000000	96.523972 
2419.000000	96.528407 
2418.000000	96.532190 
2417.000000	96.533682 
2416.000000	96.533529 
2415.000000	96.533767 
2414.000000	96.534957 
2413.000000	96.536151 
2412.000000	96.537298 
2411.000000	96.539210 
2410.000000	96.541506 
2409.000000	96.543006 
2408.000000	96.543862 
2407.000000	96.545034 
2406.000000	96.545800 
2405.000000	96.544105 
2404.000000	96.539590 
2403.000000	96.534369 
2402.000000	96.530724 
2401.000000	96.529697 
2400.000000	96.531668 
2399.000000	96.536341 
2398.000000	96.542000 
2397.000000	96.546496 
2396.000000	96.549160 
2395.000000	96.550438 
2394.000000	96.550013 
2393.000000	96.547138 
2392.000000	96.542621 
2391.000000	96.538553 
2390.000000	96.535740 
2389.000000	96.532923 
2388.000000	96.528784 
2387.000000	96.523084 
2386.000000	96.515833 
2385.000000	96.507240 
2384.000000	96.499036 
2383.000000	96.494294 
2382.000000	96.495518 
2381.000000	96.503904 
2380.000000	96.520022 
2379.000000	96.542851 
2378.000000	96.567068 
2377.000000	96.583711 
2376.000000	96.586537 
2375.000000	96.576712 
2374.000000	96.560396 
2373.000000	96.542509 
2372.000000	96.524706 
2371.000000	96.508802 
2370.000000	96.497890 
2369.000000	96.492677 
2368.000000	96.489618 
2367.000000	96.485218 
2366.000000	96.480782 
2365.000000	96.479795 
2364.000000	96.481758 
2363.000000	96.482130 
2362.000000	96.477722 
2361.000000	96.470113 
2360.000000	96.462260 
2359.000000	96.455016 
2358.000000	96.449366 
2357.000000	96.447334 
2356.000000	96.449100 
2355.000000	96.452169 
2354.000000	96.454050 
2353.000000	96.452844 
2352.000000	96.446641 
2351.000000	96.435499 
2350.000000	96.422914 
2349.000000	96.413934 
2348.000000	96.411611 
2347.000000	96.414373 
2346.000000	96.416502 
2345.000000	96.413790 
2344.000000	96.407506 
2343.000000	96.401578 
2342.000000	96.398573 
2341.000000	96.398967 
2340.000000	96.401152 
2339.000000	96.402296 
2338.000000	96.400671 
2337.000000	96.396624 
2336.000000	96.391585 
2335.000000	96.386704 
2334.000000	96.382591 
2333.000000	96.379315 
2332.000000	96.376350 
2331.000000	96.372979 
2330.000000	96.368282 
2329.000000	96.360907 
2328.000000	96.350512 
2327.000000	96.338890 
2326.000000	96.329374 
2325.000000	96.324359 
2324.000000	96.324430 
2323.000000	96.328750 
2322.000000	96.334506 
2321.000000	96.337941 
2320.000000	96.337121 
2319.000000	96.333945 
2318.000000	96.331612 
2317.000000	96.331588 
2316.000000	96.333166 
2315.000000	96.335072 
2314.000000	96.335921 
2313.000000	96.334379 
2312.000000	96.330329 
2311.000000	96.325662 
2310.000000	96.322541 
2309.000000	96.321014 
2308.000000	96.320100 
2307.000000	96.320121 
2306.000000	96.322121 
2305.000000	96.324821 
2304.000000	96.325218 
2303.000000	96.322546 
2302.000000	96.319764 
2301.000000	96.320079 
2300.000000	96.323533 
2299.000000	96.327309 
2298.000000	96.328552 
2297.000000	96.326791 
2296.000000	96.324090 
2295.000000	96.323389 
2294.000000	96.326078 
2293.000000	96.331055 
2292.000000	96.335920 
2291.000000	96.339493 
2290.000000	96.342651 
2289.000000	96.346915 
2288.000000	96.352471 
2287.000000	96.357805 
2286.000000	96.361076 
2285.000000	96.361998 
2284.000000	96.362299 
2283.000000	96.364099 
2282.000000	96.367877 
2281.000000	96.372039 
2280.000000	96.374400 
2279.000000	96.373800 
2278.000000	96.370896 
2277.000000	96.368111 
2276.000000	96.368221 
2275.000000	96.372262 
2274.000000	96.378563 
2273.000000	96.384125 
2272.000000	96.387450 
2271.000000	96.389356 
2270.000000	96.391287 
2269.000000	96.393816 
2268.000000	96.396813 
2267.000000	96.399868 
2266.000000	96.402116 
2265.000000	96.402935 
2264.000000	96.402935 
2263.000000	96.402937 
2262.000000	96.402191 
2261.000000	96.399270 
2260.000000	96.394940 
2259.000000	96.391960 
2258.000000	96.391366 
2257.000000	96.391264 
2256.000000	96.390452 
2255.000000	96.391067 
2254.000000	96.395625 
2253.000000	96.402860 
2252.000000	96.408412 
2251.000000	96.409019 
2250.000000	96.404487 
2249.000000	96.396784 
2248.000000	96.389075 
2247.000000	96.384240 
2246.000000	96.382697 
2245.000000	96.381816 
2244.000000	96.378770 
2243.000000	96.373568 
2242.000000	96.368410 
2241.000000	96.365012 
2240.000000	96.363795 
2239.000000	96.364739 
2238.000000	96.367145 
2237.000000	96.368991 
2236.000000	96.368399 
2235.000000	96.365691 
2234.000000	96.362653 
2233.000000	96.360179 
2232.000000	96.357998 
2231.000000	96.355943 
2230.000000	96.353428 
2229.000000	96.348365 
2228.000000	96.339324 
2227.000000	96.329037 
2226.000000	96.322917 
2225.000000	96.322851 
2224.000000	96.324718 
2223.000000	96.323684 
2222.000000	96.320303 
2221.000000	96.318798 
2220.000000	96.321044 
2219.000000	96.324687 
2218.000000	96.326610 
2217.000000	96.326620 
2216.000000	96.326761 
2215.000000	96.328191 
2214.000000	96.329561 
2213.000000	96.328364 
2212.000000	96.323458 
2211.000000	96.316158 
2210.000000	96.309331 
2209.000000	96.305293 
2208.000000	96.304615 
2207.000000	96.306367 
2206.000000	96.309066 
2205.000000	96.311617 
2204.000000	96.313748 
2203.000000	96.315522 
2202.000000	96.316694 
2201.000000	96.316666 
2200.000000	96.314938 
2199.000000	96.311417 
2198.000000	96.306525 
2197.000000	96.301476 
2196.000000	96.297884 
2195.000000	96.296194 
2194.000000	96.294839 
2193.000000	96.292078 
2192.000000	96.288500 
2191.000000	96.286358 
2190.000000	96.286452 
2189.000000	96.287326 
2188.000000	96.287641 
2187.000000	96.287201 
2186.000000	96.285238 
2185.000000	96.280561 
2184.000000	96.274918 
2183.000000	96.273340 
2182.000000	96.278196 
2181.000000	96.284368 
2180.000000	96.283604 
2179.000000	96.273655 
2178.000000	96.260794 
2177.000000	96.253607 
2176.000000	96.255258 
2175.000000	96.262139 
2174.000000	96.267701 
2173.000000	96.268131 
2172.000000	96.265445 
2171.000000	96.264728 
2170.000000	96.267416 
2169.000000	96.268666 
2168.000000	96.263796 
2167.000000	96.255953 
2166.000000	96.252957 
2165.000000	96.256361 
2164.000000	96.258534 
2163.000000	96.253029 
2162.000000	96.244346 
2161.000000	96.243388 
2160.000000	96.255494 
2159.000000	96.276602 
2158.000000	96.299197 
2157.000000	96.319109 
2156.000000	96.335384 
2155.000000	96.346942 
2154.000000	96.352604 
2153.000000	96.353601 
2152.000000	96.353257 
2151.000000	96.352939 
2150.000000	96.350413 
2149.000000	96.344471 
2148.000000	96.339603 
2147.000000	96.342344 
2146.000000	96.352987 
2145.000000	96.364627 
2144.000000	96.371930 
2143.000000	96.377277 
2142.000000	96.385226 
2141.000000	96.394240 
2140.000000	96.398548 
2139.000000	96.397298 
2138.000000	96.397215 
2137.000000	96.404987 
2136.000000	96.419271 
2135.000000	96.431596 
2134.000000	96.434421 
2133.000000	96.427929 
2132.000000	96.419782 
2131.000000	96.418067 
2130.000000	96.424030 
2129.000000	96.431778 
2128.000000	96.434702 
2127.000000	96.431352 
2126.000000	96.424933 
2125.000000	96.419146 
2124.000000	96.415731 
2123.000000	96.414877 
2122.000000	96.415968 
2121.000000	96.417707 
2120.000000	96.418805 
2119.000000	96.418837 
2118.000000	96.417860 
2117.000000	96.415652 
2116.000000	96.412067 
2115.000000	96.407725 
2114.000000	96.403678 
2113.000000	96.400439 
2112.000000	96.398017 
2111.000000	96.396607 
2110.000000	96.396415 
2109.000000	96.396995 
2108.000000	96.397409 
2107.000000	96.397025 
2106.000000	96.395932 
2105.000000	96.394928 
2104.000000	96.395153 
2103.000000	96.396793 
2102.000000	96.397919 
2101.000000	96.395844 
2100.000000	96.390527 
2099.000000	96.385542 
2098.000000	96.384647 
2097.000000	96.388114 
2096.000000	96.393108 
2095.000000	96.396689 
2094.000000	96.397380 
2093.000000	96.394745 
2092.000000	96.388972 
2091.000000	96.381203 
2090.000000	96.373376 
2089.000000	96.367013 
2088.000000	96.362648 
2087.000000	96.359758 
2086.000000	96.356835 
2085.000000	96.352483 
2084.000000	96.347125 
2083.000000	96.342862 
2082.000000	96.340871 
2081.000000	96.339959 
2080.000000	96.338787 
2079.000000	96.338112 
2078.000000	96.338917 
2077.000000	96.339916 
2076.000000	96.339468 
2075.000000	96.338726 
2074.000000	96.339493 
2073.000000	96.339795 
2072.000000	96.335320 
2071.000000	96.325336 
2070.000000	96.314130 
2069.000000	96.305964 
2068.000000	96.301290 
2067.000000	96.298771 
2066.000000	96.297771 
2065.000000	96.297452 
2064.000000	96.296023 
2063.000000	96.292978 
2062.000000	96.290391 
2061.000000	96.290212 
2060.000000	96.291364 
2059.000000	96.290909 
2058.000000	96.287192 
2057.000000	96.280959 
2056.000000	96.273936 
2055.000000	96.267444 
2054.000000	96.262257 
2053.000000	96.258863 
2052.000000	96.257334 
2051.000000	96.256785 
2050.000000	96.255474 
2049.000000	96.252153 
2048.000000	96.247723 
2047.000000	96.244661 
2046.000000	96.244154 
2045.000000	96.244718 
2044.000000	96.244305 
2043.000000	96.242877 
2042.000000	96.242022 
2041.000000	96.242969 
2040.000000	96.246043 
2039.000000	96.251139 
2038.000000	96.257038 
2037.000000	96.260870 
2036.000000	96.260428 
2035.000000	96.257006 
2034.000000	96.254371 
2033.000000	96.254893 
2032.000000	96.257984 
2031.000000	96.261833 
2030.000000	96.264617 
2029.000000	96.264394 
2028.000000	96.260148 
2027.000000	96.253586 
2026.000000	96.248325 
2025.000000	96.247122 
2024.000000	96.250929 
2023.000000	96.259995 
2022.000000	96.273509 
2021.000000	96.287515 
2020.000000	96.295920 
2019.000000	96.294856 
2018.000000	96.285066 
2017.000000	96.271048 
2016.000000	96.258555 
2015.000000	96.251958 
2014.000000	96.251596 
2013.000000	96.252815 
2012.000000	96.250547 
2011.000000	96.246232 
2010.000000	96.246714 
2009.000000	96.255058 
2008.000000	96.266043 
2007.000000	96.273244 
2006.000000	96.277048 
2005.000000	96.281944 
2004.000000	96.289086 
2003.000000	96.295843 
2002.000000	96.300776 
2001.000000	96.304098 
2000.000000	96.304498 
1999.000000	96.298606 
1998.000000	96.284336 
1997.000000	96.263580 
1996.000000	96.241613 
1995.000000	96.224719 
1994.000000	96.217505 
1993.000000	96.220393 
1992.000000	96.228676 
1991.000000	96.236521 
1990.000000	96.242492 
1989.000000	96.248618 
1988.000000	96.254511 
1987.000000	96.255453 
1986.000000	96.247396 
1985.000000	96.232045 
1984.000000	96.215372 
1983.000000	96.201554 
1982.000000	96.190454 
1981.000000	96.180968 
1980.000000	96.175610 
1979.000000	96.179131 
1978.000000	96.192213 
1977.000000	96.208175 
1976.000000	96.218144 
1975.000000	96.220205 
1974.000000	96.220485 
1973.000000	96.225653 
1972.000000	96.236127 
1971.000000	96.246820 
1970.000000	96.252669 
1969.000000	96.252225 
1968.000000	96.247227 
1967.000000	96.241144 
1966.000000	96.238130 
1965.000000	96.241141 
1964.000000	96.249807 
1963.000000	96.260508 
1962.000000	96.269102 
1961.000000	96.273588 
1960.000000	96.274239 
1959.000000	96.272474 
1958.000000	96.270758 
1957.000000	96.272154 
1956.000000	96.277901 
1955.000000	96.285599 
1954.000000	96.291065 
1953.000000	96.292560 
1952.000000	96.291615 
1951.000000	96.290389 
1950.000000	96.289826 
1949.000000	96.290453 
1948.000000	96.293174 
1947.000000	96.297933 
1946.000000	96.302901 
1945.000000	96.306257 
1944.000000	96.308069 
1943.000000	96.309570 
1942.000000	96.311284 
1941.000000	96.312861 
1940.000000	96.314264 
1939.000000	96.315892 
1938.000000	96.317959 
1937.000000	96.320379 
1936.000000	96.322949 
1935.000000	96.325339 
1934.000000	96.327090 
1933.000000	96.328036 
1932.000000	96.328786 
1931.000000	96.330312 
1930.000000	96.332921 
1929.000000	96.335759 
1928.000000	96.337891 
1927.000000	96.339444 
1926.000000	96.341287 
1925.000000	96.343739 
1924.000000	96.346200 
1923.000000	96.347894 
1922.000000	96.348140 
1921.000000	96.346651 
1920.000000	96.344175 
1919.000000	96.342301 
1918.000000	96.341934 
1917.000000	96.342289 
1916.000000	96.342301 
1915.000000	96.342231 
1914.000000	96.342709 
1913.000000	96.343334 
1912.000000	96.343118 
1911.000000	96.342020 
1910.000000	96.341076 
1909.000000	96.341142 
1908.000000	96.342307 
1907.000000	96.343975 
1906.000000	96.345320 
1905.000000	96.345554 
1904.000000	96.344442 
1903.000000	96.342792 
1902.000000	96.341525 
1901.000000	96.340714 
1900.000000	96.340055 
1899.000000	96.339585 
1898.000000	96.339527 
1897.000000	96.339666 
1896.000000	96.339456 
1895.000000	96.338757 
1894.000000	96.337737 
1893.000000	96.336393 
1892.000000	96.334832 
1891.000000	96.333681 
1890.000000	96.333475 
1889.000000	96.333875 
1888.000000	96.334269 
1887.000000	96.334807 
1886.000000	96.335889 
1885.000000	96.337148 
1884.000000	96.337708 
1883.000000	96.337369 
1882.000000	96.336893 
1881.000000	96.337199 
1880.000000	96.338502 
1879.000000	96.340214 
1878.000000	96.341474 
1877.000000	96.342081 
1876.000000	96.342717 
1875.000000	96.344230 
1874.000000	96.346701 
1873.000000	96.349338 
1872.000000	96.351286 
1871.000000	96.352353 
1870.000000	96.352947 
1869.000000	96.353760 
1868.000000	96.355493 
1867.000000	96.358529 
1866.000000	96.362326 
1865.000000	96.365468 
1864.000000	96.367142 
1863.000000	96.368154 
1862.000000	96.370063 
1861.000000	96.373289 
1860.000000	96.376872 
1859.000000	96.380034 
1858.000000	96.383085 
1857.000000	96.386633 
1856.000000	96.390856 
1855.000000	96.395587 
1854.000000	96.400215 
1853.000000	96.403596 
1852.000000	96.405568 
1851.000000	96.407539 
1850.000000	96.411015 
1849.000000	96.416131 
1848.000000	96.421698 
1847.000000	96.426667 
1846.000000	96.430807 
1845.000000	96.434318 
1844.000000	96.437279 
1843.000000	96.439881 
1842.000000	96.442359 
1841.000000	96.444471 
1840.000000	96.446590 
1839.000000	96.449817 
1838.000000	96.454334 
1837.000000	96.458254 
1836.000000	96.459799 
1835.000000	96.459891 
1834.000000	96.460765 
1833.000000	96.462971 
1832.000000	96.465711 
1831.000000	96.468482 
1830.000000	96.471363 
1829.000000	96.474072 
1828.000000	96.476026 
1827.000000	96.477463 
1826.000000	96.479307 
1825.000000	96.481828 
1824.000000	96.483732 
1823.000000	96.484242 
1822.000000	96.484138 
1821.000000	96.484088 
1820.000000	96.483935 
1819.000000	96.483859 
1818.000000	96.485100 
1817.000000	96.487957 
1816.000000	96.490746 
1815.000000	96.492101 
1814.000000	96.492447 
1813.000000	96.493035 
1812.000000	96.494055 
1811.000000	96.494771 
1810.000000	96.495113 
1809.000000	96.495422 
1808.000000	96.495748 
1807.000000	96.496011 
1806.000000	96.496204 
1805.000000	96.496256 
1804.000000	96.496246 
1803.000000	96.496799 
1802.000000	96.498336 
1801.000000	96.500348 
1800.000000	96.501481 
1799.000000	96.501103 
1798.000000	96.500143 
1797.000000	96.499835 
1796.000000	96.500437 
1795.000000	96.501476 
1794.000000	96.502558 
1793.000000	96.503715 
1792.000000	96.505015 
1791.000000	96.506527 
1790.000000	96.508300 
1789.000000	96.510040 
1788.000000	96.511573 
1787.000000	96.513198 
1786.000000	96.515318 
1785.000000	96.517689 
1784.000000	96.519515 
1783.000000	96.520572 
1782.000000	96.521305 
1781.000000	96.522529 
1780.000000	96.524577 
1779.000000	96.526991 
1778.000000	96.529171 
1777.000000	96.530940 
1776.000000	96.532564 
1775.000000	96.534221 
1774.000000	96.535810 
1773.000000	96.537283 
1772.000000	96.538790 
1771.000000	96.540525 
1770.000000	96.542630 
1769.000000	96.545108 
1768.000000	96.547870 
1767.000000	96.550556 
1766.000000	96.552717 
1765.000000	96.554312 
1764.000000	96.555648 
1763.000000	96.557116 
1762.000000	96.558846 
1761.000000	96.560676 
1760.000000	96.562376 
1759.000000	96.563915 
1758.000000	96.565451 
1757.000000	96.567170 
1756.000000	96.569141 
1755.000000	96.571058 
1754.000000	96.572579 
1753.000000	96.573673 
1752.000000	96.574711 
1751.000000	96.576001 
1750.000000	96.577423 
1749.000000	96.578610 
1748.000000	96.579453 
1747.000000	96.580190 
1746.000000	96.581033 
1745.000000	96.582447 
1744.000000	96.584835 
1743.000000	96.587776 
1742.000000	96.590099 
1741.000000	96.591034 
1740.000000	96.590939 
1739.000000	96.591188 
1738.000000	96.592636 
1737.000000	96.594308 
1736.000000	96.594726 
1735.000000	96.594077 
1734.000000	96.593047 
1733.000000	96.591428 
1732.000000	96.590786 
1731.000000	96.592589 
1730.000000	96.596638 
1729.000000	96.600874 
1728.000000	96.602830 
1727.000000	96.601773 
1726.000000	96.598770 
1725.000000	96.596135 
1724.000000	96.594754 
1723.000000	96.594137 
1722.000000	96.594172 
1721.000000	96.594309 
1720.000000	96.593361 
1719.000000	96.591043 
1718.000000	96.589060 
1717.000000	96.587495 
1716.000000	96.584598 
1715.000000	96.581528 
1714.000000	96.580185 
1713.000000	96.579137 
1712.000000	96.576063 
1711.000000	96.572301 
1710.000000	96.570718 
1709.000000	96.571208 
1708.000000	96.571172 
1707.000000	96.569218 
1706.000000	96.567062 
1705.000000	96.565503 
1704.000000	96.562653 
1703.000000	96.557163 
1702.000000	96.550187 
1701.000000	96.544318 
1700.000000	96.536875 
1699.000000	96.526205 
1698.000000	96.518576 
1697.000000	96.515417 
1696.000000	96.515104 
1695.000000	96.514814 
1694.000000	96.513699 
1693.000000	96.512049 
1692.000000	96.508177 
1691.000000	96.502262 
1690.000000	96.496624 
1689.000000	96.492882 
1688.000000	96.490734 
1687.000000	96.487853 
1686.000000	96.483510 
1685.000000	96.478920 
1684.000000	96.474404 
1683.000000	96.470059 
1682.000000	96.466343 
1681.000000	96.462769 
1680.000000	96.460184 
1679.000000	96.458642 
1678.000000	96.456647 
1677.000000	96.453270 
1676.000000	96.449211 
1675.000000	96.444985 
1674.000000	96.439583 
1673.000000	96.433275 
1672.000000	96.427165 
1671.000000	96.422338 
1670.000000	96.419207 
1669.000000	96.416629 
1668.000000	96.414361 
1667.000000	96.412814 
1666.000000	96.411407 
1665.000000	96.409257 
1664.000000	96.406179 
1663.000000	96.403028 
1662.000000	96.399818 
1661.000000	96.395972 
1660.000000	96.392086 
1659.000000	96.388664 
1658.000000	96.385635 
1657.000000	96.383199 
1656.000000	96.381349 
1655.000000	96.379397 
1654.000000	96.377962 
1653.000000	96.372639 
1652.000000	96.359588 
1651.000000	96.350904 
1650.000000	96.348193 
1649.000000	96.345791 
1648.000000	96.343533 
1647.000000	96.344672 
1646.000000	96.347497 
1645.000000	96.347802 
1644.000000	96.345905 
1643.000000	96.344553 
1642.000000	96.344015 
1641.000000	96.343268 
1640.000000	96.342542 
1639.000000	96.341768 
1638.000000	96.340366 
1637.000000	96.338460 
1636.000000	96.337876 
1635.000000	96.337840 
1634.000000	96.337908 
1633.000000	96.339075 
1632.000000	96.339859 
1631.000000	96.340442 
1630.000000	96.341388 
1629.000000	96.342206 
1628.000000	96.343009 
1627.000000	96.345538 
1626.000000	96.349094 
1625.000000	96.351228 
1624.000000	96.352183 
1623.000000	96.354858 
1622.000000	96.359539 
1621.000000	96.363876 
1620.000000	96.366897 
1619.000000	96.368466 
1618.000000	96.368863 
1617.000000	96.366874 
1616.000000	96.364183 
1615.000000	96.366948 
1614.000000	96.374814 
1613.000000	96.380704 
1612.000000	96.381813 
1611.000000	96.381919 
1610.000000	96.384770 
1609.000000	96.391163 
1608.000000	96.401133 
1607.000000	96.413505 
1606.000000	96.423371 
1605.000000	96.428004 
1604.000000	96.430836 
1603.000000	96.435382 
1602.000000	96.441286 
1601.000000	96.446719 
1600.000000	96.452076 
1599.000000	96.458080 
1598.000000	96.463202 
1597.000000	96.466343 
1596.000000	96.469334 
1595.000000	96.474745 
1594.000000	96.481991 
1593.000000	96.488395 
1592.000000	96.493366 
1591.000000	96.498396 
1590.000000	96.503750 
1589.000000	96.508599 
1588.000000	96.513607 
1587.000000	96.520299 
1586.000000	96.527591 
1585.000000	96.532252 
1584.000000	96.535569 
1583.000000	96.540123 
1582.000000	96.544013 
1581.000000	96.545962 
1580.000000	96.549470 
1579.000000	96.555807 
1578.000000	96.560674 
1577.000000	96.561174 
1576.000000	96.559567 
1575.000000	96.562658 
1574.000000	96.572906 
1573.000000	96.584498 
1572.000000	96.593041 
1571.000000	96.600315 
1570.000000	96.606779 
1569.000000	96.608484 
1568.000000	96.607783 
1567.000000	96.607396 
1566.000000	96.605293 
1565.000000	96.601382 
1564.000000	96.600531 
1563.000000	96.604098 
1562.000000	96.605828 
1561.000000	96.601533 
1560.000000	96.601948 
1559.000000	96.609944 
1558.000000	96.605087 
1557.000000	96.591464 
1556.000000	96.583740 
1555.000000	96.585703 
1554.000000	96.589714 
1553.000000	96.589018 
1552.000000	96.584220 
1551.000000	96.579523 
1550.000000	96.578354 
1549.000000	96.577190 
1548.000000	96.571017 
1547.000000	96.560945 
1546.000000	96.550243 
1545.000000	96.542122 
1544.000000	96.537673 
1543.000000	96.534284 
1542.000000	96.529672 
1541.000000	96.521872 
1540.000000	96.506397 
1539.000000	96.485030 
1538.000000	96.468205 
1537.000000	96.458966 
1536.000000	96.451486 
1535.000000	96.443304 
1534.000000	96.436967 
1533.000000	96.433446 
1532.000000	96.428088 
1531.000000	96.417088 
1530.000000	96.402185 
1529.000000	96.386545 
1528.000000	96.372402 
1527.000000	96.361432 
1526.000000	96.353120 
1525.000000	96.344556 
1524.000000	96.333183 
1523.000000	96.318959 
1522.000000	96.304821 
1521.000000	96.292590 
1520.000000	96.280076 
1519.000000	96.265523 
1518.000000	96.250132 
1517.000000	96.236603 
1516.000000	96.225580 
1515.000000	96.215008 
1514.000000	96.203383 
1513.000000	96.190932 
1512.000000	96.177959 
1511.000000	96.164555 
1510.000000	96.151026 
1509.000000	96.137787 
1508.000000	96.125281 
1507.000000	96.113303 
1506.000000	96.100549 
1505.000000	96.086796 
1504.000000	96.073002 
1503.000000	96.059581 
1502.000000	96.046398 
1501.000000	96.033396 
1500.000000	96.020515 
1499.000000	96.007557 
1498.000000	95.994328 
1497.000000	95.980949 
1496.000000	95.967524 
1495.000000	95.954211 
1494.000000	95.941409 
1493.000000	95.929237 
1492.000000	95.917491 
1491.000000	95.906403 
1490.000000	95.896765 
1489.000000	95.888014 
1488.000000	95.877376 
1487.000000	95.863765 
1486.000000	95.848860 
1485.000000	95.832916 
1484.000000	95.815816 
1483.000000	95.798949 
1482.000000	95.784907 
1481.000000	95.774571 
1480.000000	95.764912 
1479.000000	95.753185 
1478.000000	95.740358 
1477.000000	95.728930 
1476.000000	95.718215 
1475.000000	95.706423 
1474.000000	95.694411 
1473.000000	95.686561 
1472.000000	95.682422 
1471.000000	95.674095 
1470.000000	95.659047 
1469.000000	95.641306 
1468.000000	95.624401 
1467.000000	95.610150 
1466.000000	95.599381 
1465.000000	95.592564 
1464.000000	95.587428 
1463.000000	95.577515 
1462.000000	95.561172 
1461.000000	95.542535 
1460.000000	95.526564 
1459.000000	95.515120 
1458.000000	95.509943 
1457.000000	95.511929 
1456.000000	95.511183 
1455.000000	95.500580 
1454.000000	95.484805 
1453.000000	95.470903 
1452.000000	95.463546 
1451.000000	95.462108 
1450.000000	95.462976 
1449.000000	95.464747 
1448.000000	95.466827 
1447.000000	95.467009 
1446.000000	95.461854 
1445.000000	95.455172 
1444.000000	95.453922 
1443.000000	95.456781 
1442.000000	95.457990 
1441.000000	95.454877 
1440.000000	95.449833 
1439.000000	95.445372 
1438.000000	95.446029 
1437.000000	95.456686 
1436.000000	95.469756 
1435.000000	95.470157 
1434.000000	95.458627 
1433.000000	95.447270 
1432.000000	95.444066 
1431.000000	95.449317 
1430.000000	95.459384 
1429.000000	95.471469 
1428.000000	95.481850 
1427.000000	95.488344 
1426.000000	95.492000 
1425.000000	95.499538 
1424.000000	95.516014 
1423.000000	95.533453 
1422.000000	95.542197 
1421.000000	95.545470 
1420.000000	95.555989 
1419.000000	95.577008 
1418.000000	95.597046 
1417.000000	95.609667 
1416.000000	95.619150 
1415.000000	95.627934 
1414.000000	95.634094 
1413.000000	95.639147 
1412.000000	95.649128 
1411.000000	95.666232 
1410.000000	95.686299 
1409.000000	95.704558 
1408.000000	95.719578 
1407.000000	95.734299 
1406.000000	95.752645 
1405.000000	95.777265 
1404.000000	95.805212 
1403.000000	95.826348 
1402.000000	95.835664 
1401.000000	95.839862 
1400.000000	95.850572 
1399.000000	95.871422 
1398.000000	95.895284 
1397.000000	95.917154 
1396.000000	95.941241 
1395.000000	95.971146 
1394.000000	95.999689 
1393.000000	96.019177 
1392.000000	96.032443 
1391.000000	96.045291 
1390.000000	96.059518 
1389.000000	96.075550 
1388.000000	96.095282 
1387.000000	96.118805 
1386.000000	96.141025 
1385.000000	96.158337 
1384.000000	96.173489 
1383.000000	96.189357 
1382.000000	96.204988 
1381.000000	96.218461 
1380.000000	96.231080 
1379.000000	96.245694 
1378.000000	96.261767 
1377.000000	96.276148 
1376.000000	96.288725 
1375.000000	96.303967 
1374.000000	96.324463 
1373.000000	96.346035 
1372.000000	96.363179 
1371.000000	96.376844 
1370.000000	96.391222 
1369.000000	96.406842 
1368.000000	96.419948 
1367.000000	96.427019 
1366.000000	96.430005 
1365.000000	96.435463 
1364.000000	96.448727 
1363.000000	96.469069 
1362.000000	96.489928 
1361.000000	96.505349 
1360.000000	96.515869 
1359.000000	96.525556 
1358.000000	96.535997 
1357.000000	96.546141 
1356.000000	96.555791 
1355.000000	96.565926 
1354.000000	96.576750 
1353.000000	96.587191 
1352.000000	96.595923 
1351.000000	96.603648 
1350.000000	96.611935 
1349.000000	96.620888 
1348.000000	96.629505 
1347.000000	96.637085 
1346.000000	96.643934 
1345.000000	96.649587 
1344.000000	96.652220 
1343.000000	96.650998 
1342.000000	96.648659 
1341.000000	96.650347 
1340.000000	96.659289 
1339.000000	96.673228 
1338.000000	96.686226 
1337.000000	96.694482 
1336.000000	96.697976 
1335.000000	96.697812 
1334.000000	96.695455 
1333.000000	96.693420 
1332.000000	96.693895 
1331.000000	96.696751 
1330.000000	96.700198 
1329.000000	96.703230 
1328.000000	96.706355 
1327.000000	96.710187 
1326.000000	96.713918 
1325.000000	96.715490 
1324.000000	96.713332 
1323.000000	96.707635 
1322.000000	96.700733 
1321.000000	96.696141 
1320.000000	96.696199 
1319.000000	96.700159 
1318.000000	96.704941 
1317.000000	96.707991 
1316.000000	96.708844 
1315.000000	96.708153 
1314.000000	96.706743 
1313.000000	96.705755 
1312.000000	96.706105 
1311.000000	96.707189 
1310.000000	96.707291 
1309.000000	96.705805 
1308.000000	96.704170 
1307.000000	96.704428 
1306.000000	96.707066 
1305.000000	96.710873 
1304.000000	96.714328 
1303.000000	96.716025 
1302.000000	96.714863 
1301.000000	96.711201 
1300.000000	96.707650 
1299.000000	96.707320 
1298.000000	96.710575 
1297.000000	96.714191 
1296.000000	96.714526 
1295.000000	96.711334 
1294.000000	96.707716 
1293.000000	96.706233 
1292.000000	96.706057 
1291.000000	96.704922 
1290.000000	96.703118 
1289.000000	96.703635 
1288.000000	96.707698 
1287.000000	96.711891 
1286.000000	96.711513 
1285.000000	96.706191 
1284.000000	96.700518 
1283.000000	96.699022 
1282.000000	96.701705 
1281.000000	96.704867 
1280.000000	96.705559 
1279.000000	96.704428 
1278.000000	96.704537 
1277.000000	96.707819 
1276.000000	96.712449 
1275.000000	96.714158 
1274.000000	96.710668 
1273.000000	96.704598 
1272.000000	96.701126 
1271.000000	96.702777 
1270.000000	96.707332 
1269.000000	96.710901 
1268.000000	96.711782 
1267.000000	96.710616 
1266.000000	96.708302 
1265.000000	96.705416 
1264.000000	96.703110 
1263.000000	96.702818 
1262.000000	96.704609 
1261.000000	96.706802 
1260.000000	96.708154 
1259.000000	96.709613 
1258.000000	96.712651 
1257.000000	96.716250 
1256.000000	96.717079 
1255.000000	96.713721 
1254.000000	96.709615 
1253.000000	96.709637 
1252.000000	96.713663 
1251.000000	96.715961 
1250.000000	96.712014 
1249.000000	96.703852 
1248.000000	96.697071 
1247.000000	96.694166 
1246.000000	96.693155 
1245.000000	96.691724 
1244.000000	96.689688 
1243.000000	96.687222 
1242.000000	96.683402 
1241.000000	96.677602 
1240.000000	96.670570 
1239.000000	96.663026 
1238.000000	96.654297 
1237.000000	96.643283 
1236.000000	96.629977 
1235.000000	96.615406 
1234.000000	96.600664 
1233.000000	96.586317 
1232.000000	96.571997 
1231.000000	96.556190 
1230.000000	96.537278 
1229.000000	96.515014 
1228.000000	96.490037 
1227.000000	96.461823 
1226.000000	96.428279 
1225.000000	96.387657 
1224.000000	96.339729 
1223.000000	96.284891 
1222.000000	96.223555 
1221.000000	96.157090 
1220.000000	96.088123 
1219.000000	96.018754 
1218.000000	95.948845 
1217.000000	95.876625 
1216.000000	95.800090 
1215.000000	95.717453 
1214.000000	95.628226 
1213.000000	95.535433 
1212.000000	95.444769 
1211.000000	95.358702 
1210.000000	95.272572 
1209.000000	95.179728 
1208.000000	95.080012 
1207.000000	94.980147 
1206.000000	94.885675 
1205.000000	94.795527 
1204.000000	94.705155 
1203.000000	94.611990 
1202.000000	94.516716 
1201.000000	94.421364 
1200.000000	94.327322 
1199.000000	94.234140 
1198.000000	94.140107 
1197.000000	94.045001 
1196.000000	93.951123 
1195.000000	93.859548 
1194.000000	93.766780 
1193.000000	93.668204 
1192.000000	93.564090 
1191.000000	93.458969 
1190.000000	93.355482 
1189.000000	93.252121 
1188.000000	93.146610 
1187.000000	93.038060 
1186.000000	92.926047 
1185.000000	92.811076 
1184.000000	92.695705 
1183.000000	92.581764 
1182.000000	92.466879 
1181.000000	92.347171 
1180.000000	92.222399 
1179.000000	92.094389 
1178.000000	91.961746 
1177.000000	91.821344 
1176.000000	91.674170 
1175.000000	91.523974 
1174.000000	91.370679 
1173.000000	91.211650 
1172.000000	91.049624 
1171.000000	90.892062 
1170.000000	90.741245 
1169.000000	90.592110 
1168.000000	90.442173 
1167.000000	90.297555 
1166.000000	90.167867 
1165.000000	90.062286 
1164.000000	89.992033 
1163.000000	89.967673 
1162.000000	89.988840 
1161.000000	90.041172 
1160.000000	90.105207 
1159.000000	90.163282 
1158.000000	90.198369 
1157.000000	90.195715 
1156.000000	90.150269 
1155.000000	90.068274 
1154.000000	89.959755 
1153.000000	89.833349 
1152.000000	89.698510 
1151.000000	89.565246 
1150.000000	89.437904 
1149.000000	89.314253 
1148.000000	89.192655 
1147.000000	89.074200 
1146.000000	88.956479 
1145.000000	88.833127 
1144.000000	88.702876 
1143.000000	88.572446 
1142.000000	88.447187 
1141.000000	88.325072 
1140.000000	88.202873 
1139.000000	88.081501 
1138.000000	87.961802 
1137.000000	87.841267 
1136.000000	87.718241 
1135.000000	87.594030 
1134.000000	87.468732 
1133.000000	87.340889 
1132.000000	87.212494 
1131.000000	87.087248 
1130.000000	86.962492 
1129.000000	86.830941 
1128.000000	86.692310 
1127.000000	86.554756 
1126.000000	86.422475 
1125.000000	86.290779 
1124.000000	86.156281 
1123.000000	86.022562 
1122.000000	85.891805 
1121.000000	85.759937 
1120.000000	85.624674 
1119.000000	85.490080 
1118.000000	85.358868 
1117.000000	85.228502 
1116.000000	85.098700 
1115.000000	84.974355 
1114.000000	84.857480 
1113.000000	84.744750 
1112.000000	84.635647 
1111.000000	84.533201 
1110.000000	84.434084 
1109.000000	84.328973 
1108.000000	84.215625 
1107.000000	84.101212 
1106.000000	83.989486 
1105.000000	83.876552 
1104.000000	83.761514 
1103.000000	83.649205 
1102.000000	83.539614 
1101.000000	83.426371 
1100.000000	83.309657 
1099.000000	83.198455 
1098.000000	83.097013 
1097.000000	83.000480 
1096.000000	82.905234 
1095.000000	82.812263 
1094.000000	82.718867 
1093.000000	82.620800 
1092.000000	82.524494 
1091.000000	82.442977 
1090.000000	82.376861 
1089.000000	82.313240 
1088.000000	82.245681 
1087.000000	82.180668 
1086.000000	82.122212 
1085.000000	82.066071 
1084.000000	82.012386 
1083.000000	81.967579 
1082.000000	81.929291 
1081.000000	81.885405 
1080.000000	81.832836 
1079.000000	81.781833 
1078.000000	81.736755 
1077.000000	81.688014 
1076.000000	81.628335 
1075.000000	81.561132 
1074.000000	81.486837 
1073.000000	81.396112 
1072.000000	81.282891 
1071.000000	81.150140 
1070.000000	80.997262 
1069.000000	80.815925 
1068.000000	80.604549 
1067.000000	80.374035 
1066.000000	80.133982 
1065.000000	79.886413 
1064.000000	79.637362 
1063.000000	79.398309 
1062.000000	79.169212 
1061.000000	78.936036 
1060.000000	78.692808 
1059.000000	78.451189 
1058.000000	78.221131 
1057.000000	77.997313 
1056.000000	77.772513 
1055.000000	77.549155 
1054.000000	77.328922 
1053.000000	77.105154 
1052.000000	76.875125 
1051.000000	76.646952 
1050.000000	76.424979 
1049.000000	76.201386 
1048.000000	75.970128 
1047.000000	75.735014 
1046.000000	75.498551 
1045.000000	75.257477 
1044.000000	75.012981 
1043.000000	74.771223 
1042.000000	74.531291 
1041.000000	74.286783 
1040.000000	74.040961 
1039.000000	73.805175 
1038.000000	73.581328 
1037.000000	73.362651 
1036.000000	73.152421 
1035.000000	72.963270 
1034.000000	72.796452 
1033.000000	72.640895 
1032.000000	72.494333 
1031.000000	72.365760 
1030.000000	72.255537 
1029.000000	72.153757 
1028.000000	72.059878 
1027.000000	71.982703 
1026.000000	71.919099 
1025.000000	71.854764 
1024.000000	71.788146 
1023.000000	71.730842 
1022.000000	71.681749 
1021.000000	71.624243 
1020.000000	71.552852 
1019.000000	71.480348 
1018.000000	71.414711 
1017.000000	71.351092 
1016.000000	71.289060 
1015.000000	71.234776 
1014.000000	71.182952 
1013.000000	71.120222 
1012.000000	71.050173 
1011.000000	70.991757 
1010.000000	70.949601 
1009.000000	70.909819 
1008.000000	70.868684 
1007.000000	70.840297 
1006.000000	70.830593 
1005.000000	70.828501 
1004.000000	70.828679 
1003.000000	70.839264 
1002.000000	70.861277 
1001.000000	70.884335 
1000.000000	70.908990 
999.000000	 70.949350 
998.000000	 71.006572 
997.000000	 71.063131 
996.000000	 71.111066 
995.000000	 71.164036 
994.000000	 71.233788 
993.000000	 71.315814 
992.000000	 71.404564 
991.000000	 71.501440 
990.000000	 71.601246 
989.000000	 71.692226 
988.000000	 71.776954 
987.000000	 71.873398 
986.000000	 71.989274 
985.000000	 72.114878 
984.000000	 72.245421 
983.000000	 72.389430 
982.000000	 72.549779 
981.000000	 72.717739 
980.000000	 72.891588 
979.000000	 73.080201 
978.000000	 73.282507 
977.000000	 73.484517 
976.000000	 73.683106 
975.000000	 73.892302 
974.000000	 74.119259 
973.000000	 74.353867 
972.000000	 74.588708 
971.000000	 74.830167 
970.000000	 75.082349 
969.000000	 75.337805 
968.000000	 75.591273 
967.000000	 75.846488 
966.000000	 76.103891 
965.000000	 76.357420 
964.000000	 76.608027 
963.000000	 76.864624 
962.000000	 77.127612 
961.000000	 77.386861 
960.000000	 77.638686 
959.000000	 77.888696 
958.000000	 78.135580 
957.000000	 78.369353 
956.000000	 78.589048 
955.000000	 78.805790 
954.000000	 79.025115 
953.000000	 79.241836 
952.000000	 79.454344 
951.000000	 79.666808 
950.000000	 79.874979 
949.000000	 80.067708 
948.000000	 80.245916 
947.000000	 80.422755 
946.000000	 80.601144 
945.000000	 80.768312 
944.000000	 80.917179 
943.000000	 81.056682 
942.000000	 81.196536 
941.000000	 81.337136 
940.000000	 81.478976 
939.000000	 81.625976 
938.000000	 81.774323 
937.000000	 81.913299 
936.000000	 82.042200 
935.000000	 82.172389 
934.000000	 82.308884 
933.000000	 82.444970 
932.000000	 82.578773 
931.000000	 82.718925 
930.000000	 82.868412 
929.000000	 83.017914 
928.000000	 83.161024 
927.000000	 83.302021 
926.000000	 83.443225 
925.000000	 83.578244 
924.000000	 83.703374 
923.000000	 83.823215 
922.000000	 83.940197 
921.000000	 84.050601 
920.000000	 84.154830 
919.000000	 84.259034 
918.000000	 84.362516 
917.000000	 84.456097 
916.000000	 84.537586 
915.000000	 84.617721 
914.000000	 84.707522 
913.000000	 84.811134 
912.000000	 84.932995 
911.000000	 85.078260 
910.000000	 85.242749 
909.000000	 85.415996 
908.000000	 85.597671 
907.000000	 85.797999 
906.000000	 86.019841 
905.000000	 86.254307 
904.000000	 86.496396 
903.000000	 86.749989 
902.000000	 87.013349 
901.000000	 87.274040 
900.000000	 87.523602 
899.000000	 87.765854 
898.000000	 88.006492 
897.000000	 88.244803 
896.000000	 88.478360 
895.000000	 88.705639 
894.000000	 88.922089 
893.000000	 89.123697 
892.000000	 89.315755 
891.000000	 89.507868 
890.000000	 89.698870 
889.000000	 89.876066 
888.000000	 90.029560 
887.000000	 90.157929 
886.000000	 90.261961 
885.000000	 90.344875 
884.000000	 90.417911 
883.000000	 90.492450 
882.000000	 90.566100 
881.000000	 90.630301 
880.000000	 90.692118 
879.000000	 90.772726 
878.000000	 90.881801 
877.000000	 91.009309 
876.000000	 91.145836 
875.000000	 91.295091 
874.000000	 91.462942 
873.000000	 91.650803 
872.000000	 91.863523 
871.000000	 92.106037 
870.000000	 92.365972 
869.000000	 92.615205 
868.000000	 92.835639 
867.000000	 93.031739 
866.000000	 93.214960 
865.000000	 93.389990 
864.000000	 93.561380 
863.000000	 93.739204 
862.000000	 93.928183 
861.000000	 94.119985 
860.000000	 94.304009 
859.000000	 94.478711 
858.000000	 94.646945 
857.000000	 94.807708 
856.000000	 94.958420 
855.000000	 95.099302 
854.000000	 95.230112 
853.000000	 95.347089 
852.000000	 95.446988 
851.000000	 95.530949 
850.000000	 95.603756 
849.000000	 95.673743 
848.000000	 95.752073 
847.000000	 95.844312 
846.000000	 95.942298 
845.000000	 96.031854 
844.000000	 96.108128 
843.000000	 96.175268 
842.000000	 96.232753 
841.000000	 96.273000 
840.000000	 96.293102 
839.000000	 96.298181 
838.000000	 96.291837 
837.000000	 96.274384 
836.000000	 96.253083 
835.000000	 96.242549 
834.000000	 96.249372 
833.000000	 96.264995 
832.000000	 96.278634 
831.000000	 96.289262 
830.000000	 96.301235 
829.000000	 96.317143 
828.000000	 96.340108 
827.000000	 96.374983 
826.000000	 96.421731 
825.000000	 96.474394 
824.000000	 96.529464 
823.000000	 96.586685 
822.000000	 96.641081 
821.000000	 96.685511 
820.000000	 96.720695 
819.000000	 96.749790 
818.000000	 96.762807 
817.000000	 96.739638 
816.000000	 96.671423 
815.000000	 96.567880 
814.000000	 96.439079 
813.000000	 96.279261 
812.000000	 96.073229 
811.000000	 95.808702 
810.000000	 95.475882 
809.000000	 95.064175 
808.000000	 94.569143 
807.000000	 93.999340 
806.000000	 93.371524 
805.000000	 92.704980 
804.000000	 92.025096 
803.000000	 91.363621 
802.000000	 90.748070 
801.000000	 90.198391 
800.000000	 89.737400 
799.000000	 89.390454 
798.000000	 89.166778 
797.000000	 89.052549 
796.000000	 89.027028 
795.000000	 89.072222 
794.000000	 89.165001 
793.000000	 89.278194 
792.000000	 89.395452 
791.000000	 89.510424 
790.000000	 89.608800 
789.000000	 89.667776 
788.000000	 89.676126 
787.000000	 89.637207 
786.000000	 89.548190 
785.000000	 89.394741 
784.000000	 89.173896 
783.000000	 88.907183 
782.000000	 88.624920 
781.000000	 88.353403 
780.000000	 88.122753 
779.000000	 87.966209 
778.000000	 87.898612 
777.000000	 87.909791 
776.000000	 87.987197 
775.000000	 88.128589 
774.000000	 88.325183 
773.000000	 88.552111 
772.000000	 88.787211 
771.000000	 89.024013 
770.000000	 89.257262 
769.000000	 89.471868 
768.000000	 89.656344 
767.000000	 89.812868 
766.000000	 89.944844 
765.000000	 90.048962 
764.000000	 90.129825 
763.000000	 90.208694 
762.000000	 90.305478 
761.000000	 90.421689 
760.000000	 90.549421 
759.000000	 90.684908 
758.000000	 90.824237 
757.000000	 90.959391 
756.000000	 91.090506 
755.000000	 91.230863 
754.000000	 91.386937 
753.000000	 91.541706 
752.000000	 91.670016 
751.000000	 91.765369 
750.000000	 91.843039 
749.000000	 91.922594 
748.000000	 92.014912 
747.000000	 92.120451 
746.000000	 92.232248 
745.000000	 92.343707 
744.000000	 92.457483 
743.000000	 92.582523 
742.000000	 92.720605 
741.000000	 92.863057 
740.000000	 93.003106 
739.000000	 93.142774 
738.000000	 93.284354 
737.000000	 93.423530 
736.000000	 93.554819 
735.000000	 93.676514 
734.000000	 93.786688 
733.000000	 93.881538 
732.000000	 93.960596 
731.000000	 94.027576 
730.000000	 94.084131 
729.000000	 94.127859 
728.000000	 94.160060 
727.000000	 94.188118 
726.000000	 94.218239 
725.000000	 94.256845 
724.000000	 94.316705 
723.000000	 94.406854 
722.000000	 94.516126 
721.000000	 94.621597 
720.000000	 94.715987 
719.000000	 94.809110 
718.000000	 94.899898 
717.000000	 94.970561 
716.000000	 95.014504 
715.000000	 95.051230 
714.000000	 95.103358 
713.000000	 95.171546 
712.000000	 95.244447 
711.000000	 95.318725 
710.000000	 95.394740 
709.000000	 95.467442 
708.000000	 95.530175 
707.000000	 95.582315 
706.000000	 95.620320 
705.000000	 95.630412 
704.000000	 95.602255 
703.000000	 95.537569 
702.000000	 95.437645 
701.000000	 95.290407 
700.000000	 95.078369 
699.000000	 94.798115 
698.000000	 94.465661 
697.000000	 94.116972 
696.000000	 93.811087 
695.000000	 93.612241 
694.000000	 93.557255 
693.000000	 93.638185 
692.000000	 93.814875 
691.000000	 94.040415 
690.000000	 94.272135 
689.000000	 94.478945 
688.000000	 94.652687 
687.000000	 94.803804 
686.000000	 94.942389 
685.000000	 95.067555 
684.000000	 95.174863 
683.000000	 95.264406 
682.000000	 95.336878 
681.000000	 95.396452 
680.000000	 95.459340 
679.000000	 95.547155 
678.000000	 95.659583 
677.000000	 95.768017 
676.000000	 95.855118 
675.000000	 95.929750 
674.000000	 95.998507 
673.000000	 96.055288 
672.000000	 96.110107 
671.000000	 96.215688 
670.000000	 96.429315 
669.000000	 96.757605 
668.000000	 97.012756 
667.000000	 96.986269 
666.000000	 96.804654 
665.000000	 96.661222 
664.000000	 96.584605 
663.000000	 96.564016 
662.000000	 96.584112 
661.000000	 96.623023 
660.000000	 96.664624 
659.000000	 96.712465 
658.000000	 96.763701 
657.000000	 96.791013 
656.000000	 96.782323 
655.000000	 96.760692 
654.000000	 96.745586 
653.000000	 96.725444 
652.000000	 96.689312 
651.000000	 96.654132 
650.000000	 96.637345 

