4000.000000	97.468134 
3999.000000	97.467597 
3998.000000	97.465450 
3997.000000	97.462581 
3996.000000	97.460368 
3995.000000	97.459560 
3994.000000	97.459997 
3993.000000	97.460668 
3992.000000	97.460525 
3991.000000	97.459519 
3990.000000	97.458680 
3989.000000	97.459002 
3988.000000	97.460293 
3987.000000	97.461407 
3986.000000	97.461609 
3985.000000	97.461197 
3984.000000	97.460721 
3983.000000	97.460201 
3982.000000	97.459546 
3981.000000	97.459174 
3980.000000	97.459541 
3979.000000	97.460323 
3978.000000	97.460726 
3977.000000	97.460637 
3976.000000	97.460840 
3975.000000	97.461813 
3974.000000	97.462884 
3973.000000	97.462979 
3972.000000	97.461815 
3971.000000	97.460091 
3970.000000	97.458746 
3969.000000	97.458294 
3968.000000	97.458554 
3967.000000	97.458866 
3966.000000	97.458571 
3965.000000	97.457307 
3964.000000	97.455037 
3963.000000	97.452073 
3962.000000	97.449159 
3961.000000	97.447217 
3960.000000	97.446616 
3959.000000	97.446937 
3958.000000	97.447548 
3957.000000	97.448320 
3956.000000	97.449280 
3955.000000	97.449989 
3954.000000	97.449859 
3953.000000	97.448800 
3952.000000	97.447305 
3951.000000	97.445828 
3950.000000	97.444381 
3949.000000	97.442714 
3948.000000	97.440696 
3947.000000	97.438661 
3946.000000	97.437199 
3945.000000	97.436536 
3944.000000	97.436273 
3943.000000	97.435948 
3942.000000	97.435710 
3941.000000	97.435956 
3940.000000	97.436554 
3939.000000	97.436917 
3938.000000	97.436720 
3937.000000	97.436417 
3936.000000	97.436434 
3935.000000	97.436161 
3934.000000	97.434542 
3933.000000	97.431455 
3932.000000	97.428149 
3931.000000	97.425811 
3930.000000	97.424573 
3929.000000	97.424308 
3928.000000	97.425176 
3927.000000	97.426910 
3926.000000	97.428053 
3925.000000	97.427346 
3924.000000	97.425396 
3923.000000	97.423602 
3922.000000	97.422144 
3921.000000	97.420466 
3920.000000	97.418803 
3919.000000	97.418040 
3918.000000	97.418025 
3917.000000	97.417751 
3916.000000	97.417091 
3915.000000	97.417042 
3914.000000	97.417986 
3913.000000	97.419177 
3912.000000	97.419739 
3911.000000	97.419606 
3910.000000	97.418916 
3909.000000	97.417897 
3908.000000	97.416815 
3907.000000	97.415848 
3906.000000	97.414617 
3905.000000	97.412299 
3904.000000	97.408901 
3903.000000	97.405629 
3902.000000	97.403717 
3901.000000	97.403334 
3900.000000	97.403858 
3899.000000	97.404786 
3898.000000	97.405877 
3897.000000	97.406716 
3896.000000	97.406914 
3895.000000	97.406587 
3894.000000	97.406108 
3893.000000	97.405687 
3892.000000	97.405147 
3891.000000	97.404423 
3890.000000	97.403772 
3889.000000	97.403419 
3888.000000	97.403279 
3887.000000	97.403121 
3886.000000	97.402876 
3885.000000	97.402643 
3884.000000	97.402457 
3883.000000	97.402261 
3882.000000	97.402035 
3881.000000	97.401814 
3880.000000	97.401628 
3879.000000	97.401478 
3878.000000	97.401355 
3877.000000	97.401251 
3876.000000	97.401158 
3875.000000	97.401071 
3874.000000	97.400991 
3873.000000	97.400917 
3872.000000	97.400846 
3871.000000	97.400774 
3870.000000	97.400715 
3869.000000	97.400698 
3868.000000	97.400744 
3867.000000	97.400842 
3866.000000	97.400969 
3865.000000	97.401115 
3864.000000	97.401283 
3863.000000	97.401468 
3862.000000	97.401657 
3861.000000	97.401836 
3860.000000	97.402002 
3859.000000	97.402151 
3858.000000	97.402273 
3857.000000	97.402359 
3856.000000	97.402406 
3855.000000	97.402421 
3854.000000	97.402411 
3853.000000	97.402495 
3852.000000	97.402787 
3851.000000	97.403220 
3850.000000	97.403646 
3849.000000	97.404014 
3848.000000	97.404416 
3847.000000	97.404927 
3846.000000	97.405442 
3845.000000	97.405803 
3844.000000	97.405955 
3843.000000	97.405945 
3842.000000	97.405889 
3841.000000	97.405879 
3840.000000	97.405895 
3839.000000	97.405947 
3838.000000	97.406075 
3837.000000	97.406254 
3836.000000	97.406432 
3835.000000	97.406607 
3834.000000	97.406801 
3833.000000	97.407009 
3832.000000	97.407218 
3831.000000	97.407429 
3830.000000	97.407641 
3829.000000	97.407837 
3828.000000	97.407998 
3827.000000	97.408116 
3826.000000	97.408200 
3825.000000	97.408250 
3824.000000	97.408272 
3823.000000	97.408274 
3822.000000	97.408254 
3821.000000	97.408215 
3820.000000	97.408172 
3819.000000	97.408137 
3818.000000	97.408109 
3817.000000	97.408070 
3816.000000	97.408016 
3815.000000	97.407951 
3814.000000	97.407872 
3813.000000	97.407767 
3812.000000	97.407625 
3811.000000	97.407450 
3810.000000	97.407255 
3809.000000	97.407046 
3808.000000	97.406818 
3807.000000	97.406567 
3806.000000	97.406306 
3805.000000	97.406059 
3804.000000	97.405843 
3803.000000	97.405665 
3802.000000	97.405527 
3801.000000	97.405433 
3800.000000	97.405377 
3799.000000	97.405338 
3798.000000	97.405292 
3797.000000	97.405225 
3796.000000	97.405136 
3795.000000	97.405020 
3794.000000	97.404861 
3793.000000	97.404643 
3792.000000	97.404360 
3791.000000	97.404014 
3790.000000	97.403605 
3789.000000	97.403152 
3788.000000	97.402653 
3787.000000	97.402077 
3786.000000	97.401462 
3785.000000	97.400803 
3784.000000	97.400067 
3783.000000	97.399435 
3782.000000	97.399091 
3781.000000	97.398862 
3780.000000	97.398426 
3779.000000	97.397971 
3778.000000	97.397923 
3777.000000	97.398088 
3776.000000	97.397519 
3775.000000	97.395646 
3774.000000	97.393231 
3773.000000	97.391766 
3772.000000	97.391597 
3771.000000	97.391587 
3770.000000	97.391097 
3769.000000	97.391019 
3768.000000	97.391890 
3767.000000	97.392722 
3766.000000	97.392192 
3765.000000	97.390522 
3764.000000	97.389499 
3763.000000	97.390040 
3762.000000	97.390743 
3761.000000	97.389975 
3760.000000	97.388211 
3759.000000	97.386954 
3758.000000	97.385474 
3757.000000	97.382450 
3756.000000	97.378570 
3755.000000	97.375176 
3754.000000	97.372241 
3753.000000	97.368987 
3752.000000	97.366236 
3751.000000	97.365042 
3750.000000	97.363863 
3749.000000	97.361543 
3748.000000	97.360271 
3747.000000	97.361879 
3746.000000	97.364099 
3745.000000	97.363251 
3744.000000	97.361357 
3743.000000	97.361958 
3742.000000	97.363703 
3741.000000	97.363658 
3740.000000	97.361670 
3739.000000	97.360314 
3738.000000	97.360734 
3737.000000	97.360907 
3736.000000	97.359476 
3735.000000	97.358368 
3734.000000	97.359458 
3733.000000	97.361188 
3732.000000	97.361227 
3731.000000	97.359526 
3730.000000	97.357350 
3729.000000	97.355413 
3728.000000	97.353489 
3727.000000	97.351545 
3726.000000	97.350438 
3725.000000	97.350512 
3724.000000	97.350798 
3723.000000	97.350448 
3722.000000	97.349886 
3721.000000	97.349772 
3720.000000	97.349796 
3719.000000	97.349428 
3718.000000	97.348187 
3717.000000	97.346119 
3716.000000	97.343906 
3715.000000	97.341766 
3714.000000	97.339248 
3713.000000	97.336278 
3712.000000	97.333764 
3711.000000	97.332448 
3710.000000	97.331827 
3709.000000	97.331153 
3708.000000	97.329911 
3707.000000	97.327808 
3706.000000	97.325358 
3705.000000	97.323541 
3704.000000	97.322694 
3703.000000	97.321681 
3702.000000	97.318556 
3701.000000	97.312566 
3700.000000	97.305123 
3699.000000	97.298745 
3698.000000	97.294378 
3697.000000	97.291162 
3696.000000	97.288652 
3695.000000	97.286644 
3694.000000	97.283821 
3693.000000	97.279537 
3692.000000	97.275737 
3691.000000	97.274862 
3690.000000	97.275585 
3689.000000	97.274239 
3688.000000	97.269962 
3687.000000	97.265008 
3686.000000	97.260858 
3685.000000	97.256329 
3684.000000	97.250624 
3683.000000	97.245729 
3682.000000	97.243176 
3681.000000	97.239825 
3680.000000	97.231886 
3679.000000	97.221114 
3678.000000	97.213223 
3677.000000	97.208210 
3676.000000	97.200582 
3675.000000	97.190632 
3674.000000	97.183231 
3673.000000	97.179605 
3672.000000	97.176219 
3671.000000	97.169296 
3670.000000	97.160738 
3669.000000	97.155343 
3668.000000	97.152709 
3667.000000	97.149643 
3666.000000	97.145887 
3665.000000	97.143018 
3664.000000	97.141471 
3663.000000	97.139890 
3662.000000	97.135877 
3661.000000	97.127896 
3660.000000	97.117050 
3659.000000	97.105573 
3658.000000	97.094771 
3657.000000	97.083238 
3656.000000	97.070594 
3655.000000	97.059323 
3654.000000	97.051260 
3653.000000	97.045258 
3652.000000	97.037890 
3651.000000	97.027197 
3650.000000	97.015408 
3649.000000	97.004909 
3648.000000	96.994988 
3647.000000	96.986297 
3646.000000	96.981767 
3645.000000	96.982259 
3644.000000	96.985014 
3643.000000	96.986552 
3642.000000	96.985035 
3641.000000	96.980740 
3640.000000	96.973883 
3639.000000	96.963738 
3638.000000	96.951365 
3637.000000	96.939796 
3636.000000	96.930446 
3635.000000	96.920460 
3634.000000	96.907495 
3633.000000	96.894259 
3632.000000	96.884834 
3631.000000	96.877735 
3630.000000	96.866433 
3629.000000	96.851446 
3628.000000	96.841511 
3627.000000	96.838388 
3626.000000	96.836492 
3625.000000	96.833310 
3624.000000	96.831744 
3623.000000	96.835857 
3622.000000	96.845130 
3621.000000	96.852914 
3620.000000	96.852159 
3619.000000	96.842299 
3618.000000	96.828717 
3617.000000	96.817891 
3616.000000	96.813689 
3615.000000	96.814710 
3614.000000	96.816818 
3613.000000	96.818565 
3612.000000	96.821390 
3611.000000	96.825104 
3610.000000	96.827299 
3609.000000	96.827073 
3608.000000	96.826419 
3607.000000	96.827004 
3606.000000	96.828107 
3605.000000	96.830048 
3604.000000	96.835686 
3603.000000	96.846521 
3602.000000	96.859534 
3601.000000	96.868986 
3600.000000	96.872661 
3599.000000	96.872463 
3598.000000	96.870517 
3597.000000	96.867701 
3596.000000	96.865308 
3595.000000	96.863710 
3594.000000	96.862112 
3593.000000	96.859240 
3592.000000	96.854506 
3591.000000	96.848765 
3590.000000	96.842991 
3589.000000	96.837445 
3588.000000	96.833284 
3587.000000	96.833057 
3586.000000	96.837232 
3585.000000	96.843329 
3584.000000	96.849581 
3583.000000	96.856546 
3582.000000	96.865357 
3581.000000	96.874734 
3580.000000	96.881322 
3579.000000	96.882863 
3578.000000	96.880371 
3577.000000	96.876966 
3576.000000	96.874801 
3575.000000	96.873626 
3574.000000	96.871927 
3573.000000	96.869114 
3572.000000	96.865455 
3571.000000	96.861527 
3570.000000	96.857700 
3569.000000	96.853894 
3568.000000	96.850493 
3567.000000	96.849101 
3566.000000	96.850494 
3565.000000	96.853163 
3564.000000	96.855049 
3563.000000	96.855232 
3562.000000	96.854023 
3561.000000	96.852486 
3560.000000	96.851596 
3559.000000	96.851692 
3558.000000	96.852521 
3557.000000	96.853838 
3556.000000	96.855549 
3555.000000	96.857376 
3554.000000	96.858696 
3553.000000	96.859244 
3552.000000	96.859531 
3551.000000	96.859902 
3550.000000	96.859780 
3549.000000	96.858493 
3548.000000	96.856317 
3547.000000	96.853925 
3546.000000	96.851206 
3545.000000	96.847739 
3544.000000	96.844337 
3543.000000	96.842723 
3542.000000	96.843572 
3541.000000	96.846018 
3540.000000	96.848754 
3539.000000	96.850987 
3538.000000	96.852265 
3537.000000	96.852237 
3536.000000	96.851086 
3535.000000	96.849519 
3534.000000	96.848172 
3533.000000	96.847181 
3532.000000	96.846572 
3531.000000	96.846528 
3530.000000	96.846920 
3529.000000	96.846953 
3528.000000	96.845854 
3527.000000	96.843877 
3526.000000	96.842181 
3525.000000	96.841644 
3524.000000	96.842214 
3523.000000	96.843281 
3522.000000	96.844293 
3521.000000	96.844979 
3520.000000	96.845297 
3519.000000	96.845413 
3518.000000	96.845654 
3517.000000	96.846168 
3516.000000	96.846667 
3515.000000	96.846690 
3514.000000	96.846217 
3513.000000	96.845705 
3512.000000	96.845414 
3511.000000	96.844991 
3510.000000	96.843964 
3509.000000	96.842424 
3508.000000	96.841055 
3507.000000	96.840481 
3506.000000	96.840752 
3505.000000	96.841386 
3504.000000	96.841791 
3503.000000	96.841757 
3502.000000	96.841485 
3501.000000	96.841252 
3500.000000	96.841155 
3499.000000	96.841136 
3498.000000	96.841097 
3497.000000	96.840975 
3496.000000	96.840736 
3495.000000	96.840359 
3494.000000	96.839877 
3493.000000	96.839357 
3492.000000	96.838793 
3491.000000	96.838135 
3490.000000	96.837506 
3489.000000	96.837189 
3488.000000	96.837251 
3487.000000	96.837364 
3486.000000	96.837227 
3485.000000	96.837021 
3484.000000	96.837125 
3483.000000	96.837422 
3482.000000	96.837334 
3481.000000	96.836622 
3480.000000	96.835776 
3479.000000	96.835388 
3478.000000	96.835359 
3477.000000	96.834979 
3476.000000	96.833696 
3475.000000	96.831702 
3474.000000	96.829735 
3473.000000	96.828386 
3472.000000	96.827695 
3471.000000	96.827409 
3470.000000	96.827523 
3469.000000	96.828273 
3468.000000	96.829483 
3467.000000	96.830395 
3466.000000	96.830447 
3465.000000	96.829842 
3464.000000	96.828954 
3463.000000	96.827578 
3462.000000	96.825276 
3461.000000	96.822269 
3460.000000	96.819473 
3459.000000	96.817530 
3458.000000	96.816234 
3457.000000	96.814976 
3456.000000	96.813483 
3455.000000	96.812022 
3454.000000	96.811090 
3453.000000	96.810950 
3452.000000	96.811496 
3451.000000	96.812389 
3450.000000	96.813180 
3449.000000	96.813360 
3448.000000	96.812457 
3447.000000	96.810329 
3446.000000	96.807357 
3445.000000	96.804313 
3444.000000	96.801910 
3443.000000	96.800413 
3442.000000	96.799633 
3441.000000	96.799172 
3440.000000	96.798702 
3439.000000	96.798066 
3438.000000	96.797172 
3437.000000	96.795898 
3436.000000	96.794208 
3435.000000	96.792350 
3434.000000	96.790803 
3433.000000	96.789839 
3432.000000	96.789292 
3431.000000	96.788805 
3430.000000	96.788203 
3429.000000	96.787543 
3428.000000	96.786822 
3427.000000	96.785889 
3426.000000	96.784695 
3425.000000	96.783450 
3424.000000	96.782384 
3423.000000	96.781488 
3422.000000	96.780599 
3421.000000	96.779618 
3420.000000	96.778584 
3419.000000	96.777577 
3418.000000	96.776643 
3417.000000	96.775784 
3416.000000	96.774993 
3415.000000	96.774229 
3414.000000	96.773421 
3413.000000	96.772514 
3412.000000	96.771528 
3411.000000	96.770566 
3410.000000	96.769717 
3409.000000	96.768967 
3408.000000	96.768242 
3407.000000	96.767505 
3406.000000	96.766801 
3405.000000	96.766198 
3404.000000	96.765727 
3403.000000	96.765314 
3402.000000	96.764807 
3401.000000	96.764096 
3400.000000	96.763205 
3399.000000	96.762255 
3398.000000	96.761355 
3397.000000	96.760572 
3396.000000	96.759965 
3395.000000	96.759560 
3394.000000	96.759287 
3393.000000	96.758968 
3392.000000	96.758433 
3391.000000	96.757643 
3390.000000	96.756740 
3389.000000	96.756001 
3388.000000	96.755665 
3387.000000	96.755770 
3386.000000	96.756100 
3385.000000	96.756281 
3384.000000	96.755988 
3383.000000	96.755099 
3382.000000	96.753847 
3381.000000	96.752787 
3380.000000	96.752328 
3379.000000	96.752268 
3378.000000	96.752026 
3377.000000	96.751519 
3376.000000	96.751381 
3375.000000	96.752031 
3374.000000	96.752967 
3373.000000	96.753379 
3372.000000	96.753263 
3371.000000	96.753408 
3370.000000	96.754351 
3369.000000	96.755769 
3368.000000	96.756894 
3367.000000	96.757238 
3366.000000	96.756908 
3365.000000	96.756531 
3364.000000	96.756844 
3363.000000	96.758039 
3362.000000	96.759438 
3361.000000	96.760098 
3360.000000	96.759829 
3359.000000	96.759321 
3358.000000	96.759208 
3357.000000	96.759350 
3356.000000	96.759296 
3355.000000	96.759209 
3354.000000	96.759895 
3353.000000	96.761947 
3352.000000	96.765082 
3351.000000	96.768264 
3350.000000	96.770467 
3349.000000	96.771353 
3348.000000	96.771415 
3347.000000	96.771560 
3346.000000	96.772462 
3345.000000	96.774203 
3344.000000	96.776295 
3343.000000	96.777969 
3342.000000	96.778652 
3341.000000	96.778441 
3340.000000	96.777984 
3339.000000	96.777688 
3338.000000	96.777316 
3337.000000	96.776577 
3336.000000	96.775712 
3335.000000	96.775190 
3334.000000	96.775103 
3333.000000	96.775205 
3332.000000	96.775451 
3331.000000	96.776075 
3330.000000	96.777085 
3329.000000	96.778065 
3328.000000	96.778698 
3327.000000	96.779220 
3326.000000	96.780081 
3325.000000	96.781258 
3324.000000	96.782140 
3323.000000	96.782177 
3322.000000	96.781452 
3321.000000	96.780581 
3320.000000	96.780110 
3319.000000	96.780101 
3318.000000	96.780327 
3317.000000	96.780665 
3316.000000	96.781168 
3315.000000	96.781819 
3314.000000	96.782436 
3313.000000	96.782876 
3312.000000	96.783209 
3311.000000	96.783626 
3310.000000	96.784235 
3309.000000	96.784987 
3308.000000	96.785724 
3307.000000	96.786263 
3306.000000	96.786527 
3305.000000	96.786607 
3304.000000	96.786696 
3303.000000	96.786946 
3302.000000	96.787371 
3301.000000	96.787888 
3300.000000	96.788399 
3299.000000	96.788842 
3298.000000	96.789201 
3297.000000	96.789524 
3296.000000	96.789935 
3295.000000	96.790533 
3294.000000	96.791313 
3293.000000	96.792155 
3292.000000	96.792917 
3291.000000	96.793550 
3290.000000	96.794088 
3289.000000	96.794591 
3288.000000	96.795109 
3287.000000	96.795686 
3286.000000	96.796339 
3285.000000	96.797033 
3284.000000	96.797690 
3283.000000	96.798274 
3282.000000	96.798830 
3281.000000	96.799410 
3280.000000	96.799972 
3279.000000	96.800423 
3278.000000	96.800783 
3277.000000	96.801248 
3276.000000	96.801991 
3275.000000	96.802971 
3274.000000	96.803986 
3273.000000	96.804909 
3272.000000	96.805794 
3271.000000	96.806741 
3270.000000	96.807722 
3269.000000	96.808586 
3268.000000	96.809177 
3267.000000	96.809454 
3266.000000	96.809548 
3265.000000	96.809749 
3264.000000	96.810304 
3263.000000	96.811217 
3262.000000	96.812249 
3261.000000	96.813187 
3260.000000	96.814032 
3259.000000	96.814827 
3258.000000	96.815443 
3257.000000	96.815743 
3256.000000	96.815868 
3255.000000	96.816132 
3254.000000	96.816618 
3253.000000	96.817152 
3252.000000	96.817675 
3251.000000	96.818371 
3250.000000	96.819301 
3249.000000	96.820139 
3248.000000	96.820530 
3247.000000	96.820592 
3246.000000	96.820822 
3245.000000	96.821502 
3244.000000	96.822418 
3243.000000	96.823163 
3242.000000	96.823553 
3241.000000	96.823700 
3240.000000	96.823897 
3239.000000	96.824506 
3238.000000	96.825750 
3237.000000	96.827474 
3236.000000	96.829235 
3235.000000	96.830734 
3234.000000	96.831933 
3233.000000	96.832712 
3232.000000	96.832789 
3231.000000	96.832187 
3230.000000	96.831532 
3229.000000	96.831465 
3228.000000	96.832015 
3227.000000	96.832926 
3226.000000	96.834298 
3225.000000	96.836337 
3224.000000	96.838598 
3223.000000	96.840254 
3222.000000	96.841190 
3221.000000	96.842134 
3220.000000	96.843524 
3219.000000	96.844876 
3218.000000	96.845660 
3217.000000	96.846046 
3216.000000	96.846352 
3215.000000	96.846425 
3214.000000	96.846158 
3213.000000	96.846104 
3212.000000	96.846869 
3211.000000	96.848198 
3210.000000	96.849345 
3209.000000	96.850168 
3208.000000	96.851175 
3207.000000	96.852535 
3206.000000	96.853838 
3205.000000	96.854915 
3204.000000	96.856204 
3203.000000	96.858053 
3202.000000	96.860168 
3201.000000	96.862021 
3200.000000	96.863482 
3199.000000	96.864812 
3198.000000	96.866268 
3197.000000	96.867896 
3196.000000	96.869567 
3195.000000	96.871072 
3194.000000	96.872283 
3193.000000	96.873313 
3192.000000	96.874484 
3191.000000	96.875997 
3190.000000	96.877623 
3189.000000	96.878838 
3188.000000	96.879361 
3187.000000	96.879579 
3186.000000	96.880348 
3185.000000	96.882202 
3184.000000	96.884860 
3183.000000	96.887476 
3182.000000	96.889489 
3181.000000	96.890943 
3180.000000	96.892036 
3179.000000	96.892775 
3178.000000	96.893269 
3177.000000	96.893998 
3176.000000	96.895422 
3175.000000	96.897554 
3174.000000	96.900108 
3173.000000	96.902890 
3172.000000	96.905747 
3171.000000	96.908310 
3170.000000	96.910222 
3169.000000	96.911541 
3168.000000	96.912636 
3167.000000	96.913761 
3166.000000	96.915022 
3165.000000	96.916523 
3164.000000	96.918160 
3163.000000	96.919449 
3162.000000	96.920046 
3161.000000	96.920301 
3160.000000	96.920891 
3159.000000	96.922024 
3158.000000	96.923566 
3157.000000	96.925781 
3156.000000	96.929147 
3155.000000	96.933333 
3154.000000	96.937059 
3153.000000	96.939442 
3152.000000	96.940793 
3151.000000	96.941826 
3150.000000	96.942615 
3149.000000	96.942840 
3148.000000	96.942614 
3147.000000	96.942505 
3146.000000	96.943026 
3145.000000	96.944461 
3144.000000	96.946786 
3143.000000	96.949396 
3142.000000	96.951287 
3141.000000	96.952080 
3140.000000	96.952593 
3139.000000	96.953950 
3138.000000	96.956236 
3137.000000	96.958430 
3136.000000	96.959575 
3135.000000	96.959665 
3134.000000	96.959483 
3133.000000	96.959957 
3132.000000	96.961600 
3131.000000	96.964277 
3130.000000	96.967313 
3129.000000	96.970029 
3128.000000	96.972272 
3127.000000	96.974348 
3126.000000	96.976512 
3125.000000	96.978687 
3124.000000	96.980627 
3123.000000	96.982204 
3122.000000	96.983498 
3121.000000	96.984769 
3120.000000	96.986329 
3119.000000	96.988296 
3118.000000	96.990463 
3117.000000	96.992450 
3116.000000	96.993997 
3115.000000	96.995124 
3114.000000	96.996115 
3113.000000	96.997403 
3112.000000	96.999289 
3111.000000	97.001647 
3110.000000	97.003928 
3109.000000	97.005621 
3108.000000	97.006727 
3107.000000	97.007752 
3106.000000	97.009202 
3105.000000	97.011048 
3104.000000	97.012715 
3103.000000	97.013632 
3102.000000	97.013750 
3101.000000	97.013621 
3100.000000	97.013957 
3099.000000	97.015061 
3098.000000	97.016795 
3097.000000	97.018942 
3096.000000	97.021388 
3095.000000	97.023898 
3094.000000	97.026069 
3093.000000	97.027619 
3092.000000	97.028679 
3091.000000	97.029579 
3090.000000	97.030504 
3089.000000	97.031475 
3088.000000	97.032494 
3087.000000	97.033611 
3086.000000	97.034854 
3085.000000	97.036173 
3084.000000	97.037455 
3083.000000	97.038626 
3082.000000	97.039719 
3081.000000	97.040842 
3080.000000	97.042072 
3079.000000	97.043389 
3078.000000	97.044690 
3077.000000	97.045903 
3076.000000	97.047060 
3075.000000	97.048224 
3074.000000	97.049390 
3073.000000	97.050520 
3072.000000	97.051629 
3071.000000	97.052748 
3070.000000	97.053842 
3069.000000	97.054845 
3068.000000	97.055782 
3067.000000	97.056769 
3066.000000	97.057863 
3065.000000	97.058986 
3064.000000	97.060045 
3063.000000	97.061034 
3062.000000	97.061953 
3061.000000	97.062749 
3060.000000	97.063420 
3059.000000	97.064127 
3058.000000	97.065056 
3057.000000	97.066255 
3056.000000	97.067602 
3055.000000	97.068847 
3054.000000	97.069697 
3053.000000	97.070002 
3052.000000	97.070062 
3051.000000	97.070540 
3050.000000	97.071763 
3049.000000	97.073251 
3048.000000	97.074183 
3047.000000	97.074366 
3046.000000	97.074366 
3045.000000	97.074696 
3044.000000	97.075264 
3043.000000	97.075869 
3042.000000	97.076740 
3041.000000	97.078121 
3040.000000	97.079546 
3039.000000	97.080119 
3038.000000	97.079484 
3037.000000	97.078098 
3036.000000	97.076663 
3035.000000	97.075540 
3034.000000	97.074817 
3033.000000	97.074497 
3032.000000	97.074449 
3031.000000	97.074476 
3030.000000	97.074627 
3029.000000	97.075141 
3028.000000	97.075814 
3027.000000	97.075733 
3026.000000	97.074117 
3025.000000	97.071319 
3024.000000	97.068679 
3023.000000	97.067192 
3022.000000	97.066752 
3021.000000	97.066761 
3020.000000	97.066910 
3019.000000	97.067030 
3018.000000	97.066598 
3017.000000	97.065074 
3016.000000	97.062648 
3015.000000	97.060221 
3014.000000	97.058625 
3013.000000	97.058090 
3012.000000	97.058275 
3011.000000	97.058337 
3010.000000	97.057184 
3009.000000	97.054272 
3008.000000	97.050296 
3007.000000	97.046738 
3006.000000	97.044412 
3005.000000	97.042884 
3004.000000	97.041337 
3003.000000	97.039659 
3002.000000	97.038489 
3001.000000	97.038396 
3000.000000	97.039200 
2999.000000	97.039892 
2998.000000	97.039297 
2997.000000	97.037125 
2996.000000	97.034393 
2995.000000	97.032506 
2994.000000	97.031847 
2993.000000	97.031594 
2992.000000	97.030792 
2991.000000	97.029119 
2990.000000	97.026611 
2989.000000	97.023442 
2988.000000	97.020355 
2987.000000	97.018654 
2986.000000	97.019151 
2985.000000	97.021366 
2984.000000	97.024074 
2983.000000	97.026516 
2982.000000	97.028750 
2981.000000	97.030976 
2980.000000	97.032829 
2979.000000	97.033361 
2978.000000	97.031751 
2977.000000	97.028320 
2976.000000	97.024950 
2975.000000	97.023854 
2974.000000	97.025533 
2973.000000	97.028284 
2972.000000	97.030032 
2971.000000	97.030425 
2970.000000	97.030680 
2969.000000	97.031865 
2968.000000	97.033956 
2967.000000	97.036191 
2966.000000	97.037584 
2965.000000	97.037348 
2964.000000	97.035696 
2963.000000	97.034313 
2962.000000	97.035147 
2961.000000	97.038476 
2960.000000	97.042766 
2959.000000	97.046663 
2958.000000	97.050347 
2957.000000	97.054402 
2956.000000	97.058177 
2955.000000	97.060316 
2954.000000	97.060703 
2953.000000	97.061012 
2952.000000	97.063172 
2951.000000	97.067637 
2950.000000	97.072960 
2949.000000	97.076707 
2948.000000	97.077132 
2947.000000	97.074615 
2946.000000	97.071583 
2945.000000	97.070323 
2944.000000	97.070758 
2943.000000	97.071028 
2942.000000	97.069953 
2941.000000	97.068003 
2940.000000	97.065969 
2939.000000	97.063999 
2938.000000	97.062399 
2937.000000	97.062158 
2936.000000	97.063584 
2935.000000	97.065192 
2934.000000	97.065168 
2933.000000	97.063555 
2932.000000	97.061954 
2931.000000	97.061271 
2930.000000	97.060846 
2929.000000	97.059851 
2928.000000	97.058448 
2927.000000	97.057269 
2926.000000	97.056630 
2925.000000	97.056747 
2924.000000	97.058047 
2923.000000	97.060659 
2922.000000	97.063871 
2921.000000	97.066628 
2920.000000	97.068566 
2919.000000	97.070254 
2918.000000	97.072346 
2917.000000	97.074558 
2916.000000	97.075635 
2915.000000	97.074586 
2914.000000	97.071947 
2913.000000	97.069620 
2912.000000	97.069090 
2911.000000	97.070042 
2910.000000	97.071078 
2909.000000	97.071471 
2908.000000	97.071730 
2907.000000	97.072526 
2906.000000	97.073756 
2905.000000	97.074820 
2904.000000	97.075219 
2903.000000	97.074930 
2902.000000	97.074473 
2901.000000	97.074728 
2900.000000	97.076426 
2899.000000	97.079413 
2898.000000	97.082756 
2897.000000	97.085613 
2896.000000	97.087695 
2895.000000	97.088852 
2894.000000	97.089011 
2893.000000	97.088835 
2892.000000	97.089635 
2891.000000	97.091900 
2890.000000	97.094435 
2889.000000	97.095762 
2888.000000	97.096012 
2887.000000	97.096479 
2886.000000	97.097548 
2885.000000	97.098296 
2884.000000	97.098351 
2883.000000	97.098810 
2882.000000	97.100603 
2881.000000	97.103030 
2880.000000	97.104894 
2879.000000	97.106544 
2878.000000	97.109475 
2877.000000	97.114144 
2876.000000	97.119212 
2875.000000	97.123093 
2874.000000	97.125445 
2873.000000	97.126845 
2872.000000	97.127824 
2871.000000	97.128580 
2870.000000	97.129201 
2869.000000	97.129687 
2868.000000	97.129965 
2867.000000	97.130126 
2866.000000	97.130482 
2865.000000	97.131256 
2864.000000	97.132390 
2863.000000	97.133876 
2862.000000	97.136005 
2861.000000	97.138941 
2860.000000	97.142199 
2859.000000	97.144939 
2858.000000	97.146868 
2857.000000	97.148556 
2856.000000	97.150757 
2855.000000	97.153568 
2854.000000	97.156393 
2853.000000	97.158628 
2852.000000	97.160194 
2851.000000	97.161399 
2850.000000	97.162568 
2849.000000	97.163898 
2848.000000	97.165480 
2847.000000	97.167262 
2846.000000	97.169047 
2845.000000	97.170692 
2844.000000	97.172308 
2843.000000	97.174146 
2842.000000	97.176279 
2841.000000	97.178494 
2840.000000	97.180484 
2839.000000	97.182084 
2838.000000	97.183351 
2837.000000	97.184470 
2836.000000	97.185662 
2835.000000	97.187057 
2834.000000	97.188631 
2833.000000	97.190256 
2832.000000	97.191818 
2831.000000	97.193273 
2830.000000	97.194612 
2829.000000	97.195829 
2828.000000	97.196955 
2827.000000	97.198086 
2826.000000	97.199305 
2825.000000	97.200612 
2824.000000	97.201942 
2823.000000	97.203220 
2822.000000	97.204416 
2821.000000	97.205544 
2820.000000	97.206621 
2819.000000	97.207657 
2818.000000	97.208663 
2817.000000	97.209655 
2816.000000	97.210650 
2815.000000	97.211650 
2814.000000	97.212647 
2813.000000	97.213624 
2812.000000	97.214566 
2811.000000	97.215473 
2810.000000	97.216362 
2809.000000	97.217257 
2808.000000	97.218176 
2807.000000	97.219118 
2806.000000	97.220074 
2805.000000	97.221031 
2804.000000	97.221974 
2803.000000	97.222885 
2802.000000	97.223755 
2801.000000	97.224592 
2800.000000	97.225414 
2799.000000	97.226225 
2798.000000	97.227017 
2797.000000	97.227787 
2796.000000	97.228544 
2795.000000	97.229301 
2794.000000	97.230068 
2793.000000	97.230852 
2792.000000	97.231651 
2791.000000	97.232461 
2790.000000	97.233276 
2789.000000	97.234095 
2788.000000	97.234920 
2787.000000	97.235757 
2786.000000	97.236609 
2785.000000	97.237476 
2784.000000	97.238351 
2783.000000	97.239225 
2782.000000	97.240091 
2781.000000	97.240949 
2780.000000	97.241806 
2779.000000	97.242667 
2778.000000	97.243533 
2777.000000	97.244401 
2776.000000	97.245266 
2775.000000	97.246121 
2774.000000	97.246961 
2773.000000	97.247786 
2772.000000	97.248599 
2771.000000	97.249404 
2770.000000	97.250211 
2769.000000	97.251026 
2768.000000	97.251847 
2767.000000	97.252662 
2766.000000	97.253456 
2765.000000	97.254221 
2764.000000	97.254958 
2763.000000	97.255673 
2762.000000	97.256373 
2761.000000	97.257061 
2760.000000	97.257743 
2759.000000	97.258421 
2758.000000	97.259097 
2757.000000	97.259772 
2756.000000	97.260440 
2755.000000	97.261099 
2754.000000	97.261753 
2753.000000	97.262412 
2752.000000	97.263080 
2751.000000	97.263741 
2750.000000	97.264364 
2749.000000	97.264945 
2748.000000	97.265503 
2747.000000	97.266044 
2746.000000	97.266535 
2745.000000	97.266967 
2744.000000	97.267385 
2743.000000	97.267842 
2742.000000	97.268348 
2741.000000	97.268866 
2740.000000	97.269351 
2739.000000	97.269782 
2738.000000	97.270158 
2737.000000	97.270497 
2736.000000	97.270845 
2735.000000	97.271258 
2734.000000	97.271758 
2733.000000	97.272306 
2732.000000	97.272843 
2731.000000	97.273343 
2730.000000	97.273838 
2729.000000	97.274379 
2728.000000	97.274974 
2727.000000	97.275550 
2726.000000	97.276007 
2725.000000	97.276332 
2724.000000	97.276596 
2723.000000	97.276889 
2722.000000	97.277236 
2721.000000	97.277618 
2720.000000	97.278024 
2719.000000	97.278465 
2718.000000	97.278939 
2717.000000	97.279421 
2716.000000	97.279886 
2715.000000	97.280327 
2714.000000	97.280752 
2713.000000	97.281179 
2712.000000	97.281625 
2711.000000	97.282092 
2710.000000	97.282556 
2709.000000	97.282983 
2708.000000	97.283363 
2707.000000	97.283758 
2706.000000	97.284280 
2705.000000	97.284997 
2704.000000	97.285836 
2703.000000	97.286596 
2702.000000	97.287111 
2701.000000	97.287405 
2700.000000	97.287710 
2699.000000	97.288280 
2698.000000	97.289151 
2697.000000	97.290043 
2696.000000	97.290554 
2695.000000	97.290537 
2694.000000	97.290287 
2693.000000	97.290292 
2692.000000	97.290748 
2691.000000	97.291379 
2690.000000	97.291790 
2689.000000	97.291869 
2688.000000	97.291670 
2687.000000	97.291090 
2686.000000	97.290079 
2685.000000	97.289129 
2684.000000	97.289050 
2683.000000	97.290077 
2682.000000	97.291458 
2681.000000	97.292245 
2680.000000	97.292271 
2679.000000	97.292060 
2678.000000	97.292135 
2677.000000	97.292776 
2676.000000	97.294106 
2675.000000	97.295804 
2674.000000	97.296917 
2673.000000	97.296699 
2672.000000	97.295630 
2671.000000	97.294937 
2670.000000	97.294959 
2669.000000	97.294834 
2668.000000	97.294045 
2667.000000	97.293300 
2666.000000	97.293283 
2665.000000	97.293262 
2664.000000	97.291966 
2663.000000	97.289417 
2662.000000	97.286951 
2661.000000	97.285416 
2660.000000	97.284270 
2659.000000	97.282694 
2658.000000	97.280800 
2657.000000	97.279296 
2656.000000	97.278444 
2655.000000	97.277773 
2654.000000	97.276584 
2653.000000	97.274529 
2652.000000	97.272025 
2651.000000	97.270302 
2650.000000	97.270519 
2649.000000	97.272477 
2648.000000	97.274401 
2647.000000	97.274539 
2646.000000	97.272855 
2645.000000	97.270717 
2644.000000	97.269221 
2643.000000	97.268318 
2642.000000	97.267586 
2641.000000	97.267084 
2640.000000	97.267141 
2639.000000	97.267733 
2638.000000	97.268437 
2637.000000	97.268793 
2636.000000	97.268633 
2635.000000	97.268211 
2634.000000	97.268037 
2633.000000	97.268319 
2632.000000	97.268565 
2631.000000	97.268078 
2630.000000	97.266808 
2629.000000	97.265285 
2628.000000	97.263864 
2627.000000	97.262513 
2626.000000	97.261359 
2625.000000	97.260843 
2624.000000	97.261098 
2623.000000	97.261599 
2622.000000	97.261710 
2621.000000	97.261273 
2620.000000	97.260384 
2619.000000	97.259025 
2618.000000	97.257331 
2617.000000	97.255934 
2616.000000	97.255408 
2615.000000	97.255520 
2614.000000	97.255402 
2613.000000	97.254581 
2612.000000	97.253413 
2611.000000	97.252493 
2610.000000	97.251997 
2609.000000	97.251734 
2608.000000	97.251477 
2607.000000	97.251159 
2606.000000	97.250919 
2605.000000	97.251013 
2604.000000	97.251455 
2603.000000	97.251818 
2602.000000	97.251678 
2601.000000	97.251128 
2600.000000	97.250611 
2599.000000	97.250323 
2598.000000	97.250039 
2597.000000	97.249563 
2596.000000	97.248997 
2595.000000	97.248502 
2594.000000	97.248043 
2593.000000	97.247558 
2592.000000	97.247153 
2591.000000	97.246928 
2590.000000	97.246753 
2589.000000	97.246408 
2588.000000	97.245875 
2587.000000	97.245338 
2586.000000	97.244972 
2585.000000	97.244782 
2584.000000	97.244685 
2583.000000	97.244606 
2582.000000	97.244493 
2581.000000	97.244303 
2580.000000	97.244049 
2579.000000	97.243788 
2578.000000	97.243557 
2577.000000	97.243317 
2576.000000	97.243013 
2575.000000	97.242649 
2574.000000	97.242281 
2573.000000	97.241953 
2572.000000	97.241658 
2571.000000	97.241359 
2570.000000	97.241032 
2569.000000	97.240684 
2568.000000	97.240341 
2567.000000	97.240017 
2566.000000	97.239707 
2565.000000	97.239398 
2564.000000	97.239083 
2563.000000	97.238763 
2562.000000	97.238444 
2561.000000	97.238134 
2560.000000	97.237835 
2559.000000	97.237547 
2558.000000	97.237263 
2557.000000	97.236971 
2556.000000	97.236657 
2555.000000	97.236318 
2554.000000	97.235954 
2553.000000	97.235562 
2552.000000	97.235109 
2551.000000	97.234582 
2550.000000	97.234068 
2549.000000	97.233696 
2548.000000	97.233437 
2547.000000	97.233044 
2546.000000	97.232348 
2545.000000	97.231537 
2544.000000	97.230945 
2543.000000	97.230622 
2542.000000	97.230293 
2541.000000	97.229753 
2540.000000	97.229121 
2539.000000	97.228656 
2538.000000	97.228432 
2537.000000	97.228233 
2536.000000	97.227759 
2535.000000	97.226934 
2534.000000	97.226029 
2533.000000	97.225402 
2532.000000	97.225124 
2531.000000	97.224986 
2530.000000	97.224877 
2529.000000	97.224845 
2528.000000	97.224760 
2527.000000	97.224310 
2526.000000	97.223557 
2525.000000	97.223107 
2524.000000	97.223375 
2523.000000	97.223953 
2522.000000	97.224058 
2521.000000	97.223393 
2520.000000	97.222197 
2519.000000	97.220775 
2518.000000	97.219396 
2517.000000	97.218359 
2516.000000	97.217565 
2515.000000	97.216348 
2514.000000	97.214514 
2513.000000	97.213162 
2512.000000	97.213533 
2511.000000	97.215459 
2510.000000	97.217663 
2509.000000	97.219321 
2508.000000	97.220529 
2507.000000	97.221298 
2506.000000	97.221350 
2505.000000	97.220999 
2504.000000	97.221203 
2503.000000	97.222287 
2502.000000	97.223345 
2501.000000	97.223407 
2500.000000	97.222653 
2499.000000	97.222069 
2498.000000	97.222243 
2497.000000	97.222953 
2496.000000	97.223781 
2495.000000	97.224596 
2494.000000	97.225295 
2493.000000	97.225561 
2492.000000	97.225239 
2491.000000	97.224723 
2490.000000	97.224650 
2489.000000	97.225208 
2488.000000	97.226024 
2487.000000	97.226654 
2486.000000	97.227038 
2485.000000	97.227349 
2484.000000	97.227626 
2483.000000	97.227763 
2482.000000	97.227729 
2481.000000	97.227591 
2480.000000	97.227339 
2479.000000	97.226960 
2478.000000	97.226762 
2477.000000	97.227271 
2476.000000	97.228496 
2475.000000	97.229535 
2474.000000	97.229396 
2473.000000	97.228089 
2472.000000	97.226643 
2471.000000	97.225912 
2470.000000	97.225797 
2469.000000	97.225870 
2468.000000	97.226100 
2467.000000	97.226546 
2466.000000	97.226797 
2465.000000	97.226443 
2464.000000	97.225949 
2463.000000	97.226376 
2462.000000	97.228252 
2461.000000	97.231163 
2460.000000	97.234326 
2459.000000	97.237176 
2458.000000	97.239235 
2457.000000	97.239892 
2456.000000	97.238632 
2455.000000	97.235657 
2454.000000	97.232273 
2453.000000	97.230156 
2452.000000	97.229887 
2451.000000	97.230393 
2450.000000	97.230272 
2449.000000	97.229609 
2448.000000	97.229743 
2447.000000	97.231176 
2446.000000	97.232536 
2445.000000	97.232021 
2444.000000	97.229356 
2443.000000	97.226011 
2442.000000	97.223899 
2441.000000	97.224066 
2440.000000	97.226260 
2439.000000	97.229402 
2438.000000	97.232716 
2437.000000	97.236395 
2436.000000	97.240745 
2435.000000	97.245000 
2434.000000	97.247781 
2433.000000	97.248656 
2432.000000	97.248437 
2431.000000	97.248081 
2430.000000	97.248155 
2429.000000	97.249196 
2428.000000	97.251343 
2427.000000	97.253429 
2426.000000	97.253578 
2425.000000	97.251209 
2424.000000	97.247855 
2423.000000	97.245642 
2422.000000	97.245514 
2421.000000	97.247400 
2420.000000	97.250973 
2419.000000	97.255273 
2418.000000	97.258619 
2417.000000	97.260318 
2416.000000	97.261557 
2415.000000	97.263530 
2414.000000	97.265521 
2413.000000	97.266277 
2412.000000	97.266199 
2411.000000	97.266219 
2410.000000	97.265745 
2409.000000	97.263959 
2408.000000	97.262091 
2407.000000	97.262198 
2406.000000	97.264316 
2405.000000	97.266822 
2404.000000	97.268869 
2403.000000	97.270570 
2402.000000	97.271651 
2401.000000	97.272077 
2400.000000	97.273316 
2399.000000	97.276850 
2398.000000	97.281855 
2397.000000	97.286386 
2396.000000	97.290082 
2395.000000	97.293497 
2394.000000	97.295539 
2393.000000	97.294443 
2392.000000	97.291317 
2391.000000	97.289827 
2390.000000	97.291529 
2389.000000	97.293767 
2388.000000	97.293106 
2387.000000	97.288998 
2386.000000	97.283349 
2385.000000	97.278442 
2384.000000	97.276377 
2383.000000	97.278866 
2382.000000	97.286359 
2381.000000	97.298355 
2380.000000	97.315037 
2379.000000	97.336890 
2378.000000	97.361363 
2377.000000	97.381538 
2376.000000	97.390757 
2375.000000	97.388149 
2374.000000	97.378098 
2373.000000	97.365023 
2372.000000	97.351168 
2371.000000	97.339334 
2370.000000	97.333580 
2369.000000	97.334666 
2368.000000	97.337282 
2367.000000	97.335078 
2366.000000	97.328330 
2365.000000	97.323976 
2364.000000	97.326809 
2363.000000	97.333458 
2362.000000	97.338659 
2361.000000	97.341179 
2360.000000	97.340445 
2359.000000	97.335578 
2358.000000	97.328358 
2357.000000	97.325144 
2356.000000	97.329410 
2355.000000	97.335554 
2354.000000	97.337723 
2353.000000	97.334349 
2352.000000	97.330095 
2351.000000	97.327537 
2350.000000	97.324242 
2349.000000	97.320003 
2348.000000	97.317767 
2347.000000	97.320836 
2346.000000	97.323189 
2345.000000	97.317319 
2344.000000	97.305086 
2343.000000	97.291519 
2342.000000	97.284729 
2341.000000	97.288166 
2340.000000	97.300235 
2339.000000	97.312914 
2338.000000	97.319848 
2337.000000	97.321782 
2336.000000	97.321846 
2335.000000	97.320497 
2334.000000	97.314228 
2333.000000	97.301139 
2332.000000	97.283100 
2331.000000	97.266235 
2330.000000	97.250743 
2329.000000	97.236327 
2328.000000	97.217704 
2327.000000	97.198654 
2326.000000	97.181475 
2325.000000	97.169459 
2324.000000	97.163430 
2323.000000	97.162588 
2322.000000	97.164269 
2321.000000	97.162727 
2320.000000	97.158067 
2319.000000	97.156959 
2318.000000	97.164248 
2317.000000	97.177326 
2316.000000	97.187252 
2315.000000	97.190479 
2314.000000	97.186063 
2313.000000	97.177437 
2312.000000	97.165130 
2311.000000	97.152684 
2310.000000	97.140054 
2309.000000	97.128083 
2308.000000	97.116609 
2307.000000	97.110469 
2306.000000	97.111467 
2305.000000	97.116944 
2304.000000	97.120247 
2303.000000	97.120433 
2302.000000	97.121088 
2301.000000	97.126344 
2300.000000	97.134220 
2299.000000	97.140714 
2298.000000	97.141596 
2297.000000	97.137397 
2296.000000	97.130775 
2295.000000	97.126647 
2294.000000	97.126654 
2293.000000	97.129562 
2292.000000	97.132499 
2291.000000	97.135626 
2290.000000	97.140978 
2289.000000	97.149238 
2288.000000	97.157874 
2287.000000	97.163572 
2286.000000	97.165473 
2285.000000	97.165429 
2284.000000	97.166245 
2283.000000	97.168971 
2282.000000	97.172487 
2281.000000	97.174600 
2280.000000	97.174222 
2279.000000	97.171573 
2278.000000	97.167579 
2277.000000	97.163430 
2276.000000	97.160794 
2275.000000	97.161257 
2274.000000	97.164992 
2273.000000	97.170631 
2272.000000	97.176123 
2271.000000	97.179842 
2270.000000	97.180996 
2269.000000	97.180185 
2268.000000	97.179166 
2267.000000	97.179052 
2266.000000	97.178927 
2265.000000	97.177532 
2264.000000	97.175503 
2263.000000	97.174510 
2262.000000	97.174351 
2261.000000	97.172950 
2260.000000	97.169513 
2259.000000	97.165923 
2258.000000	97.164486 
2257.000000	97.165468 
2256.000000	97.167881 
2255.000000	97.171079 
2254.000000	97.174541 
2253.000000	97.176916 
2252.000000	97.176883 
2251.000000	97.174583 
2250.000000	97.171107 
2249.000000	97.167201 
2248.000000	97.163387 
2247.000000	97.160741 
2246.000000	97.160062 
2245.000000	97.160452 
2244.000000	97.159826 
2243.000000	97.157274 
2242.000000	97.153892 
2241.000000	97.151310 
2240.000000	97.149950 
2239.000000	97.149093 
2238.000000	97.147874 
2237.000000	97.145939 
2236.000000	97.143582 
2235.000000	97.141519 
2234.000000	97.140211 
2233.000000	97.139343 
2232.000000	97.138258 
2231.000000	97.136836 
2230.000000	97.135414 
2229.000000	97.133969 
2228.000000	97.132106 
2227.000000	97.129809 
2226.000000	97.127491 
2225.000000	97.125198 
2224.000000	97.122488 
2223.000000	97.119232 
2222.000000	97.116067 
2221.000000	97.113672 
2220.000000	97.111907 
2219.000000	97.110124 
2218.000000	97.107872 
2217.000000	97.105154 
2216.000000	97.102230 
2215.000000	97.099387 
2214.000000	97.096769 
2213.000000	97.094333 
2212.000000	97.092036 
2211.000000	97.089997 
2210.000000	97.088304 
2209.000000	97.086794 
2208.000000	97.085179 
2207.000000	97.083346 
2206.000000	97.081380 
2205.000000	97.079383 
2204.000000	97.077353 
2203.000000	97.075231 
2202.000000	97.073098 
2201.000000	97.071301 
2200.000000	97.069879 
2199.000000	97.067848 
2198.000000	97.064196 
2197.000000	97.059725 
2196.000000	97.056664 
2195.000000	97.055913 
2194.000000	97.055948 
2193.000000	97.055148 
2192.000000	97.053967 
2191.000000	97.053267 
2190.000000	97.051770 
2189.000000	97.047612 
2188.000000	97.041855 
2187.000000	97.037623 
2186.000000	97.035399 
2185.000000	97.032250 
2184.000000	97.027170 
2183.000000	97.024365 
2182.000000	97.028031 
2181.000000	97.036027 
2180.000000	97.041385 
2179.000000	97.040404 
2178.000000	97.035661 
2177.000000	97.031700 
2176.000000	97.030456 
2175.000000	97.031661 
2174.000000	97.034661 
2173.000000	97.037916 
2172.000000	97.039221 
2171.000000	97.038413 
2170.000000	97.038034 
2169.000000	97.039649 
2168.000000	97.041362 
2167.000000	97.040819 
2166.000000	97.038591 
2165.000000	97.035944 
2164.000000	97.031100 
2163.000000	97.021520 
2162.000000	97.009735 
2161.000000	97.003271 
2160.000000	97.007559 
2159.000000	97.021274 
2158.000000	97.038428 
2157.000000	97.053171 
2156.000000	97.062734 
2155.000000	97.068318 
2154.000000	97.074655 
2153.000000	97.086656 
2152.000000	97.104226 
2151.000000	97.120634 
2150.000000	97.127555 
2149.000000	97.122309 
2148.000000	97.110495 
2147.000000	97.101862 
2146.000000	97.102465 
2145.000000	97.110979 
2144.000000	97.121778 
2143.000000	97.130977 
2142.000000	97.139211 
2141.000000	97.148930 
2140.000000	97.160544 
2139.000000	97.172215 
2138.000000	97.182740 
2137.000000	97.192619 
2136.000000	97.201664 
2135.000000	97.207035 
2134.000000	97.205728 
2133.000000	97.199318 
2132.000000	97.194186 
2131.000000	97.195473 
2130.000000	97.202085 
2129.000000	97.208881 
2128.000000	97.212726 
2127.000000	97.214793 
2126.000000	97.217409 
2125.000000	97.220958 
2124.000000	97.224459 
2123.000000	97.227148 
2122.000000	97.228174 
2121.000000	97.226279 
2120.000000	97.221427 
2119.000000	97.215958 
2118.000000	97.212869 
2117.000000	97.213148 
2116.000000	97.215327 
2115.000000	97.217243 
2114.000000	97.217698 
2113.000000	97.216956 
2112.000000	97.216368 
2111.000000	97.217212 
2110.000000	97.219310 
2109.000000	97.221088 
2108.000000	97.221529 
2107.000000	97.221526 
2106.000000	97.222668 
2105.000000	97.225439 
2104.000000	97.229327 
2103.000000	97.233407 
2102.000000	97.236063 
2101.000000	97.235460 
2100.000000	97.231556 
2099.000000	97.227341 
2098.000000	97.226583 
2097.000000	97.230220 
2096.000000	97.236015 
2095.000000	97.240995 
2094.000000	97.243790 
2093.000000	97.244498 
2092.000000	97.243604 
2091.000000	97.241830 
2090.000000	97.240405 
2089.000000	97.240554 
2088.000000	97.242457 
2087.000000	97.244860 
2086.000000	97.245992 
2085.000000	97.245037 
2084.000000	97.242767 
2083.000000	97.240756 
2082.000000	97.239806 
2081.000000	97.239530 
2080.000000	97.239607 
2079.000000	97.240772 
2078.000000	97.243729 
2077.000000	97.247329 
2076.000000	97.249181 
2075.000000	97.248369 
2074.000000	97.246260 
2073.000000	97.244085 
2072.000000	97.241250 
2071.000000	97.236993 
2070.000000	97.232112 
2069.000000	97.228234 
2068.000000	97.226139 
2067.000000	97.225510 
2066.000000	97.225579 
2065.000000	97.225126 
2064.000000	97.222661 
2063.000000	97.217726 
2062.000000	97.212007 
2061.000000	97.208386 
2060.000000	97.208244 
2059.000000	97.210476 
2058.000000	97.212598 
2057.000000	97.212852 
2056.000000	97.211129 
2055.000000	97.208186 
2054.000000	97.204806 
2053.000000	97.201395 
2052.000000	97.198053 
2051.000000	97.194839 
2050.000000	97.191936 
2049.000000	97.189531 
2048.000000	97.187515 
2047.000000	97.185562 
2046.000000	97.183582 
2045.000000	97.181926 
2044.000000	97.181023 
2043.000000	97.180880 
2042.000000	97.180961 
2041.000000	97.180614 
2040.000000	97.179740 
2039.000000	97.179016 
2038.000000	97.179161 
2037.000000	97.179953 
2036.000000	97.180266 
2035.000000	97.179381 
2034.000000	97.177911 
2033.000000	97.177161 
2032.000000	97.177580 
2031.000000	97.178155 
2030.000000	97.177441 
2029.000000	97.174966 
2028.000000	97.171582 
2027.000000	97.168809 
2026.000000	97.167491 
2025.000000	97.167466 
2024.000000	97.168077 
2023.000000	97.168987 
2022.000000	97.170377 
2021.000000	97.172284 
2020.000000	97.173937 
2019.000000	97.174072 
2018.000000	97.172019 
2017.000000	97.168514 
2016.000000	97.165401 
2015.000000	97.163970 
2014.000000	97.163761 
2013.000000	97.163046 
2012.000000	97.160949 
2011.000000	97.158869 
2010.000000	97.158874 
2009.000000	97.161089 
2008.000000	97.163484 
2007.000000	97.164355 
2006.000000	97.164213 
2005.000000	97.164395 
2004.000000	97.164991 
2003.000000	97.165196 
2002.000000	97.165012 
2001.000000	97.165160 
2000.000000	97.165510 
1999.000000	97.164830 
1998.000000	97.162353 
1997.000000	97.158759 
1996.000000	97.155444 
1995.000000	97.153356 
1994.000000	97.152716 
1993.000000	97.153206 
1992.000000	97.153983 
1991.000000	97.154217 
1990.000000	97.154030 
1989.000000	97.154340 
1988.000000	97.155564 
1987.000000	97.156899 
1986.000000	97.157218 
1985.000000	97.156389 
1984.000000	97.155272 
1983.000000	97.154724 
1982.000000	97.155015 
1981.000000	97.156110 
1980.000000	97.157949 
1979.000000	97.160247 
1978.000000	97.162425 
1977.000000	97.163988 
1976.000000	97.164810 
1975.000000	97.165144 
1974.000000	97.165644 
1973.000000	97.167138 
1972.000000	97.169935 
1971.000000	97.173465 
1970.000000	97.176652 
1969.000000	97.178833 
1968.000000	97.180061 
1967.000000	97.180863 
1966.000000	97.181995 
1965.000000	97.184037 
1964.000000	97.187144 
1963.000000	97.190926 
1962.000000	97.194646 
1961.000000	97.197764 
1960.000000	97.200174 
1959.000000	97.202016 
1958.000000	97.203586 
1957.000000	97.205452 
1956.000000	97.208211 
1955.000000	97.211832 
1954.000000	97.215440 
1953.000000	97.218233 
1952.000000	97.220345 
1951.000000	97.222434 
1950.000000	97.224826 
1949.000000	97.227534 
1948.000000	97.230782 
1947.000000	97.234672 
1946.000000	97.238387 
1945.000000	97.240526 
1944.000000	97.240295 
1943.000000	97.238016 
1942.000000	97.235026 
1941.000000	97.233080 
1940.000000	97.233428 
1939.000000	97.235919 
1938.000000	97.239016 
1937.000000	97.241526 
1936.000000	97.244065 
1935.000000	97.247697 
1934.000000	97.251851 
1933.000000	97.255267 
1932.000000	97.258327 
1931.000000	97.262484 
1930.000000	97.267471 
1929.000000	97.270734 
1928.000000	97.271087 
1927.000000	97.270265 
1926.000000	97.270360 
1925.000000	97.271373 
1924.000000	97.272195 
1923.000000	97.273170 
1922.000000	97.275267 
1921.000000	97.277756 
1920.000000	97.278907 
1919.000000	97.277767 
1918.000000	97.274631 
1917.000000	97.270532 
1916.000000	97.266867 
1915.000000	97.265227 
1914.000000	97.266041 
1913.000000	97.268100 
1912.000000	97.269974 
1911.000000	97.271445 
1910.000000	97.272800 
1909.000000	97.273529 
1908.000000	97.273348 
1907.000000	97.272838 
1906.000000	97.272473 
1905.000000	97.271749 
1904.000000	97.270035 
1903.000000	97.268279 
1902.000000	97.268087 
1901.000000	97.269586 
1900.000000	97.271646 
1899.000000	97.273292 
1898.000000	97.274171 
1897.000000	97.274258 
1896.000000	97.273713 
1895.000000	97.272979 
1894.000000	97.272439 
1893.000000	97.272105 
1892.000000	97.271944 
1891.000000	97.272116 
1890.000000	97.272676 
1889.000000	97.273373 
1888.000000	97.274022 
1887.000000	97.274768 
1886.000000	97.275663 
1885.000000	97.276399 
1884.000000	97.276684 
1883.000000	97.276610 
1882.000000	97.276556 
1881.000000	97.276842 
1880.000000	97.277478 
1879.000000	97.278270 
1878.000000	97.278986 
1877.000000	97.279616 
1876.000000	97.280370 
1875.000000	97.281425 
1874.000000	97.282739 
1873.000000	97.284108 
1872.000000	97.285380 
1871.000000	97.286542 
1870.000000	97.287589 
1869.000000	97.288485 
1868.000000	97.289311 
1867.000000	97.290269 
1866.000000	97.291372 
1865.000000	97.292356 
1864.000000	97.293109 
1863.000000	97.294003 
1862.000000	97.295464 
1861.000000	97.297381 
1860.000000	97.299196 
1859.000000	97.300636 
1858.000000	97.301963 
1857.000000	97.303524 
1856.000000	97.305439 
1855.000000	97.307637 
1854.000000	97.309871 
1853.000000	97.311732 
1852.000000	97.313137 
1851.000000	97.314579 
1850.000000	97.316442 
1849.000000	97.318416 
1848.000000	97.319910 
1847.000000	97.320954 
1846.000000	97.322152 
1845.000000	97.323826 
1844.000000	97.325740 
1843.000000	97.327674 
1842.000000	97.329768 
1841.000000	97.332090 
1840.000000	97.334697 
1839.000000	97.337751 
1838.000000	97.340997 
1837.000000	97.343189 
1836.000000	97.343144 
1835.000000	97.341534 
1834.000000	97.340426 
1833.000000	97.340736 
1832.000000	97.341798 
1831.000000	97.342405 
1830.000000	97.342081 
1829.000000	97.341714 
1828.000000	97.342452 
1827.000000	97.344934 
1826.000000	97.348853 
1825.000000	97.353155 
1824.000000	97.356519 
1823.000000	97.358442 
1822.000000	97.359775 
1821.000000	97.361033 
1820.000000	97.361636 
1819.000000	97.361389 
1818.000000	97.362291 
1817.000000	97.365808 
1816.000000	97.369429 
1815.000000	97.370708 
1814.000000	97.370807 
1813.000000	97.372410 
1812.000000	97.375029 
1811.000000	97.375177 
1810.000000	97.372991 
1809.000000	97.371837 
1808.000000	97.372310 
1807.000000	97.372442 
1806.000000	97.371738 
1805.000000	97.371507 
1804.000000	97.371747 
1803.000000	97.371238 
1802.000000	97.368736 
1801.000000	97.364568 
1800.000000	97.359604 
1799.000000	97.354493 
1798.000000	97.350954 
1797.000000	97.349119 
1796.000000	97.347217 
1795.000000	97.345494 
1794.000000	97.346288 
1793.000000	97.350654 
1792.000000	97.355540 
1791.000000	97.357507 
1790.000000	97.358561 
1789.000000	97.362213 
1788.000000	97.368436 
1787.000000	97.374373 
1786.000000	97.377655 
1785.000000	97.378139 
1784.000000	97.377114 
1783.000000	97.377242 
1782.000000	97.379284 
1781.000000	97.382178 
1780.000000	97.385475 
1779.000000	97.389406 
1778.000000	97.394702 
1777.000000	97.400143 
1776.000000	97.403652 
1775.000000	97.404460 
1774.000000	97.403339 
1773.000000	97.403231 
1772.000000	97.406795 
1771.000000	97.412062 
1770.000000	97.415995 
1769.000000	97.418102 
1768.000000	97.419068 
1767.000000	97.419777 
1766.000000	97.420636 
1765.000000	97.421893 
1764.000000	97.423475 
1763.000000	97.424852 
1762.000000	97.425741 
1761.000000	97.426899 
1760.000000	97.428866 
1759.000000	97.431224 
1758.000000	97.433283 
1757.000000	97.434838 
1756.000000	97.436755 
1755.000000	97.439299 
1754.000000	97.441640 
1753.000000	97.443066 
1752.000000	97.443884 
1751.000000	97.445117 
1750.000000	97.447090 
1749.000000	97.448901 
1748.000000	97.449778 
1747.000000	97.450150 
1746.000000	97.450719 
1745.000000	97.451911 
1744.000000	97.453746 
1743.000000	97.455571 
1742.000000	97.456632 
1741.000000	97.456972 
1740.000000	97.457202 
1739.000000	97.457920 
1738.000000	97.459387 
1737.000000	97.461466 
1736.000000	97.463185 
1735.000000	97.463012 
1734.000000	97.461206 
1733.000000	97.459358 
1732.000000	97.458880 
1731.000000	97.460264 
1730.000000	97.462597 
1729.000000	97.464169 
1728.000000	97.464659 
1727.000000	97.465162 
1726.000000	97.466023 
1725.000000	97.466904 
1724.000000	97.467231 
1723.000000	97.466951 
1722.000000	97.467228 
1721.000000	97.468553 
1720.000000	97.469861 
1719.000000	97.469474 
1718.000000	97.467727 
1717.000000	97.466080 
1716.000000	97.463295 
1715.000000	97.459301 
1714.000000	97.456738 
1713.000000	97.456312 
1712.000000	97.455765 
1711.000000	97.453829 
1710.000000	97.451301 
1709.000000	97.448925 
1708.000000	97.446860 
1707.000000	97.445440 
1706.000000	97.445189 
1705.000000	97.445289 
1704.000000	97.443426 
1703.000000	97.438927 
1702.000000	97.432436 
1701.000000	97.426211 
1700.000000	97.423078 
1699.000000	97.421514 
1698.000000	97.421315 
1697.000000	97.422276 
1696.000000	97.422220 
1695.000000	97.420665 
1694.000000	97.419103 
1693.000000	97.418573 
1692.000000	97.418542 
1691.000000	97.417789 
1690.000000	97.415533 
1689.000000	97.411656 
1688.000000	97.407230 
1687.000000	97.403366 
1686.000000	97.400339 
1685.000000	97.398335 
1684.000000	97.396720 
1683.000000	97.394562 
1682.000000	97.392439 
1681.000000	97.390370 
1680.000000	97.388228 
1679.000000	97.386085 
1678.000000	97.383784 
1677.000000	97.381086 
1676.000000	97.378361 
1675.000000	97.376362 
1674.000000	97.374243 
1673.000000	97.371375 
1672.000000	97.368586 
1671.000000	97.366760 
1670.000000	97.365733 
1669.000000	97.364122 
1668.000000	97.362102 
1667.000000	97.361032 
1666.000000	97.360512 
1665.000000	97.359600 
1664.000000	97.358439 
1663.000000	97.358314 
1662.000000	97.358541 
1661.000000	97.356625 
1660.000000	97.353522 
1659.000000	97.351517 
1658.000000	97.350147 
1657.000000	97.347643 
1656.000000	97.343446 
1655.000000	97.336822 
1654.000000	97.328327 
1653.000000	97.324948 
1652.000000	97.323480 
1651.000000	97.322096 
1650.000000	97.321768 
1649.000000	97.321451 
1648.000000	97.318747 
1647.000000	97.315485 
1646.000000	97.314900 
1645.000000	97.316085 
1644.000000	97.316336 
1643.000000	97.315757 
1642.000000	97.315664 
1641.000000	97.315390 
1640.000000	97.314933 
1639.000000	97.314310 
1638.000000	97.313337 
1637.000000	97.310879 
1636.000000	97.307414 
1635.000000	97.305212 
1634.000000	97.304950 
1633.000000	97.306157 
1632.000000	97.306453 
1631.000000	97.305670 
1630.000000	97.305659 
1629.000000	97.307172 
1628.000000	97.308929 
1627.000000	97.310537 
1626.000000	97.312088 
1625.000000	97.313414 
1624.000000	97.315366 
1623.000000	97.319037 
1622.000000	97.322715 
1621.000000	97.323750 
1620.000000	97.323452 
1619.000000	97.324369 
1618.000000	97.327183 
1617.000000	97.329812 
1616.000000	97.329828 
1615.000000	97.328859 
1614.000000	97.329484 
1613.000000	97.330669 
1612.000000	97.330658 
1611.000000	97.330606 
1610.000000	97.331941 
1609.000000	97.334574 
1608.000000	97.339145 
1607.000000	97.346383 
1606.000000	97.353714 
1605.000000	97.358559 
1604.000000	97.363131 
1603.000000	97.369203 
1602.000000	97.374304 
1601.000000	97.376116 
1600.000000	97.376615 
1599.000000	97.378818 
1598.000000	97.382206 
1597.000000	97.385045 
1596.000000	97.387766 
1595.000000	97.391796 
1594.000000	97.396676 
1593.000000	97.400778 
1592.000000	97.404008 
1591.000000	97.407081 
1590.000000	97.409261 
1589.000000	97.409868 
1588.000000	97.411380 
1587.000000	97.416643 
1586.000000	97.424038 
1585.000000	97.428186 
1584.000000	97.428558 
1583.000000	97.429602 
1582.000000	97.432430 
1581.000000	97.434952 
1580.000000	97.437421 
1579.000000	97.441217 
1578.000000	97.444656 
1577.000000	97.446630 
1576.000000	97.449414 
1575.000000	97.453291 
1574.000000	97.455889 
1573.000000	97.457577 
1572.000000	97.461174 
1571.000000	97.468167 
1570.000000	97.475285 
1569.000000	97.475394 
1568.000000	97.470729 
1567.000000	97.467804 
1566.000000	97.466161 
1565.000000	97.462973 
1564.000000	97.460968 
1563.000000	97.461334 
1562.000000	97.460952 
1561.000000	97.452024 
1560.000000	97.444661 
1559.000000	97.451575 
1558.000000	97.454823 
1557.000000	97.448759 
1556.000000	97.444097 
1555.000000	97.441879 
1554.000000	97.437982 
1553.000000	97.432243 
1552.000000	97.427778 
1551.000000	97.422149 
1550.000000	97.412863 
1549.000000	97.402833 
1548.000000	97.396373 
1547.000000	97.392581 
1546.000000	97.384787 
1545.000000	97.369101 
1544.000000	97.350945 
1543.000000	97.337618 
1542.000000	97.331497 
1541.000000	97.330076 
1540.000000	97.324828 
1539.000000	97.312027 
1538.000000	97.296432 
1537.000000	97.281556 
1536.000000	97.267337 
1535.000000	97.254096 
1534.000000	97.242523 
1533.000000	97.233118 
1532.000000	97.225143 
1531.000000	97.217573 
1530.000000	97.210246 
1529.000000	97.201923 
1528.000000	97.189861 
1527.000000	97.173589 
1526.000000	97.155885 
1525.000000	97.140406 
1524.000000	97.128768 
1523.000000	97.119119 
1522.000000	97.107279 
1521.000000	97.090385 
1520.000000	97.071032 
1519.000000	97.053955 
1518.000000	97.039401 
1517.000000	97.024766 
1516.000000	97.009475 
1515.000000	96.996374 
1514.000000	96.986910 
1513.000000	96.978980 
1512.000000	96.968769 
1511.000000	96.954062 
1510.000000	96.936328 
1509.000000	96.917817 
1508.000000	96.900135 
1507.000000	96.884316 
1506.000000	96.870983 
1505.000000	96.858026 
1504.000000	96.844219 
1503.000000	96.829666 
1502.000000	96.814400 
1501.000000	96.798737 
1500.000000	96.783679 
1499.000000	96.769537 
1498.000000	96.755167 
1497.000000	96.740064 
1496.000000	96.724747 
1495.000000	96.710456 
1494.000000	96.698687 
1493.000000	96.689655 
1492.000000	96.681246 
1491.000000	96.669977 
1490.000000	96.654309 
1489.000000	96.637117 
1488.000000	96.621340 
1487.000000	96.607271 
1486.000000	96.594865 
1485.000000	96.581756 
1484.000000	96.566921 
1483.000000	96.552460 
1482.000000	96.539597 
1481.000000	96.527565 
1480.000000	96.514507 
1479.000000	96.500167 
1478.000000	96.484999 
1477.000000	96.468828 
1476.000000	96.450323 
1475.000000	96.429651 
1474.000000	96.409485 
1473.000000	96.394023 
1472.000000	96.385855 
1471.000000	96.381611 
1470.000000	96.376501 
1469.000000	96.367720 
1468.000000	96.353414 
1467.000000	96.334547 
1466.000000	96.316417 
1465.000000	96.304161 
1464.000000	96.297320 
1463.000000	96.288717 
1462.000000	96.274251 
1461.000000	96.257160 
1460.000000	96.243115 
1459.000000	96.232984 
1458.000000	96.220089 
1457.000000	96.201978 
1456.000000	96.186442 
1455.000000	96.176562 
1454.000000	96.167772 
1453.000000	96.158568 
1452.000000	96.151848 
1451.000000	96.150678 
1450.000000	96.155382 
1449.000000	96.163533 
1448.000000	96.169045 
1447.000000	96.167828 
1446.000000	96.161200 
1445.000000	96.154292 
1444.000000	96.151477 
1443.000000	96.149984 
1442.000000	96.145688 
1441.000000	96.139462 
1440.000000	96.135419 
1439.000000	96.133033 
1438.000000	96.127780 
1437.000000	96.120125 
1436.000000	96.116386 
1435.000000	96.117255 
1434.000000	96.119337 
1433.000000	96.122190 
1432.000000	96.126441 
1431.000000	96.131545 
1430.000000	96.135927 
1429.000000	96.139653 
1428.000000	96.142269 
1427.000000	96.143870 
1426.000000	96.145561 
1425.000000	96.149439 
1424.000000	96.158290 
1423.000000	96.168335 
1422.000000	96.174793 
1421.000000	96.180380 
1420.000000	96.191256 
1419.000000	96.203098 
1418.000000	96.205346 
1417.000000	96.203339 
1416.000000	96.210904 
1415.000000	96.229912 
1414.000000	96.250206 
1413.000000	96.263168 
1412.000000	96.270842 
1411.000000	96.279124 
1410.000000	96.289739 
1409.000000	96.302418 
1408.000000	96.316104 
1407.000000	96.329192 
1406.000000	96.340543 
1405.000000	96.351999 
1404.000000	96.367514 
1403.000000	96.384696 
1402.000000	96.398565 
1401.000000	96.410992 
1400.000000	96.428571 
1399.000000	96.452376 
1398.000000	96.475247 
1397.000000	96.492865 
1396.000000	96.508541 
1395.000000	96.527005 
1394.000000	96.547450 
1393.000000	96.567970 
1392.000000	96.591316 
1391.000000	96.618790 
1390.000000	96.647045 
1389.000000	96.671675 
1388.000000	96.690624 
1387.000000	96.704876 
1386.000000	96.717588 
1385.000000	96.733125 
1384.000000	96.754942 
1383.000000	96.781499 
1382.000000	96.807576 
1381.000000	96.829682 
1380.000000	96.847705 
1379.000000	96.863513 
1378.000000	96.879268 
1377.000000	96.896456 
1376.000000	96.914640 
1375.000000	96.931458 
1374.000000	96.944999 
1373.000000	96.957518 
1372.000000	96.972835 
1371.000000	96.991991 
1370.000000	97.012770 
1369.000000	97.032795 
1368.000000	97.053160 
1367.000000	97.074646 
1366.000000	97.094859 
1365.000000	97.111217 
1364.000000	97.122911 
1363.000000	97.130602 
1362.000000	97.136586 
1361.000000	97.144431 
1360.000000	97.157006 
1359.000000	97.174516 
1358.000000	97.193646 
1357.000000	97.209886 
1356.000000	97.221621 
1355.000000	97.231127 
1354.000000	97.241740 
1353.000000	97.255494 
1352.000000	97.270996 
1351.000000	97.286394 
1350.000000	97.301089 
1349.000000	97.313888 
1348.000000	97.323810 
1347.000000	97.331063 
1346.000000	97.337619 
1345.000000	97.345912 
1344.000000	97.356738 
1343.000000	97.368575 
1342.000000	97.378685 
1341.000000	97.384704 
1340.000000	97.386297 
1339.000000	97.385981 
1338.000000	97.386983 
1337.000000	97.390551 
1336.000000	97.395685 
1335.000000	97.400745 
1334.000000	97.405337 
1333.000000	97.410548 
1332.000000	97.417062 
1331.000000	97.424318 
1330.000000	97.431284 
1329.000000	97.437495 
1328.000000	97.442654 
1327.000000	97.446478 
1326.000000	97.448616 
1325.000000	97.448731 
1324.000000	97.447379 
1323.000000	97.445150 
1322.000000	97.442119 
1321.000000	97.438856 
1320.000000	97.437124 
1319.000000	97.438525 
1318.000000	97.443024 
1317.000000	97.449225 
1316.000000	97.455041 
1315.000000	97.458103 
1314.000000	97.457217 
1313.000000	97.454421 
1312.000000	97.453496 
1311.000000	97.455612 
1310.000000	97.458113 
1309.000000	97.458730 
1308.000000	97.458557 
1307.000000	97.460185 
1306.000000	97.464074 
1305.000000	97.468543 
1304.000000	97.472605 
1303.000000	97.475831 
1302.000000	97.476880 
1301.000000	97.474499 
1300.000000	97.469932 
1299.000000	97.466237 
1298.000000	97.464960 
1297.000000	97.464791 
1296.000000	97.463897 
1295.000000	97.462538 
1294.000000	97.462456 
1293.000000	97.464588 
1292.000000	97.468012 
1291.000000	97.470905 
1290.000000	97.472257 
1289.000000	97.472368 
1288.000000	97.471706 
1287.000000	97.469999 
1286.000000	97.467126 
1285.000000	97.464568 
1284.000000	97.464563 
1283.000000	97.467072 
1282.000000	97.468954 
1281.000000	97.467159 
1280.000000	97.462327 
1279.000000	97.458332 
1278.000000	97.458440 
1277.000000	97.462598 
1276.000000	97.468138 
1275.000000	97.472491 
1274.000000	97.474834 
1273.000000	97.475524 
1272.000000	97.474560 
1271.000000	97.471274 
1270.000000	97.465800 
1269.000000	97.459868 
1268.000000	97.455159 
1267.000000	97.451063 
1266.000000	97.445652 
1265.000000	97.439440 
1264.000000	97.436167 
1263.000000	97.438484 
1262.000000	97.444443 
1261.000000	97.449743 
1260.000000	97.452985 
1259.000000	97.456816 
1258.000000	97.463630 
1257.000000	97.471808 
1256.000000	97.476995 
1255.000000	97.476924 
1254.000000	97.474256 
1253.000000	97.473400 
1252.000000	97.474456 
1251.000000	97.472526 
1250.000000	97.464329 
1249.000000	97.453345 
1248.000000	97.446031 
1247.000000	97.444045 
1246.000000	97.443356 
1245.000000	97.440651 
1244.000000	97.436642 
1243.000000	97.432631 
1242.000000	97.428032 
1241.000000	97.422867 
1240.000000	97.419006 
1239.000000	97.416624 
1238.000000	97.412490 
1237.000000	97.404257 
1236.000000	97.393814 
1235.000000	97.383859 
1234.000000	97.373555 
1233.000000	97.360558 
1232.000000	97.345328 
1231.000000	97.330141 
1230.000000	97.315206 
1229.000000	97.298804 
1228.000000	97.280048 
1227.000000	97.258604 
1226.000000	97.232766 
1225.000000	97.200909 
1224.000000	97.164432 
1223.000000	97.126548 
1222.000000	97.088177 
1221.000000	97.047325 
1220.000000	97.002322 
1219.000000	96.953296 
1218.000000	96.900562 
1217.000000	96.843996 
1216.000000	96.783926 
1215.000000	96.720706 
1214.000000	96.654098 
1213.000000	96.585582 
1212.000000	96.520007 
1211.000000	96.460868 
1210.000000	96.404074 
1209.000000	96.340888 
1208.000000	96.268277 
1207.000000	96.192913 
1206.000000	96.123360 
1205.000000	96.060933 
1204.000000	96.000180 
1203.000000	95.935866 
1202.000000	95.867216 
1201.000000	95.796878 
1200.000000	95.727829 
1199.000000	95.661027 
1198.000000	95.595244 
1197.000000	95.529363 
1196.000000	95.464003 
1195.000000	95.399868 
1194.000000	95.335669 
1193.000000	95.269523 
1192.000000	95.201564 
1191.000000	95.132967 
1190.000000	95.063158 
1189.000000	94.990377 
1188.000000	94.914321 
1187.000000	94.835849 
1186.000000	94.754985 
1185.000000	94.671873 
1184.000000	94.588705 
1183.000000	94.507582 
1182.000000	94.426969 
1181.000000	94.343016 
1180.000000	94.253579 
1179.000000	94.158214 
1178.000000	94.055763 
1177.000000	93.945816 
1176.000000	93.831404 
1175.000000	93.716246 
1174.000000	93.600415 
1173.000000	93.483091 
1172.000000	93.368178 
1171.000000	93.261109 
1170.000000	93.160539 
1169.000000	93.059802 
1168.000000	92.957453 
1167.000000	92.860509 
1166.000000	92.776804 
1165.000000	92.711018 
1164.000000	92.669194 
1163.000000	92.658951 
1162.000000	92.680940 
1161.000000	92.724511 
1160.000000	92.774081 
1159.000000	92.815887 
1158.000000	92.838126 
1157.000000	92.831396 
1156.000000	92.793109 
1155.000000	92.728874 
1154.000000	92.647632 
1153.000000	92.557199 
1152.000000	92.464145 
1151.000000	92.373177 
1150.000000	92.284808 
1149.000000	92.197179 
1148.000000	92.110978 
1147.000000	92.028565 
1146.000000	91.948232 
1145.000000	91.864824 
1144.000000	91.777100 
1143.000000	91.689325 
1142.000000	91.604393 
1141.000000	91.520693 
1140.000000	91.437055 
1139.000000	91.355169 
1138.000000	91.275364 
1137.000000	91.195216 
1136.000000	91.113898 
1135.000000	91.032880 
1134.000000	90.951255 
1133.000000	90.865888 
1132.000000	90.777267 
1131.000000	90.689372 
1130.000000	90.602579 
1129.000000	90.512848 
1128.000000	90.419325 
1127.000000	90.326178 
1126.000000	90.235082 
1125.000000	90.142437 
1124.000000	90.046306 
1123.000000	89.949911 
1122.000000	89.856005 
1121.000000	89.763937 
1120.000000	89.674208 
1119.000000	89.589183 
1118.000000	89.507177 
1117.000000	89.422802 
1116.000000	89.335438 
1115.000000	89.250669 
1114.000000	89.171402 
1113.000000	89.094738 
1112.000000	89.019445 
1111.000000	88.948674 
1110.000000	88.882650 
1109.000000	88.816383 
1108.000000	88.746737 
1107.000000	88.674779 
1106.000000	88.600410 
1105.000000	88.522183 
1104.000000	88.443135 
1103.000000	88.368861 
1102.000000	88.298274 
1101.000000	88.225214 
1100.000000	88.148974 
1099.000000	88.075387 
1098.000000	88.007567 
1097.000000	87.943432 
1096.000000	87.882983 
1095.000000	87.827883 
1094.000000	87.773884 
1093.000000	87.714205 
1092.000000	87.651668 
1091.000000	87.597231 
1090.000000	87.555394 
1089.000000	87.520925 
1088.000000	87.490013 
1087.000000	87.463293 
1086.000000	87.437381 
1085.000000	87.406026 
1084.000000	87.371708 
1083.000000	87.344301 
1082.000000	87.325887 
1081.000000	87.308279 
1080.000000	87.287654 
1079.000000	87.269622 
1078.000000	87.256881 
1077.000000	87.243487 
1076.000000	87.224660 
1075.000000	87.201028 
1074.000000	87.170142 
1073.000000	87.124847 
1072.000000	87.063122 
1071.000000	86.989060 
1070.000000	86.901425 
1069.000000	86.792011 
1068.000000	86.658669 
1067.000000	86.510088 
1066.000000	86.355072 
1065.000000	86.197238 
1064.000000	86.042290 
1063.000000	85.897572 
1062.000000	85.759753 
1061.000000	85.615279 
1060.000000	85.458609 
1059.000000	85.299417 
1058.000000	85.147308 
1057.000000	85.000486 
1056.000000	84.854636 
1055.000000	84.711643 
1054.000000	84.573214 
1053.000000	84.435612 
1052.000000	84.297167 
1051.000000	84.162436 
1050.000000	84.033069 
1049.000000	83.902952 
1048.000000	83.766631 
1047.000000	83.623994 
1046.000000	83.475540 
1045.000000	83.322972 
1044.000000	83.173952 
1043.000000	83.035275 
1042.000000	82.901648 
1041.000000	82.762364 
1040.000000	82.618211 
1039.000000	82.479371 
1038.000000	82.348316 
1037.000000	82.220030 
1036.000000	82.098706 
1035.000000	81.997096 
1034.000000	81.916984 
1033.000000	81.846268 
1032.000000	81.778188 
1031.000000	81.718075 
1030.000000	81.668260 
1029.000000	81.622546 
1028.000000	81.579537 
1027.000000	81.546144 
1026.000000	81.523507 
1025.000000	81.503633 
1024.000000	81.483490 
1023.000000	81.468189 
1022.000000	81.457018 
1021.000000	81.440931 
1020.000000	81.417260 
1019.000000	81.393016 
1018.000000	81.370929 
1017.000000	81.346522 
1016.000000	81.321467 
1015.000000	81.304818 
1014.000000	81.297670 
1013.000000	81.290893 
1012.000000	81.280878 
1011.000000	81.273333 
1010.000000	81.269378 
1009.000000	81.263558 
1008.000000	81.258829 
1007.000000	81.267880 
1006.000000	81.295226 
1005.000000	81.331991 
1004.000000	81.371503 
1003.000000	81.415572 
1002.000000	81.462262 
1001.000000	81.503347 
1000.000000	81.539239 
999.000000	 81.582296 
998.000000	 81.639668 
997.000000	 81.704974 
996.000000	 81.770959 
995.000000	 81.838730 
994.000000	 81.911020 
993.000000	 81.987871 
992.000000	 82.071367 
991.000000	 82.162969 
990.000000	 82.254936 
989.000000	 82.337056 
988.000000	 82.413120 
987.000000	 82.497581 
986.000000	 82.595396 
985.000000	 82.699362 
984.000000	 82.807633 
983.000000	 82.927454 
982.000000	 83.058603 
981.000000	 83.189442 
980.000000	 83.314409 
979.000000	 83.441163 
978.000000	 83.575520 
977.000000	 83.713281 
976.000000	 83.851883 
975.000000	 83.996529 
974.000000	 84.148859 
973.000000	 84.301856 
972.000000	 84.452174 
971.000000	 84.606577 
970.000000	 84.770219 
969.000000	 84.938167 
968.000000	 85.103468 
967.000000	 85.264713 
966.000000	 85.421844 
965.000000	 85.573791 
964.000000	 85.724336 
963.000000	 85.881497 
962.000000	 86.046674 
961.000000	 86.211705 
960.000000	 86.369576 
959.000000	 86.520675 
958.000000	 86.666713 
957.000000	 86.806749 
956.000000	 86.941830 
955.000000	 87.076081 
954.000000	 87.210606 
953.000000	 87.342559 
952.000000	 87.471241 
951.000000	 87.598287 
950.000000	 87.721717 
949.000000	 87.837703 
948.000000	 87.948540 
947.000000	 88.060760 
946.000000	 88.174219 
945.000000	 88.280844 
944.000000	 88.375486 
943.000000	 88.461200 
942.000000	 88.543448 
941.000000	 88.625895 
940.000000	 88.712097 
939.000000	 88.803842 
938.000000	 88.897033 
937.000000	 88.985849 
936.000000	 89.070976 
935.000000	 89.157581 
934.000000	 89.246675 
933.000000	 89.336135 
932.000000	 89.428738 
931.000000	 89.530007 
930.000000	 89.637719 
929.000000	 89.741848 
928.000000	 89.835790 
927.000000	 89.920814 
926.000000	 89.999841 
925.000000	 90.074089 
924.000000	 90.145651 
923.000000	 90.216227 
922.000000	 90.283229 
921.000000	 90.343531 
920.000000	 90.400284 
919.000000	 90.459468 
918.000000	 90.520808 
917.000000	 90.578997 
916.000000	 90.633267 
915.000000	 90.689460 
914.000000	 90.753314 
913.000000	 90.826938 
912.000000	 90.909918 
911.000000	 90.998574 
910.000000	 91.087569 
909.000000	 91.178484 
908.000000	 91.282128 
907.000000	 91.405058 
906.000000	 91.538796 
905.000000	 91.670314 
904.000000	 91.797774 
903.000000	 91.926918 
902.000000	 92.058400 
901.000000	 92.189741 
900.000000	 92.324574 
899.000000	 92.467728 
898.000000	 92.614364 
897.000000	 92.755050 
896.000000	 92.888254 
895.000000	 93.017495 
894.000000	 93.140491 
893.000000	 93.252488 
892.000000	 93.356371 
891.000000	 93.457552 
890.000000	 93.551738 
889.000000	 93.629014 
888.000000	 93.686650 
887.000000	 93.726739 
886.000000	 93.745708 
885.000000	 93.739722 
884.000000	 93.717553 
883.000000	 93.693771 
882.000000	 93.670564 
881.000000	 93.641042 
880.000000	 93.609528 
879.000000	 93.592096 
878.000000	 93.596220 
877.000000	 93.616868 
876.000000	 93.654744 
875.000000	 93.721001 
874.000000	 93.820347 
873.000000	 93.946143 
872.000000	 94.095615 
871.000000	 94.272829 
870.000000	 94.471420 
869.000000	 94.669957 
868.000000	 94.851185 
867.000000	 95.014375 
866.000000	 95.164817 
865.000000	 95.303359 
864.000000	 95.431483 
863.000000	 95.556174 
862.000000	 95.682962 
861.000000	 95.810488 
860.000000	 95.935499 
859.000000	 96.056661 
858.000000	 96.171242 
857.000000	 96.275112 
856.000000	 96.368116 
855.000000	 96.453126 
854.000000	 96.529102 
853.000000	 96.592283 
852.000000	 96.644724 
851.000000	 96.694428 
850.000000	 96.746851 
849.000000	 96.803261 
848.000000	 96.865674 
847.000000	 96.933887 
846.000000	 96.999012 
845.000000	 97.051115 
844.000000	 97.093293 
843.000000	 97.137370 
842.000000	 97.185319 
841.000000	 97.226228 
840.000000	 97.252344 
839.000000	 97.266057 
838.000000	 97.270035 
837.000000	 97.264002 
836.000000	 97.255282 
835.000000	 97.259604 
834.000000	 97.283709 
833.000000	 97.315751 
832.000000	 97.339180 
831.000000	 97.349084 
830.000000	 97.350862 
829.000000	 97.351193 
828.000000	 97.355729 
827.000000	 97.368143 
826.000000	 97.385779 
825.000000	 97.402901 
824.000000	 97.421383 
823.000000	 97.448873 
822.000000	 97.483683 
821.000000	 97.512635 
820.000000	 97.526237 
819.000000	 97.524623 
818.000000	 97.506836 
817.000000	 97.465824 
816.000000	 97.398062 
815.000000	 97.309053 
814.000000	 97.203877 
813.000000	 97.078143 
812.000000	 96.921679 
811.000000	 96.724751 
810.000000	 96.477828 
809.000000	 96.173018 
808.000000	 95.811040 
807.000000	 95.402418 
806.000000	 94.959900 
805.000000	 94.496168 
804.000000	 94.030082 
803.000000	 93.584428 
802.000000	 93.173515 
801.000000	 92.804017 
800.000000	 92.491202 
799.000000	 92.259357 
798.000000	 92.118986 
797.000000	 92.056365 
796.000000	 92.050918 
795.000000	 92.088887 
794.000000	 92.155409 
793.000000	 92.230708 
792.000000	 92.303524 
791.000000	 92.375174 
790.000000	 92.442182 
789.000000	 92.486670 
788.000000	 92.491370 
787.000000	 92.453563 
786.000000	 92.377978 
785.000000	 92.266532 
784.000000	 92.122072 
783.000000	 91.953218 
782.000000	 91.770097 
781.000000	 91.585257 
780.000000	 91.422746 
779.000000	 91.312691 
778.000000	 91.268879 
777.000000	 91.282111 
776.000000	 91.340505 
775.000000	 91.442934 
774.000000	 91.586308 
773.000000	 91.754532 
772.000000	 91.929804 
771.000000	 92.104355 
770.000000	 92.274281 
769.000000	 92.432969 
768.000000	 92.577292 
767.000000	 92.709670 
766.000000	 92.828219 
765.000000	 92.926484 
764.000000	 93.009180 
763.000000	 93.095426 
762.000000	 93.197211 
761.000000	 93.305130 
760.000000	 93.404343 
759.000000	 93.494572 
758.000000	 93.585175 
757.000000	 93.680642 
756.000000	 93.781927 
755.000000	 93.893703 
754.000000	 94.017439 
753.000000	 94.141420 
752.000000	 94.248300 
751.000000	 94.331195 
750.000000	 94.396986 
749.000000	 94.457757 
748.000000	 94.523792 
747.000000	 94.599547 
746.000000	 94.680396 
745.000000	 94.757339 
744.000000	 94.829859 
743.000000	 94.909512 
742.000000	 95.005713 
741.000000	 95.112667 
740.000000	 95.215565 
739.000000	 95.305442 
738.000000	 95.383432 
737.000000	 95.454948 
736.000000	 95.524837 
735.000000	 95.595547 
734.000000	 95.665218 
733.000000	 95.728350 
732.000000	 95.780299 
731.000000	 95.820040 
730.000000	 95.848252 
729.000000	 95.865588 
728.000000	 95.876459 
727.000000	 95.890382 
726.000000	 95.915972 
725.000000	 95.957578 
724.000000	 96.015818 
723.000000	 96.084699 
722.000000	 96.149819 
721.000000	 96.198360 
720.000000	 96.231895 
719.000000	 96.259761 
718.000000	 96.281216 
717.000000	 96.287769 
716.000000	 96.281390 
715.000000	 96.277118 
714.000000	 96.285743 
713.000000	 96.306033 
712.000000	 96.339072 
711.000000	 96.394937 
710.000000	 96.475932 
709.000000	 96.565994 
708.000000	 96.644649 
707.000000	 96.703769 
706.000000	 96.741686 
705.000000	 96.752793 
704.000000	 96.734280 
703.000000	 96.692351 
702.000000	 96.632065 
701.000000	 96.544435 
700.000000	 96.411000 
699.000000	 96.222690 
698.000000	 95.989698 
697.000000	 95.741785 
696.000000	 95.523955 
695.000000	 95.379762 
694.000000	 95.332562 
693.000000	 95.378484 
692.000000	 95.493556 
691.000000	 95.646181 
690.000000	 95.804374 
689.000000	 95.946334 
688.000000	 96.070004 
687.000000	 96.183788 
686.000000	 96.289317 
685.000000	 96.379823 
684.000000	 96.453231 
683.000000	 96.516672 
682.000000	 96.574208 
681.000000	 96.622755 
680.000000	 96.662377 
679.000000	 96.704062 
678.000000	 96.755732 
677.000000	 96.812192 
676.000000	 96.872579 
675.000000	 96.938341 
674.000000	 96.999258 
673.000000	 97.043654 
672.000000	 97.082285 
671.000000	 97.157851 
670.000000	 97.315202 
669.000000	 97.553957 
668.000000	 97.724918 
667.000000	 97.686829 
666.000000	 97.547093 
665.000000	 97.433599 
664.000000	 97.360050 
663.000000	 97.321454 
662.000000	 97.319134 
661.000000	 97.342694 
660.000000	 97.380482 
659.000000	 97.430169 
658.000000	 97.485504 
657.000000	 97.525953 
656.000000	 97.544002 
655.000000	 97.546118 
654.000000	 97.529467 
653.000000	 97.485224 
652.000000	 97.428938 
651.000000	 97.400000 
650.000000	 97.416608 

