4000.000000	97.176837 
3999.000000	97.174704 
3998.000000	97.171189 
3997.000000	97.167332 
3996.000000	97.163913 
3995.000000	97.161375 
3994.000000	97.160017 
3993.000000	97.159766 
3992.000000	97.159944 
3991.000000	97.159673 
3990.000000	97.158751 
3989.000000	97.157729 
3988.000000	97.157110 
3987.000000	97.157127 
3986.000000	97.158119 
3985.000000	97.160474 
3984.000000	97.163847 
3983.000000	97.166982 
3982.000000	97.169004 
3981.000000	97.170174 
3980.000000	97.171045 
3979.000000	97.171422 
3978.000000	97.170641 
3977.000000	97.168598 
3976.000000	97.165921 
3975.000000	97.163177 
3974.000000	97.160532 
3973.000000	97.158107 
3972.000000	97.156017 
3971.000000	97.154156 
3970.000000	97.152357 
3969.000000	97.150940 
3968.000000	97.150523 
3967.000000	97.151294 
3966.000000	97.152674 
3965.000000	97.153610 
3964.000000	97.153159 
3963.000000	97.151004 
3962.000000	97.147701 
3961.000000	97.144440 
3960.000000	97.142154 
3959.000000	97.141048 
3958.000000	97.140859 
3957.000000	97.141292 
3956.000000	97.141840 
3955.000000	97.141797 
3954.000000	97.140845 
3953.000000	97.139327 
3952.000000	97.137848 
3951.000000	97.136636 
3950.000000	97.135554 
3949.000000	97.134529 
3948.000000	97.133745 
3947.000000	97.133428 
3946.000000	97.133499 
3945.000000	97.133476 
3944.000000	97.132872 
3943.000000	97.131823 
3942.000000	97.131040 
3941.000000	97.130998 
3940.000000	97.131479 
3939.000000	97.131852 
3938.000000	97.131699 
3937.000000	97.131142 
3936.000000	97.130474 
3935.000000	97.129739 
3934.000000	97.128811 
3933.000000	97.127722 
3932.000000	97.126746 
3931.000000	97.126064 
3930.000000	97.125661 
3929.000000	97.125527 
3928.000000	97.125650 
3927.000000	97.125861 
3926.000000	97.125826 
3925.000000	97.125421 
3924.000000	97.124842 
3923.000000	97.124301 
3922.000000	97.123804 
3921.000000	97.123323 
3920.000000	97.122893 
3919.000000	97.122524 
3918.000000	97.122142 
3917.000000	97.121704 
3916.000000	97.121233 
3915.000000	97.120756 
3914.000000	97.120280 
3913.000000	97.119805 
3912.000000	97.119327 
3911.000000	97.118839 
3910.000000	97.118342 
3909.000000	97.117835 
3908.000000	97.117306 
3907.000000	97.116734 
3906.000000	97.116102 
3905.000000	97.115412 
3904.000000	97.114687 
3903.000000	97.113958 
3902.000000	97.113249 
3901.000000	97.112566 
3900.000000	97.111902 
3899.000000	97.111246 
3898.000000	97.110593 
3897.000000	97.109939 
3896.000000	97.109279 
3895.000000	97.108613 
3894.000000	97.107947 
3893.000000	97.107287 
3892.000000	97.106631 
3891.000000	97.105976 
3890.000000	97.105324 
3889.000000	97.104682 
3888.000000	97.104046 
3887.000000	97.103403 
3886.000000	97.102747 
3885.000000	97.102089 
3884.000000	97.101438 
3883.000000	97.100797 
3882.000000	97.100162 
3881.000000	97.099542 
3880.000000	97.098961 
3879.000000	97.098433 
3878.000000	97.097948 
3877.000000	97.097481 
3876.000000	97.097009 
3875.000000	97.096530 
3874.000000	97.096058 
3873.000000	97.095608 
3872.000000	97.095176 
3871.000000	97.094748 
3870.000000	97.094326 
3869.000000	97.093933 
3868.000000	97.093583 
3867.000000	97.093261 
3866.000000	97.092952 
3865.000000	97.092658 
3864.000000	97.092399 
3863.000000	97.092172 
3862.000000	97.091957 
3861.000000	97.091732 
3860.000000	97.091487 
3859.000000	97.091220 
3858.000000	97.090926 
3857.000000	97.090614 
3856.000000	97.090298 
3855.000000	97.089990 
3854.000000	97.089695 
3853.000000	97.089421 
3852.000000	97.089168 
3851.000000	97.088932 
3850.000000	97.088710 
3849.000000	97.088495 
3848.000000	97.088277 
3847.000000	97.088046 
3846.000000	97.087787 
3845.000000	97.087493 
3844.000000	97.087164 
3843.000000	97.086805 
3842.000000	97.086431 
3841.000000	97.086057 
3840.000000	97.085690 
3839.000000	97.085324 
3838.000000	97.084944 
3837.000000	97.084541 
3836.000000	97.084117 
3835.000000	97.083685 
3834.000000	97.083258 
3833.000000	97.082844 
3832.000000	97.082443 
3831.000000	97.082054 
3830.000000	97.081672 
3829.000000	97.081297 
3828.000000	97.080927 
3827.000000	97.080555 
3826.000000	97.080175 
3825.000000	97.079791 
3824.000000	97.079413 
3823.000000	97.079042 
3822.000000	97.078671 
3821.000000	97.078303 
3820.000000	97.077961 
3819.000000	97.077663 
3818.000000	97.077408 
3817.000000	97.077184 
3816.000000	97.076991 
3815.000000	97.076832 
3814.000000	97.076696 
3813.000000	97.076555 
3812.000000	97.076393 
3811.000000	97.076214 
3810.000000	97.076037 
3809.000000	97.075869 
3808.000000	97.075699 
3807.000000	97.075525 
3806.000000	97.075358 
3805.000000	97.075220 
3804.000000	97.075123 
3803.000000	97.075068 
3802.000000	97.075058 
3801.000000	97.075104 
3800.000000	97.075204 
3799.000000	97.075335 
3798.000000	97.075471 
3797.000000	97.075606 
3796.000000	97.075748 
3795.000000	97.075896 
3794.000000	97.076031 
3793.000000	97.076134 
3792.000000	97.076196 
3791.000000	97.076216 
3790.000000	97.076186 
3789.000000	97.076107 
3788.000000	97.075979 
3787.000000	97.075790 
3786.000000	97.075532 
3785.000000	97.075218 
3784.000000	97.074867 
3783.000000	97.074502 
3782.000000	97.074102 
3781.000000	97.073614 
3780.000000	97.073044 
3779.000000	97.072509 
3778.000000	97.072099 
3777.000000	97.071742 
3776.000000	97.071240 
3775.000000	97.070498 
3774.000000	97.069615 
3773.000000	97.068759 
3772.000000	97.067929 
3771.000000	97.067035 
3770.000000	97.066115 
3769.000000	97.065284 
3768.000000	97.064523 
3767.000000	97.063686 
3766.000000	97.062700 
3765.000000	97.061634 
3764.000000	97.060603 
3763.000000	97.059617 
3762.000000	97.058614 
3761.000000	97.057561 
3760.000000	97.056483 
3759.000000	97.055402 
3758.000000	97.054284 
3757.000000	97.053093 
3756.000000	97.051849 
3755.000000	97.050593 
3754.000000	97.049320 
3753.000000	97.048018 
3752.000000	97.046736 
3751.000000	97.045519 
3750.000000	97.044304 
3749.000000	97.043062 
3748.000000	97.041887 
3747.000000	97.040843 
3746.000000	97.039865 
3745.000000	97.038869 
3744.000000	97.037958 
3743.000000	97.037205 
3742.000000	97.036544 
3741.000000	97.035836 
3740.000000	97.035047 
3739.000000	97.034285 
3738.000000	97.033628 
3737.000000	97.032940 
3736.000000	97.032065 
3735.000000	97.031170 
3734.000000	97.030528 
3733.000000	97.030000 
3732.000000	97.029260 
3731.000000	97.028315 
3730.000000	97.027442 
3729.000000	97.026685 
3728.000000	97.025597 
3727.000000	97.023782 
3726.000000	97.021825 
3725.000000	97.020747 
3724.000000	97.020685 
3723.000000	97.021102 
3722.000000	97.021983 
3721.000000	97.023545 
3720.000000	97.025148 
3719.000000	97.025787 
3718.000000	97.024603 
3717.000000	97.021879 
3716.000000	97.018826 
3715.000000	97.015324 
3714.000000	97.009807 
3713.000000	97.002357 
3712.000000	96.996643 
3711.000000	96.995993 
3710.000000	96.999287 
3709.000000	97.003229 
3708.000000	97.005202 
3707.000000	97.004379 
3706.000000	97.002228 
3705.000000	97.001176 
3704.000000	97.002371 
3703.000000	97.004339 
3702.000000	97.003765 
3701.000000	96.998147 
3700.000000	96.988301 
3699.000000	96.977521 
3698.000000	96.967362 
3697.000000	96.957667 
3696.000000	96.950062 
3695.000000	96.945947 
3694.000000	96.943530 
3693.000000	96.941363 
3692.000000	96.942109 
3691.000000	96.949103 
3690.000000	96.959147 
3689.000000	96.964800 
3688.000000	96.963399 
3687.000000	96.958709 
3686.000000	96.953717 
3685.000000	96.946727 
3684.000000	96.937065 
3683.000000	96.929118 
3682.000000	96.925441 
3681.000000	96.919691 
3680.000000	96.905275 
3679.000000	96.886126 
3678.000000	96.871341 
3677.000000	96.859089 
3676.000000	96.842908 
3675.000000	96.828098 
3674.000000	96.822427 
3673.000000	96.824091 
3672.000000	96.823124 
3671.000000	96.812097 
3670.000000	96.797695 
3669.000000	96.789766 
3668.000000	96.784801 
3667.000000	96.775397 
3666.000000	96.761887 
3665.000000	96.749549 
3664.000000	96.741908 
3663.000000	96.737280 
3662.000000	96.729833 
3661.000000	96.715388 
3660.000000	96.695962 
3659.000000	96.676465 
3658.000000	96.659226 
3657.000000	96.641638 
3656.000000	96.622972 
3655.000000	96.606890 
3654.000000	96.595906 
3653.000000	96.586920 
3652.000000	96.572974 
3651.000000	96.552666 
3650.000000	96.534757 
3649.000000	96.524232 
3648.000000	96.514351 
3647.000000	96.500850 
3646.000000	96.487811 
3645.000000	96.478782 
3644.000000	96.471811 
3643.000000	96.463418 
3642.000000	96.452834 
3641.000000	96.442151 
3640.000000	96.431870 
3639.000000	96.420196 
3638.000000	96.407692 
3637.000000	96.396990 
3636.000000	96.387169 
3635.000000	96.372206 
3634.000000	96.350615 
3633.000000	96.330328 
3632.000000	96.318707 
3631.000000	96.310362 
3630.000000	96.292892 
3629.000000	96.269716 
3628.000000	96.255349 
3627.000000	96.251267 
3626.000000	96.250008 
3625.000000	96.249656 
3624.000000	96.255320 
3623.000000	96.271738 
3622.000000	96.294366 
3621.000000	96.309751 
3620.000000	96.308033 
3619.000000	96.292337 
3618.000000	96.273158 
3617.000000	96.259535 
3616.000000	96.255938 
3615.000000	96.260963 
3614.000000	96.270808 
3613.000000	96.283688 
3612.000000	96.298601 
3611.000000	96.311802 
3610.000000	96.318505 
3609.000000	96.318756 
3608.000000	96.318740 
3607.000000	96.324118 
3606.000000	96.334673 
3605.000000	96.347520 
3604.000000	96.360890 
3603.000000	96.373869 
3602.000000	96.385357 
3601.000000	96.394096 
3600.000000	96.400480 
3599.000000	96.404822 
3598.000000	96.406183 
3597.000000	96.404432 
3596.000000	96.401852 
3595.000000	96.400208 
3594.000000	96.400729 
3593.000000	96.404815 
3592.000000	96.413517 
3591.000000	96.425533 
3590.000000	96.435221 
3589.000000	96.436113 
3588.000000	96.428492 
3587.000000	96.420142 
3586.000000	96.417178 
3585.000000	96.419190 
3584.000000	96.423317 
3583.000000	96.427733 
3582.000000	96.431899 
3581.000000	96.435092 
3580.000000	96.436528 
3579.000000	96.436203 
3578.000000	96.435219 
3577.000000	96.434829 
3576.000000	96.435135 
3575.000000	96.435013 
3574.000000	96.433503 
3573.000000	96.431407 
3572.000000	96.430535 
3571.000000	96.431880 
3570.000000	96.433856 
3569.000000	96.432942 
3568.000000	96.427566 
3567.000000	96.420666 
3566.000000	96.416362 
3565.000000	96.415764 
3564.000000	96.417658 
3563.000000	96.420550 
3562.000000	96.423418 
3561.000000	96.425465 
3560.000000	96.425928 
3559.000000	96.424593 
3558.000000	96.422128 
3557.000000	96.419690 
3556.000000	96.417971 
3555.000000	96.416781 
3554.000000	96.415517 
3553.000000	96.414002 
3552.000000	96.412665 
3551.000000	96.411912 
3550.000000	96.411600 
3549.000000	96.411269 
3548.000000	96.410673 
3547.000000	96.409908 
3546.000000	96.409132 
3545.000000	96.408399 
3544.000000	96.407703 
3543.000000	96.407058 
3542.000000	96.406484 
3541.000000	96.405970 
3540.000000	96.405481 
3539.000000	96.404981 
3538.000000	96.404465 
3537.000000	96.403949 
3536.000000	96.403443 
3535.000000	96.402949 
3534.000000	96.402485 
3533.000000	96.402067 
3532.000000	96.401709 
3531.000000	96.401407 
3530.000000	96.401145 
3529.000000	96.400907 
3528.000000	96.400688 
3527.000000	96.400507 
3526.000000	96.400382 
3525.000000	96.400320 
3524.000000	96.400306 
3523.000000	96.400315 
3522.000000	96.400329 
3521.000000	96.400341 
3520.000000	96.400354 
3519.000000	96.400377 
3518.000000	96.400418 
3517.000000	96.400477 
3516.000000	96.400548 
3515.000000	96.400624 
3514.000000	96.400706 
3513.000000	96.400805 
3512.000000	96.400912 
3511.000000	96.400984 
3510.000000	96.400992 
3509.000000	96.400999 
3508.000000	96.401148 
3507.000000	96.401552 
3506.000000	96.402140 
3505.000000	96.402617 
3504.000000	96.402713 
3503.000000	96.402458 
3502.000000	96.402219 
3501.000000	96.402296 
3500.000000	96.402568 
3499.000000	96.402579 
3498.000000	96.402019 
3497.000000	96.401107 
3496.000000	96.400384 
3495.000000	96.400023 
3494.000000	96.399605 
3493.000000	96.398732 
3492.000000	96.397566 
3491.000000	96.396575 
3490.000000	96.396059 
3489.000000	96.396122 
3488.000000	96.396804 
3487.000000	96.397840 
3486.000000	96.398432 
3485.000000	96.397933 
3484.000000	96.396585 
3483.000000	96.395046 
3482.000000	96.393546 
3481.000000	96.391835 
3480.000000	96.389920 
3479.000000	96.388316 
3478.000000	96.387303 
3477.000000	96.386296 
3476.000000	96.384253 
3475.000000	96.380738 
3474.000000	96.376519 
3473.000000	96.373155 
3472.000000	96.371725 
3471.000000	96.371910 
3470.000000	96.372337 
3469.000000	96.371848 
3468.000000	96.370308 
3467.000000	96.368220 
3466.000000	96.365958 
3465.000000	96.363625 
3464.000000	96.361323 
3463.000000	96.359018 
3462.000000	96.356316 
3461.000000	96.352884 
3460.000000	96.349048 
3459.000000	96.345509 
3458.000000	96.342423 
3457.000000	96.339192 
3456.000000	96.335501 
3455.000000	96.332169 
3454.000000	96.330396 
3453.000000	96.330357 
3452.000000	96.330967 
3451.000000	96.330917 
3450.000000	96.329716 
3449.000000	96.327547 
3448.000000	96.324684 
3447.000000	96.321357 
3446.000000	96.317911 
3445.000000	96.314860 
3444.000000	96.312615 
3443.000000	96.311198 
3442.000000	96.310235 
3441.000000	96.309235 
3440.000000	96.307914 
3439.000000	96.306249 
3438.000000	96.304311 
3437.000000	96.302182 
3436.000000	96.300064 
3435.000000	96.298286 
3434.000000	96.297048 
3433.000000	96.296188 
3432.000000	96.295309 
3431.000000	96.294136 
3430.000000	96.292696 
3429.000000	96.291154 
3428.000000	96.289631 
3427.000000	96.288161 
3426.000000	96.286782 
3425.000000	96.285530 
3424.000000	96.284386 
3423.000000	96.283271 
3422.000000	96.282110 
3421.000000	96.280883 
3420.000000	96.279625 
3419.000000	96.278384 
3418.000000	96.277187 
3417.000000	96.276053 
3416.000000	96.275011 
3415.000000	96.274062 
3414.000000	96.273134 
3413.000000	96.272118 
3412.000000	96.270972 
3411.000000	96.269799 
3410.000000	96.268785 
3409.000000	96.268041 
3408.000000	96.267515 
3407.000000	96.267011 
3406.000000	96.266383 
3405.000000	96.265634 
3404.000000	96.264859 
3403.000000	96.264114 
3402.000000	96.263327 
3401.000000	96.262399 
3400.000000	96.261378 
3399.000000	96.260463 
3398.000000	96.259801 
3397.000000	96.259354 
3396.000000	96.258940 
3395.000000	96.258428 
3394.000000	96.257845 
3393.000000	96.257310 
3392.000000	96.256905 
3391.000000	96.256576 
3390.000000	96.256148 
3389.000000	96.255479 
3388.000000	96.254638 
3387.000000	96.253911 
3386.000000	96.253544 
3385.000000	96.253471 
3384.000000	96.253322 
3383.000000	96.252777 
3382.000000	96.251927 
3381.000000	96.251285 
3380.000000	96.251330 
3379.000000	96.252088 
3378.000000	96.253149 
3377.000000	96.254081 
3376.000000	96.254750 
3375.000000	96.255198 
3374.000000	96.255418 
3373.000000	96.255373 
3372.000000	96.255166 
3371.000000	96.255076 
3370.000000	96.255375 
3369.000000	96.256127 
3368.000000	96.257185 
3367.000000	96.258281 
3366.000000	96.259086 
3365.000000	96.259320 
3364.000000	96.258911 
3363.000000	96.258193 
3362.000000	96.257836 
3361.000000	96.258360 
3360.000000	96.259764 
3359.000000	96.261473 
3358.000000	96.262767 
3357.000000	96.263378 
3356.000000	96.263618 
3355.000000	96.264081 
3354.000000	96.265122 
3353.000000	96.266633 
3352.000000	96.268202 
3351.000000	96.269469 
3350.000000	96.270347 
3349.000000	96.270994 
3348.000000	96.271618 
3347.000000	96.272275 
3346.000000	96.272831 
3345.000000	96.273119 
3344.000000	96.273166 
3343.000000	96.273207 
3342.000000	96.273478 
3341.000000	96.273972 
3340.000000	96.274488 
3339.000000	96.274894 
3338.000000	96.275294 
3337.000000	96.275895 
3336.000000	96.276729 
3335.000000	96.277534 
3334.000000	96.277939 
3333.000000	96.277781 
3332.000000	96.277307 
3331.000000	96.277082 
3330.000000	96.277586 
3329.000000	96.278851 
3328.000000	96.280465 
3327.000000	96.281952 
3326.000000	96.283143 
3325.000000	96.284146 
3324.000000	96.285086 
3323.000000	96.285925 
3322.000000	96.286535 
3321.000000	96.286870 
3320.000000	96.287042 
3319.000000	96.287271 
3318.000000	96.287777 
3317.000000	96.288590 
3316.000000	96.289535 
3315.000000	96.290357 
3314.000000	96.290969 
3313.000000	96.291502 
3312.000000	96.292091 
3311.000000	96.292749 
3310.000000	96.293415 
3309.000000	96.294068 
3308.000000	96.294728 
3307.000000	96.295405 
3306.000000	96.296080 
3305.000000	96.296738 
3304.000000	96.297381 
3303.000000	96.298027 
3302.000000	96.298690 
3301.000000	96.299379 
3300.000000	96.300104 
3299.000000	96.300863 
3298.000000	96.301648 
3297.000000	96.302453 
3296.000000	96.303276 
3295.000000	96.304120 
3294.000000	96.304990 
3293.000000	96.305885 
3292.000000	96.306797 
3291.000000	96.307713 
3290.000000	96.308615 
3289.000000	96.309489 
3288.000000	96.310329 
3287.000000	96.311139 
3286.000000	96.311930 
3285.000000	96.312714 
3284.000000	96.313501 
3283.000000	96.314299 
3282.000000	96.315113 
3281.000000	96.315946 
3280.000000	96.316800 
3279.000000	96.317683 
3278.000000	96.318607 
3277.000000	96.319585 
3276.000000	96.320621 
3275.000000	96.321702 
3274.000000	96.322806 
3273.000000	96.323917 
3272.000000	96.325033 
3271.000000	96.326160 
3270.000000	96.327307 
3269.000000	96.328474 
3268.000000	96.329656 
3267.000000	96.330847 
3266.000000	96.332046 
3265.000000	96.333259 
3264.000000	96.334499 
3263.000000	96.335780 
3262.000000	96.337109 
3261.000000	96.338483 
3260.000000	96.339885 
3259.000000	96.341291 
3258.000000	96.342679 
3257.000000	96.344037 
3256.000000	96.345372 
3255.000000	96.346697 
3254.000000	96.348023 
3253.000000	96.349357 
3252.000000	96.350696 
3251.000000	96.352036 
3250.000000	96.353377 
3249.000000	96.354721 
3248.000000	96.356073 
3247.000000	96.357443 
3246.000000	96.358840 
3245.000000	96.360272 
3244.000000	96.361738 
3243.000000	96.363234 
3242.000000	96.364751 
3241.000000	96.366279 
3240.000000	96.367813 
3239.000000	96.369353 
3238.000000	96.370901 
3237.000000	96.372454 
3236.000000	96.373999 
3235.000000	96.375514 
3234.000000	96.376993 
3233.000000	96.378444 
3232.000000	96.379889 
3231.000000	96.381340 
3230.000000	96.382788 
3229.000000	96.384217 
3228.000000	96.385618 
3227.000000	96.387001 
3226.000000	96.388391 
3225.000000	96.389808 
3224.000000	96.391252 
3223.000000	96.392711 
3222.000000	96.394162 
3221.000000	96.395587 
3220.000000	96.396972 
3219.000000	96.398310 
3218.000000	96.399606 
3217.000000	96.400880 
3216.000000	96.402160 
3215.000000	96.403471 
3214.000000	96.404824 
3213.000000	96.406208 
3212.000000	96.407608 
3211.000000	96.409005 
3210.000000	96.410397 
3209.000000	96.411789 
3208.000000	96.413192 
3207.000000	96.414607 
3206.000000	96.416025 
3205.000000	96.417437 
3204.000000	96.418843 
3203.000000	96.420246 
3202.000000	96.421648 
3201.000000	96.423042 
3200.000000	96.424415 
3199.000000	96.425760 
3198.000000	96.427083 
3197.000000	96.428402 
3196.000000	96.429734 
3195.000000	96.431087 
3194.000000	96.432468 
3193.000000	96.433883 
3192.000000	96.435334 
3191.000000	96.436815 
3190.000000	96.438308 
3189.000000	96.439797 
3188.000000	96.441284 
3187.000000	96.442787 
3186.000000	96.444324 
3185.000000	96.445902 
3184.000000	96.447504 
3183.000000	96.449106 
3182.000000	96.450691 
3181.000000	96.452263 
3180.000000	96.453840 
3179.000000	96.455442 
3178.000000	96.457084 
3177.000000	96.458771 
3176.000000	96.460498 
3175.000000	96.462254 
3174.000000	96.464020 
3173.000000	96.465786 
3172.000000	96.467546 
3171.000000	96.469305 
3170.000000	96.471065 
3169.000000	96.472824 
3168.000000	96.474575 
3167.000000	96.476315 
3166.000000	96.478043 
3165.000000	96.479767 
3164.000000	96.481504 
3163.000000	96.483267 
3162.000000	96.485062 
3161.000000	96.486886 
3160.000000	96.488726 
3159.000000	96.490579 
3158.000000	96.492448 
3157.000000	96.494343 
3156.000000	96.496268 
3155.000000	96.498214 
3154.000000	96.500166 
3153.000000	96.502108 
3152.000000	96.504032 
3151.000000	96.505932 
3150.000000	96.507808 
3149.000000	96.509659 
3148.000000	96.511496 
3147.000000	96.513330 
3146.000000	96.515170 
3145.000000	96.517013 
3144.000000	96.518845 
3143.000000	96.520653 
3142.000000	96.522435 
3141.000000	96.524200 
3140.000000	96.525964 
3139.000000	96.527732 
3138.000000	96.529499 
3137.000000	96.531255 
3136.000000	96.532994 
3135.000000	96.534718 
3134.000000	96.536436 
3133.000000	96.538158 
3132.000000	96.539891 
3131.000000	96.541633 
3130.000000	96.543381 
3129.000000	96.545127 
3128.000000	96.546872 
3127.000000	96.548626 
3126.000000	96.550391 
3125.000000	96.552166 
3124.000000	96.553949 
3123.000000	96.555734 
3122.000000	96.557510 
3121.000000	96.559261 
3120.000000	96.560977 
3119.000000	96.562660 
3118.000000	96.564320 
3117.000000	96.565962 
3116.000000	96.567588 
3115.000000	96.569197 
3114.000000	96.570789 
3113.000000	96.572369 
3112.000000	96.573944 
3111.000000	96.575524 
3110.000000	96.577116 
3109.000000	96.578721 
3108.000000	96.580325 
3107.000000	96.581905 
3106.000000	96.583442 
3105.000000	96.584956 
3104.000000	96.586494 
3103.000000	96.588073 
3102.000000	96.589648 
3101.000000	96.591181 
3100.000000	96.592674 
3099.000000	96.594144 
3098.000000	96.595600 
3097.000000	96.597079 
3096.000000	96.598629 
3095.000000	96.600237 
3094.000000	96.601836 
3093.000000	96.603354 
3092.000000	96.604786 
3091.000000	96.606173 
3090.000000	96.607546 
3089.000000	96.608919 
3088.000000	96.610290 
3087.000000	96.611653 
3086.000000	96.613001 
3085.000000	96.614329 
3084.000000	96.615635 
3083.000000	96.616920 
3082.000000	96.618185 
3081.000000	96.619436 
3080.000000	96.620677 
3079.000000	96.621911 
3078.000000	96.623138 
3077.000000	96.624357 
3076.000000	96.625566 
3075.000000	96.626759 
3074.000000	96.627933 
3073.000000	96.629085 
3072.000000	96.630217 
3071.000000	96.631329 
3070.000000	96.632419 
3069.000000	96.633484 
3068.000000	96.634521 
3067.000000	96.635532 
3066.000000	96.636521 
3065.000000	96.637489 
3064.000000	96.638438 
3063.000000	96.639363 
3062.000000	96.640261 
3061.000000	96.641134 
3060.000000	96.641987 
3059.000000	96.642829 
3058.000000	96.643670 
3057.000000	96.644509 
3056.000000	96.645340 
3055.000000	96.646151 
3054.000000	96.646929 
3053.000000	96.647672 
3052.000000	96.648390 
3051.000000	96.649094 
3050.000000	96.649785 
3049.000000	96.650452 
3048.000000	96.651079 
3047.000000	96.651656 
3046.000000	96.652179 
3045.000000	96.652653 
3044.000000	96.653082 
3043.000000	96.653476 
3042.000000	96.653854 
3041.000000	96.654243 
3040.000000	96.654648 
3039.000000	96.655024 
3038.000000	96.655319 
3037.000000	96.655533 
3036.000000	96.655699 
3035.000000	96.655823 
3034.000000	96.655893 
3033.000000	96.655924 
3032.000000	96.655973 
3031.000000	96.656077 
3030.000000	96.656239 
3029.000000	96.656456 
3028.000000	96.656722 
3027.000000	96.656912 
3026.000000	96.656780 
3025.000000	96.656204 
3024.000000	96.655403 
3023.000000	96.654747 
3022.000000	96.654370 
3021.000000	96.654193 
3020.000000	96.654260 
3019.000000	96.654754 
3018.000000	96.655565 
3017.000000	96.656112 
3016.000000	96.655825 
3015.000000	96.654659 
3014.000000	96.653156 
3013.000000	96.652120 
3012.000000	96.652078 
3011.000000	96.652810 
3010.000000	96.653339 
3009.000000	96.652755 
3008.000000	96.650969 
3007.000000	96.648550 
3006.000000	96.645994 
3005.000000	96.643607 
3004.000000	96.641902 
3003.000000	96.641407 
3002.000000	96.642089 
3001.000000	96.643520 
3000.000000	96.645611 
2999.000000	96.648412 
2998.000000	96.651128 
2997.000000	96.652214 
2996.000000	96.650748 
2995.000000	96.647334 
2994.000000	96.643513 
2993.000000	96.640607 
2992.000000	96.639183 
2991.000000	96.638950 
2990.000000	96.638867 
2989.000000	96.638060 
2988.000000	96.636963 
2987.000000	96.636890 
2986.000000	96.638316 
2985.000000	96.640384 
2984.000000	96.642282 
2983.000000	96.644219 
2982.000000	96.646613 
2981.000000	96.649168 
2980.000000	96.651262 
2979.000000	96.652588 
2978.000000	96.652973 
2977.000000	96.652254 
2976.000000	96.650966 
2975.000000	96.650557 
2974.000000	96.652084 
2973.000000	96.655041 
2972.000000	96.657904 
2971.000000	96.659732 
2970.000000	96.660758 
2969.000000	96.661684 
2968.000000	96.663012 
2967.000000	96.664897 
2966.000000	96.667169 
2965.000000	96.669426 
2964.000000	96.671410 
2963.000000	96.673214 
2962.000000	96.675036 
2961.000000	96.676920 
2960.000000	96.678871 
2959.000000	96.680949 
2958.000000	96.683046 
2957.000000	96.684803 
2956.000000	96.686009 
2955.000000	96.686966 
2954.000000	96.688237 
2953.000000	96.690120 
2952.000000	96.692530 
2951.000000	96.695237 
2950.000000	96.697937 
2949.000000	96.700222 
2948.000000	96.701805 
2947.000000	96.702772 
2946.000000	96.703573 
2945.000000	96.704703 
2944.000000	96.706325 
2943.000000	96.708289 
2942.000000	96.710274 
2941.000000	96.711954 
2940.000000	96.713190 
2939.000000	96.714087 
2938.000000	96.714922 
2937.000000	96.715937 
2936.000000	96.717217 
2935.000000	96.718696 
2934.000000	96.720169 
2933.000000	96.721393 
2932.000000	96.722298 
2931.000000	96.723116 
2930.000000	96.724202 
2929.000000	96.725660 
2928.000000	96.727222 
2927.000000	96.728514 
2926.000000	96.729431 
2925.000000	96.730190 
2924.000000	96.731080 
2923.000000	96.732233 
2922.000000	96.733616 
2921.000000	96.735158 
2920.000000	96.736813 
2919.000000	96.738518 
2918.000000	96.740091 
2917.000000	96.741214 
2916.000000	96.741625 
2915.000000	96.741399 
2914.000000	96.741037 
2913.000000	96.741167 
2912.000000	96.742025 
2911.000000	96.743262 
2910.000000	96.744274 
2909.000000	96.744843 
2908.000000	96.745371 
2907.000000	96.746397 
2906.000000	96.747990 
2905.000000	96.749706 
2904.000000	96.751021 
2903.000000	96.751812 
2902.000000	96.752399 
2901.000000	96.753266 
2900.000000	96.754707 
2899.000000	96.756631 
2898.000000	96.758685 
2897.000000	96.760514 
2896.000000	96.761993 
2895.000000	96.763207 
2894.000000	96.764371 
2893.000000	96.765767 
2892.000000	96.767599 
2891.000000	96.769817 
2890.000000	96.772101 
2889.000000	96.774122 
2888.000000	96.775843 
2887.000000	96.777461 
2886.000000	96.779114 
2885.000000	96.780758 
2884.000000	96.782361 
2883.000000	96.784043 
2882.000000	96.785895 
2881.000000	96.787818 
2880.000000	96.789657 
2879.000000	96.791429 
2878.000000	96.793286 
2877.000000	96.795291 
2876.000000	96.797373 
2875.000000	96.799435 
2874.000000	96.801445 
2873.000000	96.803412 
2872.000000	96.805342 
2871.000000	96.807251 
2870.000000	96.809168 
2869.000000	96.811112 
2868.000000	96.813075 
2867.000000	96.815037 
2866.000000	96.816986 
2865.000000	96.818921 
2864.000000	96.820845 
2863.000000	96.822764 
2862.000000	96.824688 
2861.000000	96.826621 
2860.000000	96.828552 
2859.000000	96.830465 
2858.000000	96.832341 
2857.000000	96.834175 
2856.000000	96.835969 
2855.000000	96.837729 
2854.000000	96.839457 
2853.000000	96.841153 
2852.000000	96.842808 
2851.000000	96.844415 
2850.000000	96.845971 
2849.000000	96.847476 
2848.000000	96.848944 
2847.000000	96.850390 
2846.000000	96.851833 
2845.000000	96.853283 
2844.000000	96.854738 
2843.000000	96.856187 
2842.000000	96.857616 
2841.000000	96.859015 
2840.000000	96.860382 
2839.000000	96.861724 
2838.000000	96.863057 
2837.000000	96.864390 
2836.000000	96.865724 
2835.000000	96.867044 
2834.000000	96.868341 
2833.000000	96.869612 
2832.000000	96.870869 
2831.000000	96.872118 
2830.000000	96.873359 
2829.000000	96.874585 
2828.000000	96.875792 
2827.000000	96.876980 
2826.000000	96.878154 
2825.000000	96.879317 
2824.000000	96.880469 
2823.000000	96.881607 
2822.000000	96.882725 
2821.000000	96.883820 
2820.000000	96.884886 
2819.000000	96.885922 
2818.000000	96.886932 
2817.000000	96.887928 
2816.000000	96.888924 
2815.000000	96.889931 
2814.000000	96.890950 
2813.000000	96.891975 
2812.000000	96.892998 
2811.000000	96.894014 
2810.000000	96.895026 
2809.000000	96.896047 
2808.000000	96.897091 
2807.000000	96.898167 
2806.000000	96.899269 
2805.000000	96.900381 
2804.000000	96.901486 
2803.000000	96.902572 
2802.000000	96.903635 
2801.000000	96.904681 
2800.000000	96.905723 
2799.000000	96.906768 
2798.000000	96.907819 
2797.000000	96.908867 
2796.000000	96.909900 
2795.000000	96.910911 
2794.000000	96.911904 
2793.000000	96.912890 
2792.000000	96.913882 
2791.000000	96.914888 
2790.000000	96.915909 
2789.000000	96.916941 
2788.000000	96.917975 
2787.000000	96.919005 
2786.000000	96.920029 
2785.000000	96.921048 
2784.000000	96.922069 
2783.000000	96.923093 
2782.000000	96.924120 
2781.000000	96.925146 
2780.000000	96.926164 
2779.000000	96.927172 
2778.000000	96.928173 
2777.000000	96.929169 
2776.000000	96.930162 
2775.000000	96.931153 
2774.000000	96.932140 
2773.000000	96.933120 
2772.000000	96.934090 
2771.000000	96.935052 
2770.000000	96.936017 
2769.000000	96.936994 
2768.000000	96.937983 
2767.000000	96.938972 
2766.000000	96.939942 
2765.000000	96.940882 
2764.000000	96.941792 
2763.000000	96.942677 
2762.000000	96.943543 
2761.000000	96.944394 
2760.000000	96.945236 
2759.000000	96.946073 
2758.000000	96.946905 
2757.000000	96.947722 
2756.000000	96.948515 
2755.000000	96.949285 
2754.000000	96.950043 
2753.000000	96.950800 
2752.000000	96.951560 
2751.000000	96.952315 
2750.000000	96.953050 
2749.000000	96.953751 
2748.000000	96.954406 
2747.000000	96.955011 
2746.000000	96.955574 
2745.000000	96.956114 
2744.000000	96.956652 
2743.000000	96.957195 
2742.000000	96.957735 
2741.000000	96.958260 
2740.000000	96.958768 
2739.000000	96.959263 
2738.000000	96.959753 
2737.000000	96.960242 
2736.000000	96.960732 
2735.000000	96.961222 
2734.000000	96.961715 
2733.000000	96.962206 
2732.000000	96.962690 
2731.000000	96.963161 
2730.000000	96.963618 
2729.000000	96.964058 
2728.000000	96.964476 
2727.000000	96.964865 
2726.000000	96.965218 
2725.000000	96.965540 
2724.000000	96.965840 
2723.000000	96.966131 
2722.000000	96.966420 
2721.000000	96.966709 
2720.000000	96.966999 
2719.000000	96.967292 
2718.000000	96.967581 
2717.000000	96.967860 
2716.000000	96.968124 
2715.000000	96.968375 
2714.000000	96.968623 
2713.000000	96.968874 
2712.000000	96.969132 
2711.000000	96.969394 
2710.000000	96.969649 
2709.000000	96.969891 
2708.000000	96.970119 
2707.000000	96.970335 
2706.000000	96.970541 
2705.000000	96.970755 
2704.000000	96.971009 
2703.000000	96.971302 
2702.000000	96.971558 
2701.000000	96.971702 
2700.000000	96.971804 
2699.000000	96.972032 
2698.000000	96.972494 
2697.000000	96.973097 
2696.000000	96.973565 
2695.000000	96.973652 
2694.000000	96.973325 
2693.000000	96.972782 
2692.000000	96.972274 
2691.000000	96.971916 
2690.000000	96.971694 
2689.000000	96.971592 
2688.000000	96.971607 
2687.000000	96.971636 
2686.000000	96.971553 
2685.000000	96.971412 
2684.000000	96.971441 
2683.000000	96.971736 
2682.000000	96.972033 
2681.000000	96.971927 
2680.000000	96.971303 
2679.000000	96.970470 
2678.000000	96.969884 
2677.000000	96.969806 
2676.000000	96.970162 
2675.000000	96.970554 
2674.000000	96.970482 
2673.000000	96.969802 
2672.000000	96.968909 
2671.000000	96.968239 
2670.000000	96.967661 
2669.000000	96.966677 
2668.000000	96.965235 
2667.000000	96.963965 
2666.000000	96.963426 
2665.000000	96.963406 
2664.000000	96.963212 
2663.000000	96.962469 
2662.000000	96.961305 
2661.000000	96.959840 
2660.000000	96.957934 
2659.000000	96.955588 
2658.000000	96.953339 
2657.000000	96.951909 
2656.000000	96.951510 
2655.000000	96.951680 
2654.000000	96.951713 
2653.000000	96.951199 
2652.000000	96.950186 
2651.000000	96.949044 
2650.000000	96.948278 
2649.000000	96.948195 
2648.000000	96.948602 
2647.000000	96.948794 
2646.000000	96.948092 
2645.000000	96.946372 
2644.000000	96.944121 
2643.000000	96.942085 
2642.000000	96.940699 
2641.000000	96.939913 
2640.000000	96.939462 
2639.000000	96.939242 
2638.000000	96.939349 
2637.000000	96.939727 
2636.000000	96.940006 
2635.000000	96.939836 
2634.000000	96.939287 
2633.000000	96.938767 
2632.000000	96.938564 
2631.000000	96.938570 
2630.000000	96.938458 
2629.000000	96.938050 
2628.000000	96.937425 
2627.000000	96.936796 
2626.000000	96.936381 
2625.000000	96.936271 
2624.000000	96.936371 
2623.000000	96.936459 
2622.000000	96.936398 
2621.000000	96.936237 
2620.000000	96.936080 
2619.000000	96.935926 
2618.000000	96.935716 
2617.000000	96.935488 
2616.000000	96.935398 
2615.000000	96.935558 
2614.000000	96.935939 
2613.000000	96.936418 
2612.000000	96.936859 
2611.000000	96.937171 
2610.000000	96.937355 
2609.000000	96.937522 
2608.000000	96.937804 
2607.000000	96.938204 
2606.000000	96.938589 
2605.000000	96.938866 
2604.000000	96.939080 
2603.000000	96.939347 
2602.000000	96.939733 
2601.000000	96.940228 
2600.000000	96.940769 
2599.000000	96.941280 
2598.000000	96.941718 
2597.000000	96.942103 
2596.000000	96.942497 
2595.000000	96.942910 
2594.000000	96.943272 
2593.000000	96.943601 
2592.000000	96.944106 
2591.000000	96.944929 
2590.000000	96.945980 
2589.000000	96.947017 
2588.000000	96.947894 
2587.000000	96.948644 
2586.000000	96.949374 
2585.000000	96.950193 
2584.000000	96.951146 
2583.000000	96.952199 
2582.000000	96.953265 
2581.000000	96.954276 
2580.000000	96.955251 
2579.000000	96.956248 
2578.000000	96.957285 
2577.000000	96.958332 
2576.000000	96.959366 
2575.000000	96.960392 
2574.000000	96.961406 
2573.000000	96.962379 
2572.000000	96.963293 
2571.000000	96.964170 
2570.000000	96.965051 
2569.000000	96.965970 
2568.000000	96.966959 
2567.000000	96.968044 
2566.000000	96.969203 
2565.000000	96.970356 
2564.000000	96.971427 
2563.000000	96.972394 
2562.000000	96.973286 
2561.000000	96.974159 
2560.000000	96.975099 
2559.000000	96.976203 
2558.000000	96.977501 
2557.000000	96.978917 
2556.000000	96.980292 
2555.000000	96.981483 
2554.000000	96.982416 
2553.000000	96.983095 
2552.000000	96.983629 
2551.000000	96.984261 
2550.000000	96.985253 
2549.000000	96.986668 
2548.000000	96.988109 
2547.000000	96.989043 
2546.000000	96.989333 
2545.000000	96.989365 
2544.000000	96.989527 
2543.000000	96.989730 
2542.000000	96.989779 
2541.000000	96.989859 
2540.000000	96.990405 
2539.000000	96.991559 
2538.000000	96.992983 
2537.000000	96.994258 
2536.000000	96.995312 
2535.000000	96.996331 
2534.000000	96.997406 
2533.000000	96.998410 
2532.000000	96.999146 
2531.000000	96.999500 
2530.000000	96.999506 
2529.000000	96.999331 
2528.000000	96.999184 
2527.000000	96.999251 
2526.000000	96.999659 
2525.000000	97.000436 
2524.000000	97.001433 
2523.000000	97.002341 
2522.000000	97.002895 
2521.000000	97.003062 
2520.000000	97.003041 
2519.000000	97.003101 
2518.000000	97.003416 
2517.000000	97.003960 
2516.000000	97.004496 
2515.000000	97.004817 
2514.000000	97.005030 
2513.000000	97.005443 
2512.000000	97.006126 
2511.000000	97.006869 
2510.000000	97.007659 
2509.000000	97.008810 
2508.000000	97.010384 
2507.000000	97.011896 
2506.000000	97.012859 
2505.000000	97.013399 
2504.000000	97.014019 
2503.000000	97.015007 
2502.000000	97.016227 
2501.000000	97.017352 
2500.000000	97.018181 
2499.000000	97.018762 
2498.000000	97.019249 
2497.000000	97.019769 
2496.000000	97.020351 
2495.000000	97.020965 
2494.000000	97.021586 
2493.000000	97.022209 
2492.000000	97.022835 
2491.000000	97.023457 
2490.000000	97.024066 
2489.000000	97.024666 
2488.000000	97.025252 
2487.000000	97.025821 
2486.000000	97.026372 
2485.000000	97.026908 
2484.000000	97.027427 
2483.000000	97.027919 
2482.000000	97.028370 
2481.000000	97.028771 
2480.000000	97.029127 
2479.000000	97.029455 
2478.000000	97.029770 
2477.000000	97.030079 
2476.000000	97.030374 
2475.000000	97.030641 
2474.000000	97.030872 
2473.000000	97.031068 
2472.000000	97.031241 
2471.000000	97.031395 
2470.000000	97.031531 
2469.000000	97.031647 
2468.000000	97.031744 
2467.000000	97.031819 
2466.000000	97.031865 
2465.000000	97.031880 
2464.000000	97.031873 
2463.000000	97.031857 
2462.000000	97.031836 
2461.000000	97.031806 
2460.000000	97.031757 
2459.000000	97.031685 
2458.000000	97.031592 
2457.000000	97.031492 
2456.000000	97.031399 
2455.000000	97.031327 
2454.000000	97.031276 
2453.000000	97.031239 
2452.000000	97.031211 
2451.000000	97.031190 
2450.000000	97.031189 
2449.000000	97.031219 
2448.000000	97.031293 
2447.000000	97.031409 
2446.000000	97.031557 
2445.000000	97.031726 
2444.000000	97.031908 
2443.000000	97.032101 
2442.000000	97.032313 
2441.000000	97.032553 
2440.000000	97.032837 
2439.000000	97.033176 
2438.000000	97.033579 
2437.000000	97.034042 
2436.000000	97.034554 
2435.000000	97.035097 
2434.000000	97.035656 
2433.000000	97.036226 
2432.000000	97.036813 
2431.000000	97.037422 
2430.000000	97.038047 
2429.000000	97.038673 
2428.000000	97.039278 
2427.000000	97.039845 
2426.000000	97.040365 
2425.000000	97.040767 
2424.000000	97.040956 
2423.000000	97.041138 
2422.000000	97.041609 
2421.000000	97.042196 
2420.000000	97.042605 
2419.000000	97.042782 
2418.000000	97.042859 
2417.000000	97.043316 
2416.000000	97.045129 
2415.000000	97.048784 
2414.000000	97.052912 
2413.000000	97.055312 
2412.000000	97.055450 
2411.000000	97.054597 
2410.000000	97.053783 
2409.000000	97.053429 
2408.000000	97.054634 
2407.000000	97.058569 
2406.000000	97.064128 
2405.000000	97.067867 
2404.000000	97.067164 
2403.000000	97.062585 
2402.000000	97.057223 
2401.000000	97.054519 
2400.000000	97.056391 
2399.000000	97.062195 
2398.000000	97.068974 
2397.000000	97.073838 
2396.000000	97.076132 
2395.000000	97.076773 
2394.000000	97.076318 
2393.000000	97.074779 
2392.000000	97.072695 
2391.000000	97.070801 
2390.000000	97.068786 
2389.000000	97.065689 
2388.000000	97.061407 
2387.000000	97.056514 
2386.000000	97.050862 
2385.000000	97.043997 
2384.000000	97.037033 
2383.000000	97.032674 
2382.000000	97.033277 
2381.000000	97.040156 
2380.000000	97.054394 
2379.000000	97.076046 
2378.000000	97.101318 
2377.000000	97.122230 
2376.000000	97.131696 
2375.000000	97.128570 
2374.000000	97.116868 
2373.000000	97.101085 
2372.000000	97.083835 
2371.000000	97.067775 
2370.000000	97.056644 
2369.000000	97.052341 
2368.000000	97.052074 
2367.000000	97.050334 
2366.000000	97.044512 
2365.000000	97.037532 
2364.000000	97.034144 
2363.000000	97.035569 
2362.000000	97.039253 
2361.000000	97.041997 
2360.000000	97.040813 
2359.000000	97.033703 
2358.000000	97.022444 
2357.000000	97.013112 
2356.000000	97.011096 
2355.000000	97.015670 
2354.000000	97.022249 
2353.000000	97.024541 
2352.000000	97.018387 
2351.000000	97.004046 
2350.000000	96.985891 
2349.000000	96.970710 
2348.000000	96.963598 
2347.000000	96.964956 
2346.000000	96.967957 
2345.000000	96.964686 
2344.000000	96.955163 
2343.000000	96.944381 
2342.000000	96.938270 
2341.000000	96.939050 
2340.000000	96.945239 
2339.000000	96.952204 
2338.000000	96.955573 
2337.000000	96.954127 
2336.000000	96.948618 
2335.000000	96.941131 
2334.000000	96.933203 
2333.000000	96.925766 
2332.000000	96.917568 
2331.000000	96.908299 
2330.000000	96.895057 
2329.000000	96.875679 
2328.000000	96.847748 
2327.000000	96.816926 
2326.000000	96.790892 
2325.000000	96.775611 
2324.000000	96.772475 
2323.000000	96.780511 
2322.000000	96.796001 
2321.000000	96.811102 
2320.000000	96.819092 
2319.000000	96.821331 
2318.000000	96.823400 
2317.000000	96.829371 
2316.000000	96.836438 
2315.000000	96.841459 
2314.000000	96.841149 
2313.000000	96.836487 
2312.000000	96.828729 
2311.000000	96.821949 
2310.000000	96.816995 
2309.000000	96.813144 
2308.000000	96.807954 
2307.000000	96.802909 
2306.000000	96.799504 
2305.000000	96.797710 
2304.000000	96.795293 
2303.000000	96.793230 
2302.000000	96.794127 
2301.000000	96.799976 
2300.000000	96.808661 
2299.000000	96.817090 
2298.000000	96.821354 
2297.000000	96.820480 
2296.000000	96.816268 
2295.000000	96.814040 
2294.000000	96.817110 
2293.000000	96.824927 
2292.000000	96.833890 
2291.000000	96.841738 
2290.000000	96.847737 
2289.000000	96.851302 
2288.000000	96.852111 
2287.000000	96.851483 
2286.000000	96.851984 
2285.000000	96.854947 
2284.000000	96.859887 
2283.000000	96.865379 
2282.000000	96.870215 
2281.000000	96.873429 
2280.000000	96.874549 
2279.000000	96.873493 
2278.000000	96.870731 
2277.000000	96.867702 
2276.000000	96.866697 
2275.000000	96.869413 
2274.000000	96.875356 
2273.000000	96.882268 
2272.000000	96.888138 
2271.000000	96.892365 
2270.000000	96.894928 
2269.000000	96.896071 
2268.000000	96.896925 
2267.000000	96.898977 
2266.000000	96.902054 
2265.000000	96.904322 
2264.000000	96.904699 
2263.000000	96.903846 
2262.000000	96.902312 
2261.000000	96.899599 
2260.000000	96.895931 
2259.000000	96.892927 
2258.000000	96.891631 
2257.000000	96.891308 
2256.000000	96.891410 
2255.000000	96.893067 
2254.000000	96.897148 
2253.000000	96.901911 
2252.000000	96.904192 
2251.000000	96.902536 
2250.000000	96.897654 
2249.000000	96.891169 
2248.000000	96.885131 
2247.000000	96.881645 
2246.000000	96.881416 
2245.000000	96.882813 
2244.000000	96.883195 
2243.000000	96.881580 
2242.000000	96.878962 
2241.000000	96.876571 
2240.000000	96.874862 
2239.000000	96.874023 
2238.000000	96.874102 
2237.000000	96.874444 
2236.000000	96.874061 
2235.000000	96.872787 
2234.000000	96.871363 
2233.000000	96.870328 
2232.000000	96.869521 
2231.000000	96.868675 
2230.000000	96.867746 
2229.000000	96.866529 
2228.000000	96.864695 
2227.000000	96.862418 
2226.000000	96.860426 
2225.000000	96.859094 
2224.000000	96.857934 
2223.000000	96.856489 
2222.000000	96.855265 
2221.000000	96.854971 
2220.000000	96.855217 
2219.000000	96.854738 
2218.000000	96.852835 
2217.000000	96.850042 
2216.000000	96.847464 
2215.000000	96.845759 
2214.000000	96.844698 
2213.000000	96.843466 
2212.000000	96.841437 
2211.000000	96.838920 
2210.000000	96.836925 
2209.000000	96.836028 
2208.000000	96.835651 
2207.000000	96.834752 
2206.000000	96.833192 
2205.000000	96.831976 
2204.000000	96.832256 
2203.000000	96.834604 
2202.000000	96.838853 
2201.000000	96.843600 
2200.000000	96.845552 
2199.000000	96.841695 
2198.000000	96.832923 
2197.000000	96.823873 
2196.000000	96.818360 
2195.000000	96.815965 
2194.000000	96.813886 
2193.000000	96.811299 
2192.000000	96.810043 
2191.000000	96.810904 
2190.000000	96.811577 
2189.000000	96.809615 
2188.000000	96.806009 
2187.000000	96.803807 
2186.000000	96.803851 
2185.000000	96.804316 
2184.000000	96.804931 
2183.000000	96.809044 
2182.000000	96.819246 
2181.000000	96.832095 
2180.000000	96.839836 
2179.000000	96.838142 
2178.000000	96.830292 
2177.000000	96.823793 
2176.000000	96.823377 
2175.000000	96.827910 
2174.000000	96.833251 
2173.000000	96.836765 
2172.000000	96.838755 
2171.000000	96.840271 
2170.000000	96.840802 
2169.000000	96.838952 
2168.000000	96.835214 
2167.000000	96.832823 
2166.000000	96.834529 
2165.000000	96.838586 
2164.000000	96.839532 
2163.000000	96.834663 
2162.000000	96.829570 
2161.000000	96.835312 
2160.000000	96.858883 
2159.000000	96.896576 
2158.000000	96.935317 
2157.000000	96.962341 
2156.000000	96.973223 
2155.000000	96.971181 
2154.000000	96.963729 
2153.000000	96.959550 
2152.000000	96.963752 
2151.000000	96.973626 
2150.000000	96.980626 
2149.000000	96.979175 
2148.000000	96.973092 
2147.000000	96.971374 
2146.000000	96.978129 
2145.000000	96.989300 
2144.000000	96.998840 
2143.000000	97.004879 
2142.000000	97.008763 
2141.000000	97.011267 
2140.000000	97.012424 
2139.000000	97.013831 
2138.000000	97.018570 
2137.000000	97.028116 
2136.000000	97.039913 
2135.000000	97.048693 
2134.000000	97.050841 
2133.000000	97.047907 
2132.000000	97.045043 
2131.000000	97.045052 
2130.000000	97.045494 
2129.000000	97.042794 
2128.000000	97.037423 
2127.000000	97.032939 
2126.000000	97.031104 
2125.000000	97.030808 
2124.000000	97.031218 
2123.000000	97.032513 
2122.000000	97.032937 
2121.000000	97.028525 
2120.000000	97.017634 
2119.000000	97.003586 
2118.000000	96.991564 
2117.000000	96.984393 
2116.000000	96.981602 
2115.000000	96.980584 
2114.000000	96.977223 
2113.000000	96.968197 
2112.000000	96.955120 
2111.000000	96.943860 
2110.000000	96.938441 
2109.000000	96.937836 
2108.000000	96.939593 
2107.000000	96.943332 
2106.000000	96.948386 
2105.000000	96.951985 
2104.000000	96.952855 
2103.000000	96.953098 
2102.000000	96.953762 
2101.000000	96.952031 
2100.000000	96.946241 
2099.000000	96.940595 
2098.000000	96.940696 
2097.000000	96.946376 
2096.000000	96.952668 
2095.000000	96.956419 
2094.000000	96.958171 
2093.000000	96.958064 
2092.000000	96.954040 
2091.000000	96.945020 
2090.000000	96.933422 
2089.000000	96.923600 
2088.000000	96.918194 
2087.000000	96.916388 
2086.000000	96.915228 
2085.000000	96.912438 
2084.000000	96.908303 
2083.000000	96.904548 
2082.000000	96.901662 
2081.000000	96.898425 
2080.000000	96.894278 
2079.000000	96.890680 
2078.000000	96.889048 
2077.000000	96.888513 
2076.000000	96.887205 
2075.000000	96.885052 
2074.000000	96.883289 
2073.000000	96.881588 
2072.000000	96.877904 
2071.000000	96.871511 
2070.000000	96.864498 
2069.000000	96.859609 
2068.000000	96.857592 
2067.000000	96.857360 
2066.000000	96.857422 
2065.000000	96.856530 
2064.000000	96.853820 
2063.000000	96.849479 
2062.000000	96.845227 
2061.000000	96.843432 
2060.000000	96.845321 
2059.000000	96.849829 
2058.000000	96.853555 
2057.000000	96.852838 
2056.000000	96.846521 
2055.000000	96.836663 
2054.000000	96.826909 
2053.000000	96.819444 
2052.000000	96.814436 
2051.000000	96.811368 
2050.000000	96.809676 
2049.000000	96.808558 
2048.000000	96.807590 
2047.000000	96.807579 
2046.000000	96.809440 
2045.000000	96.812253 
2044.000000	96.813818 
2043.000000	96.813185 
2042.000000	96.811314 
2041.000000	96.809380 
2040.000000	96.807842 
2039.000000	96.807267 
2038.000000	96.808277 
2037.000000	96.810202 
2036.000000	96.811488 
2035.000000	96.812130 
2034.000000	96.814159 
2033.000000	96.818942 
2032.000000	96.825174 
2031.000000	96.830221 
2030.000000	96.832449 
2029.000000	96.831994 
2028.000000	96.830402 
2027.000000	96.829519 
2026.000000	96.829928 
2025.000000	96.830595 
2024.000000	96.830729 
2023.000000	96.831551 
2022.000000	96.835088 
2021.000000	96.840964 
2020.000000	96.845404 
2019.000000	96.844340 
2018.000000	96.837006 
2017.000000	96.827033 
2016.000000	96.820339 
2015.000000	96.820660 
2014.000000	96.826511 
2013.000000	96.831883 
2012.000000	96.832253 
2011.000000	96.829933 
2010.000000	96.831166 
2009.000000	96.838425 
2008.000000	96.848251 
2007.000000	96.856585 
2006.000000	96.862893 
2005.000000	96.867469 
2004.000000	96.868935 
2003.000000	96.867080 
2002.000000	96.865162 
2001.000000	96.866003 
2000.000000	96.867517 
1999.000000	96.865037 
1998.000000	96.857165 
1997.000000	96.847505 
1996.000000	96.840697 
1995.000000	96.838055 
1994.000000	96.837260 
1993.000000	96.835318 
1992.000000	96.831834 
1991.000000	96.829777 
1990.000000	96.832490 
1989.000000	96.839828 
1988.000000	96.847471 
1987.000000	96.850182 
1986.000000	96.845782 
1985.000000	96.836121 
1984.000000	96.825201 
1983.000000	96.816467 
1982.000000	96.811562 
1981.000000	96.810909 
1980.000000	96.814944 
1979.000000	96.823855 
1978.000000	96.835503 
1977.000000	96.845245 
1976.000000	96.849862 
1975.000000	96.851068 
1974.000000	96.853376 
1973.000000	96.859028 
1972.000000	96.866275 
1971.000000	96.872154 
1970.000000	96.875039 
1969.000000	96.874293 
1968.000000	96.869681 
1967.000000	96.862737 
1966.000000	96.857717 
1965.000000	96.858709 
1964.000000	96.866197 
1963.000000	96.877398 
1962.000000	96.888857 
1961.000000	96.898244 
1960.000000	96.904051 
1959.000000	96.905404 
1958.000000	96.903360 
1957.000000	96.901407 
1956.000000	96.902717 
1955.000000	96.907025 
1954.000000	96.911182 
1953.000000	96.912734 
1952.000000	96.912192 
1951.000000	96.911774 
1950.000000	96.913055 
1949.000000	96.916211 
1948.000000	96.920724 
1947.000000	96.925753 
1946.000000	96.930051 
1945.000000	96.932505 
1944.000000	96.933013 
1943.000000	96.932647 
1942.000000	96.932713 
1941.000000	96.933636 
1940.000000	96.934994 
1939.000000	96.936248 
1938.000000	96.937261 
1937.000000	96.938355 
1936.000000	96.939901 
1935.000000	96.941727 
1934.000000	96.943116 
1933.000000	96.943726 
1932.000000	96.944222 
1931.000000	96.945519 
1930.000000	96.947636 
1929.000000	96.949589 
1928.000000	96.950725 
1927.000000	96.951477 
1926.000000	96.952667 
1925.000000	96.954419 
1924.000000	96.955997 
1923.000000	96.956634 
1922.000000	96.956008 
1921.000000	96.954405 
1920.000000	96.952714 
1919.000000	96.951852 
1918.000000	96.951928 
1917.000000	96.951926 
1916.000000	96.950942 
1915.000000	96.949365 
1914.000000	96.948119 
1913.000000	96.947571 
1912.000000	96.947414 
1911.000000	96.947479 
1910.000000	96.947939 
1909.000000	96.948679 
1908.000000	96.949374 
1907.000000	96.949766 
1906.000000	96.949441 
1905.000000	96.947666 
1904.000000	96.944154 
1903.000000	96.940173 
1902.000000	96.937721 
1901.000000	96.937427 
1900.000000	96.938249 
1899.000000	96.938749 
1898.000000	96.938316 
1897.000000	96.937058 
1896.000000	96.935190 
1895.000000	96.933244 
1894.000000	96.931887 
1893.000000	96.931018 
1892.000000	96.929702 
1891.000000	96.927306 
1890.000000	96.924406 
1889.000000	96.922462 
1888.000000	96.922542 
1887.000000	96.924532 
1886.000000	96.927040 
1885.000000	96.928071 
1884.000000	96.926635 
1883.000000	96.923811 
1882.000000	96.921794 
1881.000000	96.921713 
1880.000000	96.923025 
1879.000000	96.924397 
1878.000000	96.924805 
1877.000000	96.924287 
1876.000000	96.923754 
1875.000000	96.924106 
1874.000000	96.925479 
1873.000000	96.927245 
1872.000000	96.928908 
1871.000000	96.930606 
1870.000000	96.932349 
1869.000000	96.933462 
1868.000000	96.933746 
1867.000000	96.934555 
1866.000000	96.936959 
1865.000000	96.940031 
1864.000000	96.942267 
1863.000000	96.943567 
1862.000000	96.944885 
1861.000000	96.946619 
1860.000000	96.948542 
1859.000000	96.950996 
1858.000000	96.954806 
1857.000000	96.960086 
1856.000000	96.966052 
1855.000000	96.971564 
1854.000000	96.975475 
1853.000000	96.977115 
1852.000000	96.977445 
1851.000000	96.978828 
1850.000000	96.982607 
1849.000000	96.987954 
1848.000000	96.992803 
1847.000000	96.996038 
1846.000000	96.998013 
1845.000000	96.999655 
1844.000000	97.001735 
1843.000000	97.004439 
1842.000000	97.007421 
1841.000000	97.010168 
1840.000000	97.012649 
1839.000000	97.015320 
1838.000000	97.018391 
1837.000000	97.021193 
1836.000000	97.022952 
1835.000000	97.024026 
1834.000000	97.025442 
1833.000000	97.027519 
1832.000000	97.029712 
1831.000000	97.031294 
1830.000000	97.031999 
1829.000000	97.032333 
1828.000000	97.033129 
1827.000000	97.034803 
1826.000000	97.037158 
1825.000000	97.039538 
1824.000000	97.041228 
1823.000000	97.042084 
1822.000000	97.042604 
1821.000000	97.043320 
1820.000000	97.044411 
1819.000000	97.045809 
1818.000000	97.047443 
1817.000000	97.048975 
1816.000000	97.049759 
1815.000000	97.049853 
1814.000000	97.050273 
1813.000000	97.051724 
1812.000000	97.053436 
1811.000000	97.053943 
1810.000000	97.053202 
1809.000000	97.052361 
1808.000000	97.051970 
1807.000000	97.051878 
1806.000000	97.052078 
1805.000000	97.052668 
1804.000000	97.053402 
1803.000000	97.054010 
1802.000000	97.054471 
1801.000000	97.054840 
1800.000000	97.054882 
1799.000000	97.054446 
1798.000000	97.054096 
1797.000000	97.054469 
1796.000000	97.055660 
1795.000000	97.057404 
1794.000000	97.059279 
1793.000000	97.060807 
1792.000000	97.061664 
1791.000000	97.062193 
1790.000000	97.063211 
1789.000000	97.064946 
1788.000000	97.066976 
1787.000000	97.068820 
1786.000000	97.070385 
1785.000000	97.071851 
1784.000000	97.073363 
1783.000000	97.074936 
1782.000000	97.076529 
1781.000000	97.078153 
1780.000000	97.079828 
1779.000000	97.081549 
1778.000000	97.083298 
1777.000000	97.085050 
1776.000000	97.086783 
1775.000000	97.088497 
1774.000000	97.090214 
1773.000000	97.091962 
1772.000000	97.093761 
1771.000000	97.095603 
1770.000000	97.097467 
1769.000000	97.099339 
1768.000000	97.101221 
1767.000000	97.103127 
1766.000000	97.105066 
1765.000000	97.107037 
1764.000000	97.109024 
1763.000000	97.111003 
1762.000000	97.112950 
1761.000000	97.114859 
1760.000000	97.116742 
1759.000000	97.118619 
1758.000000	97.120499 
1757.000000	97.122380 
1756.000000	97.124250 
1755.000000	97.126091 
1754.000000	97.127877 
1753.000000	97.129594 
1752.000000	97.131256 
1751.000000	97.132897 
1750.000000	97.134546 
1749.000000	97.136201 
1748.000000	97.137832 
1747.000000	97.139403 
1746.000000	97.140891 
1745.000000	97.142290 
1744.000000	97.143602 
1743.000000	97.144837 
1742.000000	97.146009 
1741.000000	97.147130 
1740.000000	97.148197 
1739.000000	97.149195 
1738.000000	97.150105 
1737.000000	97.150920 
1736.000000	97.151649 
1735.000000	97.152320 
1734.000000	97.152965 
1733.000000	97.153594 
1732.000000	97.154210 
1731.000000	97.154807 
1730.000000	97.155370 
1729.000000	97.155858 
1728.000000	97.156240 
1727.000000	97.156537 
1726.000000	97.156790 
1725.000000	97.157035 
1724.000000	97.157247 
1723.000000	97.157329 
1722.000000	97.157221 
1721.000000	97.156916 
1720.000000	97.156452 
1719.000000	97.155960 
1718.000000	97.155639 
1717.000000	97.155392 
1716.000000	97.154770 
1715.000000	97.153690 
1714.000000	97.152451 
1713.000000	97.151282 
1712.000000	97.150190 
1711.000000	97.149204 
1710.000000	97.148361 
1709.000000	97.147500 
1708.000000	97.146364 
1707.000000	97.144909 
1706.000000	97.143361 
1705.000000	97.141845 
1704.000000	97.140209 
1703.000000	97.138372 
1702.000000	97.136414 
1701.000000	97.134646 
1700.000000	97.133241 
1699.000000	97.131931 
1698.000000	97.130535 
1697.000000	97.129047 
1696.000000	97.127436 
1695.000000	97.125779 
1694.000000	97.124168 
1693.000000	97.122587 
1692.000000	97.120946 
1691.000000	97.119180 
1690.000000	97.117323 
1689.000000	97.115451 
1688.000000	97.113610 
1687.000000	97.111778 
1686.000000	97.109908 
1685.000000	97.108023 
1684.000000	97.106120 
1683.000000	97.104150 
1682.000000	97.102164 
1681.000000	97.100208 
1680.000000	97.098315 
1679.000000	97.096496 
1678.000000	97.094717 
1677.000000	97.092897 
1676.000000	97.091012 
1675.000000	97.089136 
1674.000000	97.087220 
1673.000000	97.085207 
1672.000000	97.083229 
1671.000000	97.081480 
1670.000000	97.080042 
1669.000000	97.078700 
1668.000000	97.077482 
1667.000000	97.076574 
1666.000000	97.075665 
1665.000000	97.074347 
1664.000000	97.072757 
1663.000000	97.071601 
1662.000000	97.070801 
1661.000000	97.069372 
1660.000000	97.067406 
1659.000000	97.065778 
1658.000000	97.064711 
1657.000000	97.063845 
1656.000000	97.062637 
1655.000000	97.060113 
1654.000000	97.056509 
1653.000000	97.054503 
1652.000000	97.052044 
1651.000000	97.048982 
1650.000000	97.046353 
1649.000000	97.044992 
1648.000000	97.044927 
1647.000000	97.045864 
1646.000000	97.046554 
1645.000000	97.046164 
1644.000000	97.044806 
1643.000000	97.043004 
1642.000000	97.041356 
1641.000000	97.039963 
1640.000000	97.039570 
1639.000000	97.040036 
1638.000000	97.040049 
1637.000000	97.038624 
1636.000000	97.037156 
1635.000000	97.037303 
1634.000000	97.038413 
1633.000000	97.039254 
1632.000000	97.038507 
1631.000000	97.036593 
1630.000000	97.034880 
1629.000000	97.034078 
1628.000000	97.033834 
1627.000000	97.033879 
1626.000000	97.033533 
1625.000000	97.032346 
1624.000000	97.032336 
1623.000000	97.036072 
1622.000000	97.041889 
1621.000000	97.045538 
1620.000000	97.045896 
1619.000000	97.044136 
1618.000000	97.041815 
1617.000000	97.040160 
1616.000000	97.038974 
1615.000000	97.038100 
1614.000000	97.037800 
1613.000000	97.037254 
1612.000000	97.036189 
1611.000000	97.036183 
1610.000000	97.037971 
1609.000000	97.041045 
1608.000000	97.046192 
1607.000000	97.053617 
1606.000000	97.059507 
1605.000000	97.060742 
1604.000000	97.060427 
1603.000000	97.062470 
1602.000000	97.066368 
1601.000000	97.070059 
1600.000000	97.074158 
1599.000000	97.079403 
1598.000000	97.083511 
1597.000000	97.084720 
1596.000000	97.085238 
1595.000000	97.088502 
1594.000000	97.094497 
1593.000000	97.100407 
1592.000000	97.104905 
1591.000000	97.108623 
1590.000000	97.111467 
1589.000000	97.112875 
1588.000000	97.114420 
1587.000000	97.118315 
1586.000000	97.123797 
1585.000000	97.127647 
1584.000000	97.130227 
1583.000000	97.134570 
1582.000000	97.140085 
1581.000000	97.144495 
1580.000000	97.148876 
1579.000000	97.155241 
1578.000000	97.162138 
1577.000000	97.167863 
1576.000000	97.172650 
1575.000000	97.174921 
1574.000000	97.173258 
1573.000000	97.169662 
1572.000000	97.167662 
1571.000000	97.170288 
1570.000000	97.176341 
1569.000000	97.178755 
1568.000000	97.177448 
1567.000000	97.177082 
1566.000000	97.177000 
1565.000000	97.174774 
1564.000000	97.172568 
1563.000000	97.170842 
1562.000000	97.166452 
1561.000000	97.152952 
1560.000000	97.145975 
1559.000000	97.157750 
1558.000000	97.161388 
1557.000000	97.153735 
1556.000000	97.148301 
1555.000000	97.145738 
1554.000000	97.142635 
1553.000000	97.138283 
1552.000000	97.134719 
1551.000000	97.129770 
1550.000000	97.121676 
1549.000000	97.113028 
1548.000000	97.108008 
1547.000000	97.106817 
1546.000000	97.104770 
1545.000000	97.098114 
1544.000000	97.088323 
1543.000000	97.078694 
1542.000000	97.071476 
1541.000000	97.066372 
1540.000000	97.056901 
1539.000000	97.041618 
1538.000000	97.026422 
1537.000000	97.012389 
1536.000000	96.997840 
1535.000000	96.983962 
1534.000000	96.973363 
1533.000000	96.965777 
1532.000000	96.957828 
1531.000000	96.948257 
1530.000000	96.938122 
1529.000000	96.927866 
1528.000000	96.916571 
1527.000000	96.904544 
1526.000000	96.893627 
1525.000000	96.884915 
1524.000000	96.877675 
1523.000000	96.870135 
1522.000000	96.860350 
1521.000000	96.846394 
1520.000000	96.829192 
1519.000000	96.812529 
1518.000000	96.798303 
1517.000000	96.785943 
1516.000000	96.774391 
1515.000000	96.764125 
1514.000000	96.755666 
1513.000000	96.747921 
1512.000000	96.738700 
1511.000000	96.726494 
1510.000000	96.712208 
1509.000000	96.697615 
1508.000000	96.684648 
1507.000000	96.673851 
1506.000000	96.664085 
1505.000000	96.653566 
1504.000000	96.641913 
1503.000000	96.629593 
1502.000000	96.617055 
1501.000000	96.604661 
1500.000000	96.592900 
1499.000000	96.581846 
1498.000000	96.570933 
1497.000000	96.559706 
1496.000000	96.547986 
1495.000000	96.536169 
1494.000000	96.525232 
1493.000000	96.515764 
1492.000000	96.507322 
1491.000000	96.498762 
1490.000000	96.488949 
1489.000000	96.477813 
1488.000000	96.466082 
1487.000000	96.454713 
1486.000000	96.444339 
1485.000000	96.432953 
1484.000000	96.419372 
1483.000000	96.405905 
1482.000000	96.395222 
1481.000000	96.387389 
1480.000000	96.379646 
1479.000000	96.370384 
1478.000000	96.360227 
1477.000000	96.349828 
1476.000000	96.337751 
1475.000000	96.322987 
1474.000000	96.307696 
1473.000000	96.295850 
1472.000000	96.288757 
1471.000000	96.283500 
1470.000000	96.277757 
1469.000000	96.270090 
1468.000000	96.258749 
1467.000000	96.244232 
1466.000000	96.230969 
1465.000000	96.223109 
1464.000000	96.219633 
1463.000000	96.214570 
1462.000000	96.204983 
1461.000000	96.193616 
1460.000000	96.184765 
1459.000000	96.178802 
1458.000000	96.171023 
1457.000000	96.159782 
1456.000000	96.149551 
1455.000000	96.141416 
1454.000000	96.132199 
1453.000000	96.122838 
1452.000000	96.116857 
1451.000000	96.115339 
1450.000000	96.116614 
1449.000000	96.118827 
1448.000000	96.119756 
1447.000000	96.118643 
1446.000000	96.116260 
1445.000000	96.114550 
1444.000000	96.115409 
1443.000000	96.116497 
1442.000000	96.115468 
1441.000000	96.113139 
1440.000000	96.111001 
1439.000000	96.106700 
1438.000000	96.097620 
1437.000000	96.087990 
1436.000000	96.083826 
1435.000000	96.083323 
1434.000000	96.083280 
1433.000000	96.084509 
1432.000000	96.088194 
1431.000000	96.093565 
1430.000000	96.098709 
1429.000000	96.103719 
1428.000000	96.108657 
1427.000000	96.113617 
1426.000000	96.119180 
1425.000000	96.127035 
1424.000000	96.138786 
1423.000000	96.149607 
1422.000000	96.154785 
1421.000000	96.157133 
1420.000000	96.163516 
1419.000000	96.171835 
1418.000000	96.173321 
1417.000000	96.172520 
1416.000000	96.179884 
1415.000000	96.195076 
1414.000000	96.209947 
1413.000000	96.219705 
1412.000000	96.227107 
1411.000000	96.234975 
1410.000000	96.242444 
1409.000000	96.249876 
1408.000000	96.259199 
1407.000000	96.271475 
1406.000000	96.286122 
1405.000000	96.303186 
1404.000000	96.323684 
1403.000000	96.343825 
1402.000000	96.358716 
1401.000000	96.369847 
1400.000000	96.382953 
1399.000000	96.399703 
1398.000000	96.416220 
1397.000000	96.431222 
1396.000000	96.447520 
1395.000000	96.466401 
1394.000000	96.484586 
1393.000000	96.500937 
1392.000000	96.519681 
1391.000000	96.542336 
1390.000000	96.565175 
1389.000000	96.583708 
1388.000000	96.596503 
1387.000000	96.605365 
1386.000000	96.613502 
1385.000000	96.624422 
1384.000000	96.640623 
1383.000000	96.660997 
1382.000000	96.681522 
1381.000000	96.698808 
1380.000000	96.712076 
1379.000000	96.723374 
1378.000000	96.735994 
1377.000000	96.751840 
1376.000000	96.769483 
1375.000000	96.784833 
1374.000000	96.794572 
1373.000000	96.800721 
1372.000000	96.808584 
1371.000000	96.820964 
1370.000000	96.836083 
1369.000000	96.849977 
1368.000000	96.861341 
1367.000000	96.871784 
1366.000000	96.883455 
1365.000000	96.897361 
1364.000000	96.911722 
1363.000000	96.922510 
1362.000000	96.928230 
1361.000000	96.932943 
1360.000000	96.941866 
1359.000000	96.956166 
1358.000000	96.972847 
1357.000000	96.987963 
1356.000000	96.999460 
1355.000000	97.007501 
1354.000000	97.013740 
1353.000000	97.021024 
1352.000000	97.030663 
1351.000000	97.042187 
1350.000000	97.054014 
1349.000000	97.063791 
1348.000000	97.070881 
1347.000000	97.076794 
1346.000000	97.083917 
1345.000000	97.093509 
1344.000000	97.104683 
1343.000000	97.115365 
1342.000000	97.123956 
1341.000000	97.129889 
1340.000000	97.133359 
1339.000000	97.135480 
1338.000000	97.137891 
1337.000000	97.141606 
1336.000000	97.146073 
1335.000000	97.149790 
1334.000000	97.152386 
1333.000000	97.155412 
1332.000000	97.160078 
1331.000000	97.165398 
1330.000000	97.169204 
1329.000000	97.170774 
1328.000000	97.171392 
1327.000000	97.172886 
1326.000000	97.175426 
1325.000000	97.177239 
1324.000000	97.177064 
1323.000000	97.174953 
1322.000000	97.171741 
1321.000000	97.168793 
1320.000000	97.167766 
1319.000000	97.169502 
1318.000000	97.173321 
1317.000000	97.177728 
1316.000000	97.180974 
1315.000000	97.181158 
1314.000000	97.177556 
1313.000000	97.172705 
1312.000000	97.170879 
1311.000000	97.173247 
1310.000000	97.176162 
1309.000000	97.175869 
1308.000000	97.173026 
1307.000000	97.171599 
1306.000000	97.173863 
1305.000000	97.178304 
1304.000000	97.182401 
1303.000000	97.184545 
1302.000000	97.183792 
1301.000000	97.179925 
1300.000000	97.174608 
1299.000000	97.170963 
1298.000000	97.170926 
1297.000000	97.173365 
1296.000000	97.175448 
1295.000000	97.175813 
1294.000000	97.175651 
1293.000000	97.176861 
1292.000000	97.179408 
1291.000000	97.180921 
1290.000000	97.179259 
1289.000000	97.174984 
1288.000000	97.170623 
1287.000000	97.167767 
1286.000000	97.165941 
1285.000000	97.164569 
1284.000000	97.164500 
1283.000000	97.166251 
1282.000000	97.167967 
1281.000000	97.166780 
1280.000000	97.162354 
1279.000000	97.157904 
1278.000000	97.157258 
1277.000000	97.161329 
1276.000000	97.167505 
1275.000000	97.172391 
1274.000000	97.174916 
1273.000000	97.176782 
1272.000000	97.179779 
1271.000000	97.183041 
1270.000000	97.183875 
1269.000000	97.181237 
1268.000000	97.177094 
1267.000000	97.173633 
1266.000000	97.170641 
1265.000000	97.167290 
1264.000000	97.164869 
1263.000000	97.165283 
1262.000000	97.167683 
1261.000000	97.169146 
1260.000000	97.169305 
1259.000000	97.171613 
1258.000000	97.178371 
1257.000000	97.186475 
1256.000000	97.190005 
1255.000000	97.186614 
1254.000000	97.179890 
1253.000000	97.174830 
1252.000000	97.172149 
1251.000000	97.168541 
1250.000000	97.162040 
1249.000000	97.155198 
1248.000000	97.152094 
1247.000000	97.153202 
1246.000000	97.154850 
1245.000000	97.153667 
1244.000000	97.149675 
1243.000000	97.144592 
1242.000000	97.138974 
1241.000000	97.132160 
1240.000000	97.123792 
1239.000000	97.113945 
1238.000000	97.102332 
1237.000000	97.088516 
1236.000000	97.072747 
1235.000000	97.055967 
1234.000000	97.039173 
1233.000000	97.022983 
1232.000000	97.007117 
1231.000000	96.989805 
1230.000000	96.968739 
1229.000000	96.943267 
1228.000000	96.914509 
1227.000000	96.882598 
1226.000000	96.845148 
1225.000000	96.799727 
1224.000000	96.746810 
1223.000000	96.688795 
1222.000000	96.626819 
1221.000000	96.560448 
1220.000000	96.490415 
1219.000000	96.419404 
1218.000000	96.348933 
1217.000000	96.276636 
1216.000000	96.197782 
1215.000000	96.109599 
1214.000000	96.014505 
1213.000000	95.919451 
1212.000000	95.830552 
1211.000000	95.746572 
1210.000000	95.659078 
1209.000000	95.561466 
1208.000000	95.457041 
1207.000000	95.355648 
1206.000000	95.262741 
1205.000000	95.174787 
1204.000000	95.085359 
1203.000000	94.992000 
1202.000000	94.896285 
1201.000000	94.800513 
1200.000000	94.706130 
1199.000000	94.613499 
1198.000000	94.521833 
1197.000000	94.430645 
1196.000000	94.341164 
1195.000000	94.254537 
1194.000000	94.169071 
1193.000000	94.081533 
1192.000000	93.990906 
1191.000000	93.898401 
1190.000000	93.804242 
1189.000000	93.707173 
1188.000000	93.606877 
1187.000000	93.504227 
1186.000000	93.399565 
1185.000000	93.293278 
1184.000000	93.187012 
1183.000000	93.081200 
1182.000000	92.972605 
1181.000000	92.857899 
1180.000000	92.738449 
1179.000000	92.617430 
1178.000000	92.493429 
1177.000000	92.361953 
1176.000000	92.222542 
1175.000000	92.079103 
1174.000000	91.933513 
1173.000000	91.784448 
1172.000000	91.632691 
1171.000000	91.481462 
1170.000000	91.330857 
1169.000000	91.178286 
1168.000000	91.025945 
1167.000000	90.882552 
1166.000000	90.757168 
1165.000000	90.657341 
1164.000000	90.593178 
1163.000000	90.574761 
1162.000000	90.602347 
1161.000000	90.663607 
1160.000000	90.740534 
1159.000000	90.813743 
1158.000000	90.862593 
1157.000000	90.871298 
1156.000000	90.837472 
1155.000000	90.769531 
1154.000000	90.675819 
1153.000000	90.562044 
1152.000000	90.438031 
1151.000000	90.317003 
1150.000000	90.204744 
1149.000000	90.096708 
1148.000000	89.988264 
1147.000000	89.880317 
1146.000000	89.772978 
1145.000000	89.662388 
1144.000000	89.547505 
1143.000000	89.432730 
1142.000000	89.320317 
1141.000000	89.207114 
1140.000000	89.091689 
1139.000000	88.977323 
1138.000000	88.864925 
1137.000000	88.750511 
1136.000000	88.632878 
1135.000000	88.516214 
1134.000000	88.401763 
1133.000000	88.284414 
1132.000000	88.161080 
1131.000000	88.035233 
1130.000000	87.909948 
1129.000000	87.783767 
1128.000000	87.656395 
1127.000000	87.530557 
1126.000000	87.404899 
1125.000000	87.273273 
1124.000000	87.134830 
1123.000000	86.997007 
1122.000000	86.864699 
1121.000000	86.734297 
1120.000000	86.602043 
1119.000000	86.469961 
1118.000000	86.339713 
1117.000000	86.209335 
1116.000000	86.079928 
1115.000000	85.956858 
1114.000000	85.840515 
1113.000000	85.724696 
1112.000000	85.607449 
1111.000000	85.493644 
1110.000000	85.383714 
1109.000000	85.271114 
1108.000000	85.154341 
1107.000000	85.040248 
1106.000000	84.931527 
1105.000000	84.821415 
1104.000000	84.704876 
1103.000000	84.585413 
1102.000000	84.466722 
1101.000000	84.348248 
1100.000000	84.231163 
1099.000000	84.119056 
1098.000000	84.010373 
1097.000000	83.899523 
1096.000000	83.787864 
1095.000000	83.682292 
1094.000000	83.582114 
1093.000000	83.479878 
1092.000000	83.377038 
1091.000000	83.285139 
1090.000000	83.208424 
1089.000000	83.138270 
1088.000000	83.067663 
1087.000000	82.998292 
1086.000000	82.931038 
1085.000000	82.863386 
1084.000000	82.799037 
1083.000000	82.745982 
1082.000000	82.701920 
1081.000000	82.655588 
1080.000000	82.605264 
1079.000000	82.561028 
1078.000000	82.525289 
1077.000000	82.486324 
1076.000000	82.435525 
1075.000000	82.376014 
1074.000000	82.309809 
1073.000000	82.231188 
1072.000000	82.137516 
1071.000000	82.032327 
1070.000000	81.912716 
1069.000000	81.767620 
1068.000000	81.594100 
1067.000000	81.403050 
1066.000000	81.204807 
1065.000000	81.001932 
1064.000000	80.799901 
1063.000000	80.609365 
1062.000000	80.431385 
1061.000000	80.254640 
1060.000000	80.073451 
1059.000000	79.895448 
1058.000000	79.726592 
1057.000000	79.562411 
1056.000000	79.399017 
1055.000000	79.238778 
1054.000000	79.079975 
1053.000000	78.914614 
1052.000000	78.741948 
1051.000000	78.570371 
1050.000000	78.400968 
1049.000000	78.224734 
1048.000000	78.039883 
1047.000000	77.854080 
1046.000000	77.666783 
1045.000000	77.467538 
1044.000000	77.254129 
1043.000000	77.035703 
1042.000000	76.816233 
1041.000000	76.591861 
1040.000000	76.366830 
1039.000000	76.154075 
1038.000000	75.956726 
1037.000000	75.766914 
1036.000000	75.585848 
1035.000000	75.426088 
1034.000000	75.290282 
1033.000000	75.166756 
1032.000000	75.049915 
1031.000000	74.946047 
1030.000000	74.855501 
1029.000000	74.769242 
1028.000000	74.687260 
1027.000000	74.620292 
1026.000000	74.568624 
1025.000000	74.518816 
1024.000000	74.465696 
1023.000000	74.417854 
1022.000000	74.377190 
1021.000000	74.333468 
1020.000000	74.283737 
1019.000000	74.237132 
1018.000000	74.195690 
1017.000000	74.150229 
1016.000000	74.099845 
1015.000000	74.055858 
1014.000000	74.021697 
1013.000000	73.987964 
1012.000000	73.951405 
1011.000000	73.919595 
1010.000000	73.893334 
1009.000000	73.864425 
1008.000000	73.834636 
1007.000000	73.816814 
1006.000000	73.813467 
1005.000000	73.814087 
1004.000000	73.816600 
1003.000000	73.830329 
1002.000000	73.854112 
1001.000000	73.873514 
1000.000000	73.885148 
999.000000	 73.902885 
998.000000	 73.934386 
997.000000	 73.971757 
996.000000	 74.010646 
995.000000	 74.058579 
994.000000	 74.118415 
993.000000	 74.182165 
992.000000	 74.246105 
991.000000	 74.314131 
990.000000	 74.383412 
989.000000	 74.446445 
988.000000	 74.510320 
987.000000	 74.593143 
986.000000	 74.697681 
985.000000	 74.809061 
984.000000	 74.921929 
983.000000	 75.048093 
982.000000	 75.192493 
981.000000	 75.344334 
980.000000	 75.498840 
979.000000	 75.666556 
978.000000	 75.853034 
977.000000	 76.048845 
976.000000	 76.247325 
975.000000	 76.454161 
974.000000	 76.672279 
973.000000	 76.895130 
972.000000	 77.122091 
971.000000	 77.363275 
970.000000	 77.621277 
969.000000	 77.883351 
968.000000	 78.138436 
967.000000	 78.388181 
966.000000	 78.636284 
965.000000	 78.881454 
964.000000	 79.125898 
963.000000	 79.376598 
962.000000	 79.632641 
961.000000	 79.883323 
960.000000	 80.122375 
959.000000	 80.352552 
958.000000	 80.574961 
957.000000	 80.787026 
956.000000	 80.992503 
955.000000	 81.199919 
954.000000	 81.409004 
953.000000	 81.611147 
952.000000	 81.803638 
951.000000	 81.990050 
950.000000	 82.167280 
949.000000	 82.327650 
948.000000	 82.474392 
947.000000	 82.619412 
946.000000	 82.764177 
945.000000	 82.898368 
944.000000	 83.019353 
943.000000	 83.137385 
942.000000	 83.258926 
941.000000	 83.379928 
940.000000	 83.498357 
939.000000	 83.617872 
938.000000	 83.736142 
937.000000	 83.845188 
936.000000	 83.947403 
935.000000	 84.056442 
934.000000	 84.177657 
933.000000	 84.301738 
932.000000	 84.421955 
931.000000	 84.543489 
930.000000	 84.670843 
929.000000	 84.799190 
928.000000	 84.923629 
927.000000	 85.045515 
926.000000	 85.165190 
925.000000	 85.278915 
924.000000	 85.386204 
923.000000	 85.490333 
922.000000	 85.590270 
921.000000	 85.682891 
920.000000	 85.773648 
919.000000	 85.872698 
918.000000	 85.979035 
917.000000	 86.080615 
916.000000	 86.171950 
915.000000	 86.260167 
914.000000	 86.352837 
913.000000	 86.452089 
912.000000	 86.561786 
911.000000	 86.687698 
910.000000	 86.828491 
909.000000	 86.978001 
908.000000	 87.137133 
907.000000	 87.311972 
906.000000	 87.501011 
905.000000	 87.696927 
904.000000	 87.899760 
903.000000	 88.114609 
902.000000	 88.337555 
901.000000	 88.558307 
900.000000	 88.776200 
899.000000	 88.999090 
898.000000	 89.226779 
897.000000	 89.449551 
896.000000	 89.662428 
895.000000	 89.867057 
894.000000	 90.060872 
893.000000	 90.239349 
892.000000	 90.408351 
891.000000	 90.578830 
890.000000	 90.748328 
889.000000	 90.902249 
888.000000	 91.034006 
887.000000	 91.149452 
886.000000	 91.251342 
885.000000	 91.334855 
884.000000	 91.400317 
883.000000	 91.455484 
882.000000	 91.503802 
881.000000	 91.546388 
880.000000	 91.597093 
879.000000	 91.676520 
878.000000	 91.785998 
877.000000	 91.905250 
876.000000	 92.021281 
875.000000	 92.142415 
874.000000	 92.279338 
873.000000	 92.432225 
872.000000	 92.603266 
871.000000	 92.801606 
870.000000	 93.025276 
869.000000	 93.253697 
868.000000	 93.467757 
867.000000	 93.665720 
866.000000	 93.853837 
865.000000	 94.034870 
864.000000	 94.212856 
863.000000	 94.396318 
862.000000	 94.587080 
861.000000	 94.774366 
860.000000	 94.947254 
859.000000	 95.105874 
858.000000	 95.255853 
857.000000	 95.399855 
856.000000	 95.539036 
855.000000	 95.674311 
854.000000	 95.800961 
853.000000	 95.909568 
852.000000	 95.997368 
851.000000	 96.073009 
850.000000	 96.147405 
849.000000	 96.226146 
848.000000	 96.311709 
847.000000	 96.403578 
846.000000	 96.493267 
845.000000	 96.568402 
844.000000	 96.625205 
843.000000	 96.669920 
842.000000	 96.707049 
841.000000	 96.734589 
840.000000	 96.751052 
839.000000	 96.756434 
838.000000	 96.745326 
837.000000	 96.711494 
836.000000	 96.662709 
835.000000	 96.619513 
834.000000	 96.594308 
833.000000	 96.582077 
832.000000	 96.576139 
831.000000	 96.580600 
830.000000	 96.600117 
829.000000	 96.629115 
828.000000	 96.661079 
827.000000	 96.699981 
826.000000	 96.752853 
825.000000	 96.817526 
824.000000	 96.884803 
823.000000	 96.945262 
822.000000	 96.989182 
821.000000	 97.009997 
820.000000	 97.012738 
819.000000	 97.009109 
818.000000	 96.999459 
817.000000	 96.967780 
816.000000	 96.898231 
815.000000	 96.788667 
814.000000	 96.644050 
813.000000	 96.463835 
812.000000	 96.239849 
811.000000	 95.959106 
810.000000	 95.604724 
809.000000	 95.163117 
808.000000	 94.637206 
807.000000	 94.047124 
806.000000	 93.414255 
805.000000	 92.753243 
804.000000	 92.084064 
803.000000	 91.438595 
802.000000	 90.845656 
801.000000	 90.321124 
800.000000	 89.880951 
799.000000	 89.548865 
798.000000	 89.338731 
797.000000	 89.240453 
796.000000	 89.231740 
795.000000	 89.291692 
794.000000	 89.397421 
793.000000	 89.523278 
792.000000	 89.652031 
791.000000	 89.775241 
790.000000	 89.878350 
789.000000	 89.938794 
788.000000	 89.942869 
787.000000	 89.891162 
786.000000	 89.784342 
785.000000	 89.618545 
784.000000	 89.399749 
783.000000	 89.148220 
782.000000	 88.883961 
781.000000	 88.623349 
780.000000	 88.394089 
779.000000	 88.233278 
778.000000	 88.160840 
777.000000	 88.170926 
776.000000	 88.255445 
775.000000	 88.414978 
774.000000	 88.636972 
773.000000	 88.885166 
772.000000	 89.125948 
771.000000	 89.351088 
770.000000	 89.564058 
769.000000	 89.759828 
768.000000	 89.930137 
767.000000	 90.074915 
766.000000	 90.196548 
765.000000	 90.294586 
764.000000	 90.376474 
763.000000	 90.461567 
762.000000	 90.563159 
761.000000	 90.676086 
760.000000	 90.790389 
759.000000	 90.905598 
758.000000	 91.023665 
757.000000	 91.142039 
756.000000	 91.264376 
755.000000	 91.404022 
754.000000	 91.562789 
753.000000	 91.716975 
752.000000	 91.839095 
751.000000	 91.927187 
750.000000	 92.002198 
749.000000	 92.084002 
748.000000	 92.180581 
747.000000	 92.292710 
746.000000	 92.416223 
745.000000	 92.543095 
744.000000	 92.670436 
743.000000	 92.806307 
742.000000	 92.959388 
741.000000	 93.126501 
740.000000	 93.296794 
739.000000	 93.463658 
738.000000	 93.625804 
737.000000	 93.780422 
736.000000	 93.922021 
735.000000	 94.047214 
734.000000	 94.156874 
733.000000	 94.254841 
732.000000	 94.345412 
731.000000	 94.428706 
730.000000	 94.497808 
729.000000	 94.544935 
728.000000	 94.574851 
727.000000	 94.606215 
726.000000	 94.655264 
725.000000	 94.725516 
724.000000	 94.812655 
723.000000	 94.908794 
722.000000	 95.001552 
721.000000	 95.081911 
720.000000	 95.157297 
719.000000	 95.243401 
718.000000	 95.339956 
717.000000	 95.429675 
716.000000	 95.501508 
715.000000	 95.561615 
714.000000	 95.619655 
713.000000	 95.677402 
712.000000	 95.737705 
711.000000	 95.808963 
710.000000	 95.889767 
709.000000	 95.964818 
708.000000	 96.022336 
707.000000	 96.066284 
706.000000	 96.100361 
705.000000	 96.113116 
704.000000	 96.090949 
703.000000	 96.029549 
702.000000	 95.922710 
701.000000	 95.752047 
700.000000	 95.501885 
699.000000	 95.183497 
698.000000	 94.832973 
697.000000	 94.495169 
696.000000	 94.218593 
695.000000	 94.047023 
694.000000	 94.002468 
693.000000	 94.074539 
692.000000	 94.231310 
691.000000	 94.440126 
690.000000	 94.670493 
689.000000	 94.891660 
688.000000	 95.083221 
687.000000	 95.244155 
686.000000	 95.385535 
685.000000	 95.513721 
684.000000	 95.625637 
683.000000	 95.718950 
682.000000	 95.797606 
681.000000	 95.871556 
680.000000	 95.952462 
679.000000	 96.048062 
678.000000	 96.151535 
677.000000	 96.244305 
676.000000	 96.325278 
675.000000	 96.407856 
674.000000	 96.489424 
673.000000	 96.553739 
672.000000	 96.604737 
671.000000	 96.691240 
670.000000	 96.872534 
669.000000	 97.166208 
668.000000	 97.409352 
667.000000	 97.394772 
666.000000	 97.228648 
665.000000	 97.094564 
664.000000	 97.021066 
663.000000	 97.003054 
662.000000	 97.039203 
661.000000	 97.109119 
660.000000	 97.182257 
659.000000	 97.238986 
658.000000	 97.270401 
657.000000	 97.268157 
656.000000	 97.242040 
655.000000	 97.212310 
654.000000	 97.180561 
653.000000	 97.135910 
652.000000	 97.094122 
651.000000	 97.094186 
650.000000	 97.142148 

