4000.000000	97.127200 
3999.000000	97.126657 
3998.000000	97.125348 
3997.000000	97.123383 
3996.000000	97.121290 
3995.000000	97.119767 
3994.000000	97.119232 
3993.000000	97.119558 
3992.000000	97.120093 
3991.000000	97.120185 
3990.000000	97.119763 
3989.000000	97.119181 
3988.000000	97.118711 
3987.000000	97.118385 
3986.000000	97.118177 
3985.000000	97.118068 
3984.000000	97.117915 
3983.000000	97.117470 
3982.000000	97.116715 
3981.000000	97.115989 
3980.000000	97.115592 
3979.000000	97.115388 
3978.000000	97.115019 
3977.000000	97.114404 
3976.000000	97.113815 
3975.000000	97.113422 
3974.000000	97.113039 
3973.000000	97.112393 
3972.000000	97.111400 
3971.000000	97.110180 
3970.000000	97.108971 
3969.000000	97.108049 
3968.000000	97.107595 
3967.000000	97.107526 
3966.000000	97.107566 
3965.000000	97.107427 
3964.000000	97.106940 
3963.000000	97.106106 
3962.000000	97.105096 
3961.000000	97.104153 
3960.000000	97.103388 
3959.000000	97.102755 
3958.000000	97.102186 
3957.000000	97.101698 
3956.000000	97.101298 
3955.000000	97.100899 
3954.000000	97.100409 
3953.000000	97.099815 
3952.000000	97.099171 
3951.000000	97.098518 
3950.000000	97.097866 
3949.000000	97.097211 
3948.000000	97.096579 
3947.000000	97.096031 
3946.000000	97.095609 
3945.000000	97.095269 
3944.000000	97.094861 
3943.000000	97.094297 
3942.000000	97.093667 
3941.000000	97.093141 
3940.000000	97.092763 
3939.000000	97.092432 
3938.000000	97.092079 
3937.000000	97.091815 
3936.000000	97.091752 
3935.000000	97.091730 
3934.000000	97.091423 
3933.000000	97.090709 
3932.000000	97.089820 
3931.000000	97.089012 
3930.000000	97.088342 
3929.000000	97.087929 
3928.000000	97.087995 
3927.000000	97.088491 
3926.000000	97.088799 
3925.000000	97.088377 
3924.000000	97.087457 
3923.000000	97.086620 
3922.000000	97.085939 
3921.000000	97.085209 
3920.000000	97.084499 
3919.000000	97.084085 
3918.000000	97.083902 
3917.000000	97.083632 
3916.000000	97.083245 
3915.000000	97.082979 
3914.000000	97.082854 
3913.000000	97.082673 
3912.000000	97.082342 
3911.000000	97.082008 
3910.000000	97.081732 
3909.000000	97.081452 
3908.000000	97.081076 
3907.000000	97.080553 
3906.000000	97.079856 
3905.000000	97.079058 
3904.000000	97.078299 
3903.000000	97.077633 
3902.000000	97.077013 
3901.000000	97.076405 
3900.000000	97.075820 
3899.000000	97.075257 
3898.000000	97.074711 
3897.000000	97.074173 
3896.000000	97.073626 
3895.000000	97.073056 
3894.000000	97.072464 
3893.000000	97.071856 
3892.000000	97.071230 
3891.000000	97.070584 
3890.000000	97.069929 
3889.000000	97.069282 
3888.000000	97.068651 
3887.000000	97.068029 
3886.000000	97.067410 
3885.000000	97.066797 
3884.000000	97.066191 
3883.000000	97.065586 
3882.000000	97.064974 
3881.000000	97.064366 
3880.000000	97.063789 
3879.000000	97.063263 
3878.000000	97.062781 
3877.000000	97.062321 
3876.000000	97.061860 
3875.000000	97.061388 
3874.000000	97.060908 
3873.000000	97.060428 
3872.000000	97.059943 
3871.000000	97.059447 
3870.000000	97.058948 
3869.000000	97.058476 
3868.000000	97.058050 
3867.000000	97.057659 
3866.000000	97.057282 
3865.000000	97.056922 
3864.000000	97.056593 
3863.000000	97.056297 
3862.000000	97.056013 
3861.000000	97.055731 
3860.000000	97.055454 
3859.000000	97.055181 
3858.000000	97.054904 
3857.000000	97.054620 
3856.000000	97.054335 
3855.000000	97.054053 
3854.000000	97.053778 
3853.000000	97.053524 
3852.000000	97.053299 
3851.000000	97.053103 
3850.000000	97.052934 
3849.000000	97.052797 
3848.000000	97.052691 
3847.000000	97.052605 
3846.000000	97.052518 
3845.000000	97.052411 
3844.000000	97.052276 
3843.000000	97.052118 
3842.000000	97.051956 
3841.000000	97.051810 
3840.000000	97.051690 
3839.000000	97.051590 
3838.000000	97.051490 
3837.000000	97.051375 
3836.000000	97.051241 
3835.000000	97.051101 
3834.000000	97.050970 
3833.000000	97.050862 
3832.000000	97.050782 
3831.000000	97.050730 
3830.000000	97.050701 
3829.000000	97.050690 
3828.000000	97.050692 
3827.000000	97.050692 
3826.000000	97.050676 
3825.000000	97.050644 
3824.000000	97.050603 
3823.000000	97.050558 
3822.000000	97.050502 
3821.000000	97.050441 
3820.000000	97.050399 
3819.000000	97.050392 
3818.000000	97.050409 
3817.000000	97.050428 
3816.000000	97.050441 
3815.000000	97.050461 
3814.000000	97.050488 
3813.000000	97.050507 
3812.000000	97.050509 
3811.000000	97.050507 
3810.000000	97.050515 
3809.000000	97.050530 
3808.000000	97.050528 
3807.000000	97.050490 
3806.000000	97.050417 
3805.000000	97.050332 
3804.000000	97.050253 
3803.000000	97.050191 
3802.000000	97.050154 
3801.000000	97.050156 
3800.000000	97.050194 
3799.000000	97.050241 
3798.000000	97.050267 
3797.000000	97.050267 
3796.000000	97.050249 
3795.000000	97.050216 
3794.000000	97.050149 
3793.000000	97.050032 
3792.000000	97.049862 
3791.000000	97.049639 
3790.000000	97.049353 
3789.000000	97.049001 
3788.000000	97.048585 
3787.000000	97.048114 
3786.000000	97.047591 
3785.000000	97.047029 
3784.000000	97.046442 
3783.000000	97.045836 
3782.000000	97.045201 
3781.000000	97.044530 
3780.000000	97.043832 
3779.000000	97.043120 
3778.000000	97.042383 
3777.000000	97.041601 
3776.000000	97.040770 
3775.000000	97.039891 
3774.000000	97.038978 
3773.000000	97.038064 
3772.000000	97.037164 
3771.000000	97.036245 
3770.000000	97.035283 
3769.000000	97.034321 
3768.000000	97.033377 
3767.000000	97.032377 
3766.000000	97.031269 
3765.000000	97.030123 
3764.000000	97.029083 
3763.000000	97.028196 
3762.000000	97.027344 
3761.000000	97.026396 
3760.000000	97.025375 
3759.000000	97.024397 
3758.000000	97.023381 
3757.000000	97.022175 
3756.000000	97.020824 
3755.000000	97.019493 
3754.000000	97.018227 
3753.000000	97.016997 
3752.000000	97.015985 
3751.000000	97.015323 
3750.000000	97.014727 
3749.000000	97.013938 
3748.000000	97.013198 
3747.000000	97.012726 
3746.000000	97.012346 
3745.000000	97.011811 
3744.000000	97.011294 
3743.000000	97.010970 
3742.000000	97.010685 
3741.000000	97.010245 
3740.000000	97.009677 
3739.000000	97.009234 
3738.000000	97.009040 
3737.000000	97.008863 
3736.000000	97.008428 
3735.000000	97.007940 
3734.000000	97.007770 
3733.000000	97.007806 
3732.000000	97.007665 
3731.000000	97.007348 
3730.000000	97.007150 
3729.000000	97.007141 
3728.000000	97.006970 
3727.000000	97.006375 
3726.000000	97.005706 
3725.000000	97.005340 
3724.000000	97.004995 
3723.000000	97.004353 
3722.000000	97.003787 
3721.000000	97.003746 
3720.000000	97.003872 
3719.000000	97.003533 
3718.000000	97.002380 
3717.000000	97.000752 
3716.000000	96.999399 
3715.000000	96.998348 
3714.000000	96.996865 
3713.000000	96.994694 
3712.000000	96.992711 
3711.000000	96.991662 
3710.000000	96.990896 
3709.000000	96.989560 
3708.000000	96.987510 
3707.000000	96.985056 
3706.000000	96.982785 
3705.000000	96.981192 
3704.000000	96.980151 
3703.000000	96.978819 
3702.000000	96.976164 
3701.000000	96.971939 
3700.000000	96.966962 
3699.000000	96.962473 
3698.000000	96.958753 
3697.000000	96.955258 
3696.000000	96.951977 
3695.000000	96.948947 
3694.000000	96.945422 
3693.000000	96.941111 
3692.000000	96.937096 
3691.000000	96.934543 
3690.000000	96.932827 
3689.000000	96.930425 
3688.000000	96.926858 
3687.000000	96.922711 
3686.000000	96.918378 
3685.000000	96.913528 
3684.000000	96.908195 
3683.000000	96.903409 
3682.000000	96.899803 
3681.000000	96.896258 
3680.000000	96.891467 
3679.000000	96.885888 
3678.000000	96.880982 
3677.000000	96.876319 
3676.000000	96.870522 
3675.000000	96.864534 
3674.000000	96.859776 
3673.000000	96.855954 
3672.000000	96.851694 
3671.000000	96.846177 
3670.000000	96.840860 
3669.000000	96.837540 
3668.000000	96.835110 
3667.000000	96.831397 
3666.000000	96.826451 
3665.000000	96.821838 
3664.000000	96.818417 
3663.000000	96.815402 
3662.000000	96.811187 
3661.000000	96.805094 
3660.000000	96.798346 
3659.000000	96.792575 
3658.000000	96.788009 
3657.000000	96.782715 
3656.000000	96.775714 
3655.000000	96.768428 
3654.000000	96.762235 
3653.000000	96.756669 
3652.000000	96.749572 
3651.000000	96.740160 
3650.000000	96.731527 
3649.000000	96.726080 
3648.000000	96.721665 
3647.000000	96.716911 
3646.000000	96.713855 
3645.000000	96.713736 
3644.000000	96.714806 
3643.000000	96.714816 
3642.000000	96.713311 
3641.000000	96.711556 
3640.000000	96.709945 
3639.000000	96.707188 
3638.000000	96.703070 
3637.000000	96.698855 
3636.000000	96.694455 
3635.000000	96.687030 
3634.000000	96.675773 
3633.000000	96.665022 
3632.000000	96.659313 
3631.000000	96.656365 
3630.000000	96.649021 
3629.000000	96.638816 
3628.000000	96.634573 
3627.000000	96.636029 
3626.000000	96.636695 
3625.000000	96.635100 
3624.000000	96.635090 
3623.000000	96.640083 
3622.000000	96.647880 
3621.000000	96.651388 
3620.000000	96.646087 
3619.000000	96.635010 
3618.000000	96.624436 
3617.000000	96.618142 
3616.000000	96.617249 
3615.000000	96.620341 
3614.000000	96.624875 
3613.000000	96.629844 
3612.000000	96.635300 
3611.000000	96.639760 
3610.000000	96.640873 
3609.000000	96.638642 
3608.000000	96.636233 
3607.000000	96.636380 
3606.000000	96.638515 
3605.000000	96.641406 
3604.000000	96.645480 
3603.000000	96.651333 
3602.000000	96.657816 
3601.000000	96.662281 
3600.000000	96.663759 
3599.000000	96.663154 
3598.000000	96.661696 
3597.000000	96.660465 
3596.000000	96.660849 
3595.000000	96.662664 
3594.000000	96.664530 
3593.000000	96.665285 
3592.000000	96.664856 
3591.000000	96.663887 
3590.000000	96.662090 
3589.000000	96.658319 
3588.000000	96.653476 
3587.000000	96.651042 
3586.000000	96.652619 
3585.000000	96.656636 
3584.000000	96.661430 
3583.000000	96.666490 
3582.000000	96.671637 
3581.000000	96.675830 
3580.000000	96.677900 
3579.000000	96.677659 
3578.000000	96.676061 
3577.000000	96.674423 
3576.000000	96.673370 
3575.000000	96.672512 
3574.000000	96.671072 
3573.000000	96.669093 
3572.000000	96.667304 
3571.000000	96.666529 
3570.000000	96.666545 
3569.000000	96.665773 
3568.000000	96.663561 
3567.000000	96.662074 
3566.000000	96.663138 
3565.000000	96.665409 
3564.000000	96.666544 
3563.000000	96.665855 
3562.000000	96.664299 
3561.000000	96.663189 
3560.000000	96.662990 
3559.000000	96.663328 
3558.000000	96.663698 
3557.000000	96.664161 
3556.000000	96.665153 
3555.000000	96.666811 
3554.000000	96.668541 
3553.000000	96.669582 
3552.000000	96.669831 
3551.000000	96.669644 
3550.000000	96.669108 
3549.000000	96.668001 
3548.000000	96.666287 
3547.000000	96.664238 
3546.000000	96.662108 
3545.000000	96.660140 
3544.000000	96.658914 
3543.000000	96.659008 
3542.000000	96.660236 
3541.000000	96.661767 
3540.000000	96.662854 
3539.000000	96.663241 
3538.000000	96.662982 
3537.000000	96.662262 
3536.000000	96.661443 
3535.000000	96.660834 
3534.000000	96.660506 
3533.000000	96.660365 
3532.000000	96.660408 
3531.000000	96.660680 
3530.000000	96.661030 
3529.000000	96.661119 
3528.000000	96.660774 
3527.000000	96.660154 
3526.000000	96.659528 
3525.000000	96.659037 
3524.000000	96.658721 
3523.000000	96.658621 
3522.000000	96.658709 
3521.000000	96.658867 
3520.000000	96.658973 
3519.000000	96.658975 
3518.000000	96.658874 
3517.000000	96.658676 
3516.000000	96.658408 
3515.000000	96.658126 
3514.000000	96.657885 
3513.000000	96.657691 
3512.000000	96.657507 
3511.000000	96.657283 
3510.000000	96.657008 
3509.000000	96.656704 
3508.000000	96.656404 
3507.000000	96.656124 
3506.000000	96.655862 
3505.000000	96.655608 
3504.000000	96.655349 
3503.000000	96.655074 
3502.000000	96.654781 
3501.000000	96.654478 
3500.000000	96.654182 
3499.000000	96.653910 
3498.000000	96.653658 
3497.000000	96.653387 
3496.000000	96.653047 
3495.000000	96.652628 
3494.000000	96.652190 
3493.000000	96.651805 
3492.000000	96.651483 
3491.000000	96.651144 
3490.000000	96.650712 
3489.000000	96.650227 
3488.000000	96.649811 
3487.000000	96.649510 
3486.000000	96.649253 
3485.000000	96.648993 
3484.000000	96.648782 
3483.000000	96.648651 
3482.000000	96.648520 
3481.000000	96.648338 
3480.000000	96.648167 
3479.000000	96.647982 
3478.000000	96.647483 
3477.000000	96.646303 
3476.000000	96.644402 
3475.000000	96.642207 
3474.000000	96.640334 
3473.000000	96.639249 
3472.000000	96.639085 
3471.000000	96.639568 
3470.000000	96.640137 
3469.000000	96.640417 
3468.000000	96.640526 
3467.000000	96.640858 
3466.000000	96.641613 
3465.000000	96.642518 
3464.000000	96.642956 
3463.000000	96.642434 
3462.000000	96.640961 
3461.000000	96.638984 
3460.000000	96.637032 
3459.000000	96.635336 
3458.000000	96.633884 
3457.000000	96.632687 
3456.000000	96.631841 
3455.000000	96.631334 
3454.000000	96.631026 
3453.000000	96.630786 
3452.000000	96.630731 
3451.000000	96.631078 
3450.000000	96.631652 
3449.000000	96.631772 
3448.000000	96.630819 
3447.000000	96.628879 
3446.000000	96.626626 
3445.000000	96.624729 
3444.000000	96.623459 
3443.000000	96.622739 
3442.000000	96.622269 
3441.000000	96.621659 
3440.000000	96.620733 
3439.000000	96.619706 
3438.000000	96.618945 
3437.000000	96.618526 
3436.000000	96.618219 
3435.000000	96.617853 
3434.000000	96.617481 
3433.000000	96.617124 
3432.000000	96.616666 
3431.000000	96.616033 
3430.000000	96.615302 
3429.000000	96.614600 
3428.000000	96.613959 
3427.000000	96.613358 
3426.000000	96.612829 
3425.000000	96.612426 
3424.000000	96.612116 
3423.000000	96.611764 
3422.000000	96.611266 
3421.000000	96.610658 
3420.000000	96.610030 
3419.000000	96.609446 
3418.000000	96.608910 
3417.000000	96.608400 
3416.000000	96.607901 
3415.000000	96.607407 
3414.000000	96.606912 
3413.000000	96.606416 
3412.000000	96.605925 
3411.000000	96.605451 
3410.000000	96.604996 
3409.000000	96.604559 
3408.000000	96.604139 
3407.000000	96.603732 
3406.000000	96.603337 
3405.000000	96.602954 
3404.000000	96.602583 
3403.000000	96.602222 
3402.000000	96.601869 
3401.000000	96.601520 
3400.000000	96.601172 
3399.000000	96.600823 
3398.000000	96.600474 
3397.000000	96.600125 
3396.000000	96.599784 
3395.000000	96.599459 
3394.000000	96.599164 
3393.000000	96.598904 
3392.000000	96.598672 
3391.000000	96.598456 
3390.000000	96.598247 
3389.000000	96.598058 
3388.000000	96.597921 
3387.000000	96.597859 
3386.000000	96.597865 
3385.000000	96.597884 
3384.000000	96.597853 
3383.000000	96.597736 
3382.000000	96.597584 
3381.000000	96.597504 
3380.000000	96.597529 
3379.000000	96.597569 
3378.000000	96.597520 
3377.000000	96.597456 
3376.000000	96.597590 
3375.000000	96.598008 
3374.000000	96.598533 
3373.000000	96.598919 
3372.000000	96.599126 
3371.000000	96.599314 
3370.000000	96.599615 
3369.000000	96.599995 
3368.000000	96.600343 
3367.000000	96.600584 
3366.000000	96.600677 
3365.000000	96.600639 
3364.000000	96.600621 
3363.000000	96.600887 
3362.000000	96.601584 
3361.000000	96.602568 
3360.000000	96.603546 
3359.000000	96.604355 
3358.000000	96.605020 
3357.000000	96.605594 
3356.000000	96.606072 
3355.000000	96.606505 
3354.000000	96.607093 
3353.000000	96.608083 
3352.000000	96.609542 
3351.000000	96.611218 
3350.000000	96.612678 
3349.000000	96.613601 
3348.000000	96.613982 
3347.000000	96.614183 
3346.000000	96.614653 
3345.000000	96.615543 
3344.000000	96.616606 
3343.000000	96.617454 
3342.000000	96.617953 
3341.000000	96.618300 
3340.000000	96.618764 
3339.000000	96.619385 
3338.000000	96.620009 
3337.000000	96.620526 
3336.000000	96.620975 
3335.000000	96.621479 
3334.000000	96.622105 
3333.000000	96.622819 
3332.000000	96.623537 
3331.000000	96.624202 
3330.000000	96.624819 
3329.000000	96.625424 
3328.000000	96.626036 
3327.000000	96.626649 
3326.000000	96.627249 
3325.000000	96.627825 
3324.000000	96.628369 
3323.000000	96.628880 
3322.000000	96.629371 
3321.000000	96.629859 
3320.000000	96.630351 
3319.000000	96.630844 
3318.000000	96.631335 
3317.000000	96.631820 
3316.000000	96.632293 
3315.000000	96.632748 
3314.000000	96.633181 
3313.000000	96.633593 
3312.000000	96.633990 
3311.000000	96.634378 
3310.000000	96.634764 
3309.000000	96.635152 
3308.000000	96.635540 
3307.000000	96.635920 
3306.000000	96.636289 
3305.000000	96.636646 
3304.000000	96.637001 
3303.000000	96.637365 
3302.000000	96.637750 
3301.000000	96.638164 
3300.000000	96.638604 
3299.000000	96.639063 
3298.000000	96.639534 
3297.000000	96.640015 
3296.000000	96.640506 
3295.000000	96.641013 
3294.000000	96.641535 
3293.000000	96.642069 
3292.000000	96.642612 
3291.000000	96.643163 
3290.000000	96.643722 
3289.000000	96.644288 
3288.000000	96.644860 
3287.000000	96.645435 
3286.000000	96.646013 
3285.000000	96.646595 
3284.000000	96.647185 
3283.000000	96.647795 
3282.000000	96.648441 
3281.000000	96.649128 
3280.000000	96.649838 
3279.000000	96.650541 
3278.000000	96.651218 
3277.000000	96.651893 
3276.000000	96.652606 
3275.000000	96.653356 
3274.000000	96.654111 
3273.000000	96.654876 
3272.000000	96.655709 
3271.000000	96.656637 
3270.000000	96.657619 
3269.000000	96.658572 
3268.000000	96.659436 
3267.000000	96.660202 
3266.000000	96.660932 
3265.000000	96.661743 
3264.000000	96.662733 
3263.000000	96.663909 
3262.000000	96.665146 
3261.000000	96.666291 
3260.000000	96.667290 
3259.000000	96.668145 
3258.000000	96.668849 
3257.000000	96.669427 
3256.000000	96.670020 
3255.000000	96.670794 
3254.000000	96.671774 
3253.000000	96.672857 
3252.000000	96.673953 
3251.000000	96.675055 
3250.000000	96.676159 
3249.000000	96.677192 
3248.000000	96.678088 
3247.000000	96.678867 
3246.000000	96.679631 
3245.000000	96.680487 
3244.000000	96.681455 
3243.000000	96.682447 
3242.000000	96.683342 
3241.000000	96.684126 
3240.000000	96.684916 
3239.000000	96.685842 
3238.000000	96.686948 
3237.000000	96.688232 
3236.000000	96.689664 
3235.000000	96.691095 
3234.000000	96.692233 
3233.000000	96.692863 
3232.000000	96.693063 
3231.000000	96.693149 
3230.000000	96.693395 
3229.000000	96.693892 
3228.000000	96.694652 
3227.000000	96.695701 
3226.000000	96.697024 
3225.000000	96.698478 
3224.000000	96.699859 
3223.000000	96.701050 
3222.000000	96.702105 
3221.000000	96.703224 
3220.000000	96.704536 
3219.000000	96.705908 
3218.000000	96.707030 
3217.000000	96.707750 
3216.000000	96.708244 
3215.000000	96.708884 
3214.000000	96.709934 
3213.000000	96.711368 
3212.000000	96.712893 
3211.000000	96.714108 
3210.000000	96.714784 
3209.000000	96.715067 
3208.000000	96.715435 
3207.000000	96.716241 
3206.000000	96.717330 
3205.000000	96.718244 
3204.000000	96.718837 
3203.000000	96.719498 
3202.000000	96.720640 
3201.000000	96.722190 
3200.000000	96.723734 
3199.000000	96.725090 
3198.000000	96.726514 
3197.000000	96.728267 
3196.000000	96.730170 
3195.000000	96.731705 
3194.000000	96.732543 
3193.000000	96.732871 
3192.000000	96.733272 
3191.000000	96.734218 
3190.000000	96.735724 
3189.000000	96.737483 
3188.000000	96.739272 
3187.000000	96.741109 
3186.000000	96.743019 
3185.000000	96.744772 
3184.000000	96.746023 
3183.000000	96.746763 
3182.000000	96.747432 
3181.000000	96.748503 
3180.000000	96.750007 
3179.000000	96.751591 
3178.000000	96.752943 
3177.000000	96.754038 
3176.000000	96.755034 
3175.000000	96.756147 
3174.000000	96.757615 
3173.000000	96.759539 
3172.000000	96.761672 
3171.000000	96.763530 
3170.000000	96.764868 
3169.000000	96.765872 
3168.000000	96.766818 
3167.000000	96.767725 
3166.000000	96.768452 
3165.000000	96.768912 
3164.000000	96.769127 
3163.000000	96.769254 
3162.000000	96.769649 
3161.000000	96.770670 
3160.000000	96.772308 
3159.000000	96.774168 
3158.000000	96.775902 
3157.000000	96.777544 
3156.000000	96.779247 
3155.000000	96.780921 
3154.000000	96.782339 
3153.000000	96.783500 
3152.000000	96.784633 
3151.000000	96.785829 
3150.000000	96.786893 
3149.000000	96.787615 
3148.000000	96.788040 
3147.000000	96.788510 
3146.000000	96.789425 
3145.000000	96.790945 
3144.000000	96.792891 
3143.000000	96.794799 
3142.000000	96.796294 
3141.000000	96.797361 
3140.000000	96.798253 
3139.000000	96.799240 
3138.000000	96.800403 
3137.000000	96.801650 
3136.000000	96.802829 
3135.000000	96.803817 
3134.000000	96.804641 
3133.000000	96.805513 
3132.000000	96.806635 
3131.000000	96.807970 
3130.000000	96.809308 
3129.000000	96.810561 
3128.000000	96.811864 
3127.000000	96.813340 
3126.000000	96.814912 
3125.000000	96.816386 
3124.000000	96.817690 
3123.000000	96.818928 
3122.000000	96.820212 
3121.000000	96.821520 
3120.000000	96.822738 
3119.000000	96.823818 
3118.000000	96.824864 
3117.000000	96.826036 
3116.000000	96.827359 
3115.000000	96.828663 
3114.000000	96.829765 
3113.000000	96.830685 
3112.000000	96.831654 
3111.000000	96.832913 
3110.000000	96.834489 
3109.000000	96.836129 
3108.000000	96.837489 
3107.000000	96.838464 
3106.000000	96.839284 
3105.000000	96.840203 
3104.000000	96.841137 
3103.000000	96.841816 
3102.000000	96.842216 
3101.000000	96.842603 
3100.000000	96.843117 
3099.000000	96.843645 
3098.000000	96.844167 
3097.000000	96.844991 
3096.000000	96.846363 
3095.000000	96.848087 
3094.000000	96.849716 
3093.000000	96.850983 
3092.000000	96.851925 
3091.000000	96.852658 
3090.000000	96.853260 
3089.000000	96.853825 
3088.000000	96.854469 
3087.000000	96.855261 
3086.000000	96.856193 
3085.000000	96.857193 
3084.000000	96.858130 
3083.000000	96.858891 
3082.000000	96.859471 
3081.000000	96.859996 
3080.000000	96.860655 
3079.000000	96.861536 
3078.000000	96.862511 
3077.000000	96.863347 
3076.000000	96.863995 
3075.000000	96.864573 
3074.000000	96.865114 
3073.000000	96.865553 
3072.000000	96.865938 
3071.000000	96.866407 
3070.000000	96.866998 
3069.000000	96.867703 
3068.000000	96.868651 
3067.000000	96.869914 
3066.000000	96.871153 
3065.000000	96.871791 
3064.000000	96.871550 
3063.000000	96.870569 
3062.000000	96.869161 
3061.000000	96.867774 
3060.000000	96.867008 
3059.000000	96.867265 
3058.000000	96.868445 
3057.000000	96.870202 
3056.000000	96.872230 
3055.000000	96.873888 
3054.000000	96.874024 
3053.000000	96.872047 
3052.000000	96.869129 
3051.000000	96.867484 
3050.000000	96.868067 
3049.000000	96.869714 
3048.000000	96.870629 
3047.000000	96.870138 
3046.000000	96.868665 
3045.000000	96.866846 
3044.000000	96.865348 
3043.000000	96.865101 
3042.000000	96.866871 
3041.000000	96.870294 
3040.000000	96.873539 
3039.000000	96.874451 
3038.000000	96.872255 
3037.000000	96.868173 
3036.000000	96.864299 
3035.000000	96.861518 
3034.000000	96.859028 
3033.000000	96.855989 
3032.000000	96.852840 
3031.000000	96.850548 
3030.000000	96.849204 
3029.000000	96.848078 
3028.000000	96.846623 
3027.000000	96.844649 
3026.000000	96.841812 
3025.000000	96.837812 
3024.000000	96.833039 
3023.000000	96.828252 
3022.000000	96.823683 
3021.000000	96.819399 
3020.000000	96.816413 
3019.000000	96.816141 
3018.000000	96.818292 
3017.000000	96.820231 
3016.000000	96.819139 
3015.000000	96.814366 
3014.000000	96.807567 
3013.000000	96.801250 
3012.000000	96.797030 
3011.000000	96.794385 
3010.000000	96.790879 
3009.000000	96.784420 
3008.000000	96.775585 
3007.000000	96.767153 
3006.000000	96.761157 
3005.000000	96.757177 
3004.000000	96.753662 
3003.000000	96.749950 
3002.000000	96.746561 
3001.000000	96.744304 
3000.000000	96.743553 
2999.000000	96.743656 
2998.000000	96.742691 
2997.000000	96.738667 
2996.000000	96.731547 
2995.000000	96.723589 
2994.000000	96.717128 
2993.000000	96.712457 
2992.000000	96.708182 
2991.000000	96.702993 
2990.000000	96.696648 
2989.000000	96.689876 
2988.000000	96.684083 
2987.000000	96.680886 
2986.000000	96.681285 
2985.000000	96.685090 
2984.000000	96.691086 
2983.000000	96.697605 
2982.000000	96.703007 
2981.000000	96.706131 
2980.000000	96.706651 
2979.000000	96.704846 
2978.000000	96.701090 
2977.000000	96.696003 
2976.000000	96.691048 
2975.000000	96.688151 
2974.000000	96.688310 
2973.000000	96.690996 
2972.000000	96.695094 
2971.000000	96.699903 
2970.000000	96.704964 
2969.000000	96.709619 
2968.000000	96.713438 
2967.000000	96.716700 
2966.000000	96.719939 
2965.000000	96.723272 
2964.000000	96.726524 
2963.000000	96.729601 
2962.000000	96.732275 
2961.000000	96.734076 
2960.000000	96.735123 
2959.000000	96.736825 
2958.000000	96.740964 
2957.000000	96.747869 
2956.000000	96.755794 
2955.000000	96.762149 
2954.000000	96.765270 
2953.000000	96.765415 
2952.000000	96.764609 
2951.000000	96.765340 
2950.000000	96.768587 
2949.000000	96.772937 
2948.000000	96.776006 
2947.000000	96.776680 
2946.000000	96.775631 
2945.000000	96.773993 
2944.000000	96.772421 
2943.000000	96.771495 
2942.000000	96.771933 
2941.000000	96.773818 
2940.000000	96.776268 
2939.000000	96.778510 
2938.000000	96.780635 
2937.000000	96.782590 
2936.000000	96.783108 
2935.000000	96.780871 
2934.000000	96.776594 
2933.000000	96.772796 
2932.000000	96.771176 
2931.000000	96.771195 
2930.000000	96.771537 
2929.000000	96.771928 
2928.000000	96.772764 
2927.000000	96.773664 
2926.000000	96.773593 
2925.000000	96.772471 
2924.000000	96.771767 
2923.000000	96.773059 
2922.000000	96.776322 
2921.000000	96.779900 
2920.000000	96.782138 
2919.000000	96.782940 
2918.000000	96.783576 
2917.000000	96.784814 
2916.000000	96.785537 
2915.000000	96.783891 
2914.000000	96.779900 
2913.000000	96.776078 
2912.000000	96.774778 
2911.000000	96.775539 
2910.000000	96.775980 
2909.000000	96.774967 
2908.000000	96.773751 
2907.000000	96.773777 
2906.000000	96.774546 
2905.000000	96.774341 
2904.000000	96.772193 
2903.000000	96.769042 
2902.000000	96.767014 
2901.000000	96.767874 
2900.000000	96.772224 
2899.000000	96.778944 
2898.000000	96.785939 
2897.000000	96.791583 
2896.000000	96.795332 
2895.000000	96.797076 
2894.000000	96.796974 
2893.000000	96.796251 
2892.000000	96.797007 
2891.000000	96.800178 
2890.000000	96.804344 
2889.000000	96.807539 
2888.000000	96.809817 
2887.000000	96.812689 
2886.000000	96.816309 
2885.000000	96.818910 
2884.000000	96.819489 
2883.000000	96.819549 
2882.000000	96.821179 
2881.000000	96.824442 
2880.000000	96.827964 
2879.000000	96.831442 
2878.000000	96.836035 
2877.000000	96.842200 
2876.000000	96.848532 
2875.000000	96.853305 
2874.000000	96.856252 
2873.000000	96.858210 
2872.000000	96.859710 
2871.000000	96.860691 
2870.000000	96.861250 
2869.000000	96.861901 
2868.000000	96.863058 
2867.000000	96.864738 
2866.000000	96.866840 
2865.000000	96.869332 
2864.000000	96.872196 
2863.000000	96.875572 
2862.000000	96.879876 
2861.000000	96.885222 
2860.000000	96.890731 
2859.000000	96.895052 
2858.000000	96.897889 
2857.000000	96.900608 
2856.000000	96.904930 
2855.000000	96.911137 
2854.000000	96.917760 
2853.000000	96.922945 
2852.000000	96.925918 
2851.000000	96.927112 
2850.000000	96.927502 
2849.000000	96.928017 
2848.000000	96.929275 
2847.000000	96.931506 
2846.000000	96.934561 
2845.000000	96.938032 
2844.000000	96.941488 
2843.000000	96.944698 
2842.000000	96.947680 
2841.000000	96.950477 
2840.000000	96.952928 
2839.000000	96.954826 
2838.000000	96.956320 
2837.000000	96.957917 
2836.000000	96.959953 
2835.000000	96.962263 
2834.000000	96.964570 
2833.000000	96.967013 
2832.000000	96.969895 
2831.000000	96.972914 
2830.000000	96.975075 
2829.000000	96.975654 
2828.000000	96.975045 
2827.000000	96.974569 
2826.000000	96.975365 
2825.000000	96.977546 
2824.000000	96.980361 
2823.000000	96.982866 
2822.000000	96.984527 
2821.000000	96.985361 
2820.000000	96.985756 
2819.000000	96.986165 
2818.000000	96.986833 
2817.000000	96.987714 
2816.000000	96.988678 
2815.000000	96.989758 
2814.000000	96.991110 
2813.000000	96.992710 
2812.000000	96.994220 
2811.000000	96.995295 
2810.000000	96.995952 
2809.000000	96.996528 
2808.000000	96.997352 
2807.000000	96.998492 
2806.000000	96.999806 
2805.000000	97.001087 
2804.000000	97.002203 
2803.000000	97.003156 
2802.000000	97.004052 
2801.000000	97.005014 
2800.000000	97.006078 
2799.000000	97.007176 
2798.000000	97.008196 
2797.000000	97.009079 
2796.000000	97.009851 
2795.000000	97.010583 
2794.000000	97.011352 
2793.000000	97.012195 
2792.000000	97.013111 
2791.000000	97.014079 
2790.000000	97.015070 
2789.000000	97.016058 
2788.000000	97.017018 
2787.000000	97.017939 
2786.000000	97.018840 
2785.000000	97.019779 
2784.000000	97.020790 
2783.000000	97.021827 
2782.000000	97.022803 
2781.000000	97.023702 
2780.000000	97.024586 
2779.000000	97.025512 
2778.000000	97.026495 
2777.000000	97.027536 
2776.000000	97.028622 
2775.000000	97.029686 
2774.000000	97.030614 
2773.000000	97.031347 
2772.000000	97.031903 
2771.000000	97.032354 
2770.000000	97.032853 
2769.000000	97.033633 
2768.000000	97.034834 
2767.000000	97.036271 
2766.000000	97.037564 
2765.000000	97.038534 
2764.000000	97.039305 
2763.000000	97.040016 
2762.000000	97.040576 
2761.000000	97.040861 
2760.000000	97.041002 
2759.000000	97.041340 
2758.000000	97.042122 
2757.000000	97.043239 
2756.000000	97.044230 
2755.000000	97.044688 
2754.000000	97.044747 
2753.000000	97.045039 
2752.000000	97.045962 
2751.000000	97.047203 
2750.000000	97.048243 
2749.000000	97.049052 
2748.000000	97.049808 
2747.000000	97.050174 
2746.000000	97.049560 
2745.000000	97.048078 
2744.000000	97.046750 
2743.000000	97.046418 
2742.000000	97.046964 
2741.000000	97.047713 
2740.000000	97.048271 
2739.000000	97.048687 
2738.000000	97.049012 
2737.000000	97.049216 
2736.000000	97.049435 
2735.000000	97.049927 
2734.000000	97.050749 
2733.000000	97.051697 
2732.000000	97.052510 
2731.000000	97.053083 
2730.000000	97.053536 
2729.000000	97.054137 
2728.000000	97.055041 
2727.000000	97.056029 
2726.000000	97.056662 
2725.000000	97.056773 
2724.000000	97.056647 
2723.000000	97.056639 
2722.000000	97.056761 
2721.000000	97.056828 
2720.000000	97.056871 
2719.000000	97.057159 
2718.000000	97.057816 
2717.000000	97.058635 
2716.000000	97.059299 
2715.000000	97.059749 
2714.000000	97.060191 
2713.000000	97.060784 
2712.000000	97.061421 
2711.000000	97.061873 
2710.000000	97.062081 
2709.000000	97.062251 
2708.000000	97.062634 
2707.000000	97.063285 
2706.000000	97.064098 
2705.000000	97.064974 
2704.000000	97.065827 
2703.000000	97.066468 
2702.000000	97.066699 
2701.000000	97.066621 
2700.000000	97.066703 
2699.000000	97.067339 
2698.000000	97.068387 
2697.000000	97.069220 
2696.000000	97.069306 
2695.000000	97.068655 
2694.000000	97.067810 
2693.000000	97.067370 
2692.000000	97.067452 
2691.000000	97.067671 
2690.000000	97.067630 
2689.000000	97.067365 
2688.000000	97.067139 
2687.000000	97.066952 
2686.000000	97.066617 
2685.000000	97.066257 
2684.000000	97.066293 
2683.000000	97.066763 
2682.000000	97.067058 
2681.000000	97.066648 
2680.000000	97.065789 
2679.000000	97.065216 
2678.000000	97.065319 
2677.000000	97.065921 
2676.000000	97.066611 
2675.000000	97.066906 
2674.000000	97.066352 
2673.000000	97.064970 
2672.000000	97.063541 
2671.000000	97.062919 
2670.000000	97.063042 
2669.000000	97.063038 
2668.000000	97.062267 
2667.000000	97.060749 
2666.000000	97.058653 
2665.000000	97.055985 
2664.000000	97.053055 
2663.000000	97.050724 
2662.000000	97.049747 
2661.000000	97.049989 
2660.000000	97.050510 
2659.000000	97.050339 
2658.000000	97.049123 
2657.000000	97.047133 
2656.000000	97.044927 
2655.000000	97.042960 
2654.000000	97.041320 
2653.000000	97.039893 
2652.000000	97.038770 
2651.000000	97.038379 
2650.000000	97.038977 
2649.000000	97.040099 
2648.000000	97.040782 
2647.000000	97.040365 
2646.000000	97.038853 
2645.000000	97.036669 
2644.000000	97.034328 
2643.000000	97.032396 
2642.000000	97.031368 
2641.000000	97.031288 
2640.000000	97.031623 
2639.000000	97.031756 
2638.000000	97.031587 
2637.000000	97.031368 
2636.000000	97.031154 
2635.000000	97.030756 
2634.000000	97.030172 
2633.000000	97.029639 
2632.000000	97.029206 
2631.000000	97.028650 
2630.000000	97.027961 
2629.000000	97.027512 
2628.000000	97.027531 
2627.000000	97.027708 
2626.000000	97.027607 
2625.000000	97.027265 
2624.000000	97.027082 
2623.000000	97.027231 
2622.000000	97.027428 
2621.000000	97.027235 
2620.000000	97.026401 
2619.000000	97.024963 
2618.000000	97.023285 
2617.000000	97.021961 
2616.000000	97.021395 
2615.000000	97.021469 
2614.000000	97.021689 
2613.000000	97.021705 
2612.000000	97.021581 
2611.000000	97.021513 
2610.000000	97.021560 
2609.000000	97.021651 
2608.000000	97.021646 
2607.000000	97.021358 
2606.000000	97.020707 
2605.000000	97.019880 
2604.000000	97.019167 
2603.000000	97.018623 
2602.000000	97.018131 
2601.000000	97.017790 
2600.000000	97.017885 
2599.000000	97.018381 
2598.000000	97.018778 
2597.000000	97.018695 
2596.000000	97.018272 
2595.000000	97.017769 
2594.000000	97.017107 
2593.000000	97.016169 
2592.000000	97.015350 
2591.000000	97.015272 
2590.000000	97.016001 
2589.000000	97.016848 
2588.000000	97.017100 
2587.000000	97.016720 
2586.000000	97.016232 
2585.000000	97.016130 
2584.000000	97.016482 
2583.000000	97.016927 
2582.000000	97.017003 
2581.000000	97.016618 
2580.000000	97.016204 
2579.000000	97.016303 
2578.000000	97.017074 
2577.000000	97.018260 
2576.000000	97.019430 
2575.000000	97.020090 
2574.000000	97.019762 
2573.000000	97.018303 
2572.000000	97.016111 
2571.000000	97.013784 
2570.000000	97.011737 
2569.000000	97.010289 
2568.000000	97.009813 
2567.000000	97.010387 
2566.000000	97.011406 
2565.000000	97.011979 
2564.000000	97.011747 
2563.000000	97.011003 
2562.000000	97.010145 
2561.000000	97.009426 
2560.000000	97.009226 
2559.000000	97.009992 
2558.000000	97.011669 
2557.000000	97.013428 
2556.000000	97.014330 
2555.000000	97.014199 
2554.000000	97.013627 
2553.000000	97.013268 
2552.000000	97.013269 
2551.000000	97.013485 
2550.000000	97.013847 
2549.000000	97.014204 
2548.000000	97.014032 
2547.000000	97.012881 
2546.000000	97.011163 
2545.000000	97.010016 
2544.000000	97.010005 
2543.000000	97.010414 
2542.000000	97.010127 
2541.000000	97.008997 
2540.000000	97.007896 
2539.000000	97.007506 
2538.000000	97.007554 
2537.000000	97.007384 
2536.000000	97.006866 
2535.000000	97.006417 
2534.000000	97.006347 
2533.000000	97.006523 
2532.000000	97.006638 
2531.000000	97.006541 
2530.000000	97.006253 
2529.000000	97.005835 
2528.000000	97.005326 
2527.000000	97.004798 
2526.000000	97.004425 
2525.000000	97.004445 
2524.000000	97.004975 
2523.000000	97.005810 
2522.000000	97.006497 
2521.000000	97.006690 
2520.000000	97.006425 
2519.000000	97.006001 
2518.000000	97.005640 
2517.000000	97.005304 
2516.000000	97.004790 
2515.000000	97.003997 
2514.000000	97.003184 
2513.000000	97.002915 
2512.000000	97.003581 
2511.000000	97.005052 
2510.000000	97.006824 
2509.000000	97.008406 
2508.000000	97.009476 
2507.000000	97.009816 
2506.000000	97.009465 
2505.000000	97.008999 
2504.000000	97.009235 
2503.000000	97.010345 
2502.000000	97.011496 
2501.000000	97.011691 
2500.000000	97.010812 
2499.000000	97.009593 
2498.000000	97.008790 
2497.000000	97.008542 
2496.000000	97.008678 
2495.000000	97.009106 
2494.000000	97.009796 
2493.000000	97.010617 
2492.000000	97.011426 
2491.000000	97.012197 
2490.000000	97.012930 
2489.000000	97.013486 
2488.000000	97.013659 
2487.000000	97.013439 
2486.000000	97.013168 
2485.000000	97.013366 
2484.000000	97.014307 
2483.000000	97.015642 
2482.000000	97.016547 
2481.000000	97.016431 
2480.000000	97.015522 
2479.000000	97.014705 
2478.000000	97.014781 
2477.000000	97.015888 
2476.000000	97.017456 
2475.000000	97.018574 
2474.000000	97.018554 
2473.000000	97.017411 
2472.000000	97.015809 
2471.000000	97.014446 
2470.000000	97.013539 
2469.000000	97.012904 
2468.000000	97.012252 
2467.000000	97.011319 
2466.000000	97.009986 
2465.000000	97.008507 
2464.000000	97.007500 
2463.000000	97.007562 
2462.000000	97.008984 
2461.000000	97.011736 
2460.000000	97.015297 
2459.000000	97.018513 
2458.000000	97.019928 
2457.000000	97.018614 
2456.000000	97.014663 
2455.000000	97.009187 
2454.000000	97.004036 
2453.000000	97.000842 
2452.000000	96.999764 
2451.000000	96.999407 
2450.000000	96.998614 
2449.000000	96.998124 
2448.000000	96.999485 
2447.000000	97.002587 
2446.000000	97.005480 
2445.000000	97.006807 
2444.000000	97.007220 
2443.000000	97.008050 
2442.000000	97.009662 
2441.000000	97.011508 
2440.000000	97.013066 
2439.000000	97.014286 
2438.000000	97.015556 
2437.000000	97.017426 
2436.000000	97.019894 
2435.000000	97.022034 
2434.000000	97.022885 
2433.000000	97.022624 
2432.000000	97.022338 
2431.000000	97.022783 
2430.000000	97.023976 
2429.000000	97.025734 
2428.000000	97.027766 
2427.000000	97.029348 
2426.000000	97.029729 
2425.000000	97.028993 
2424.000000	97.028073 
2423.000000	97.027788 
2422.000000	97.028281 
2421.000000	97.029483 
2420.000000	97.031428 
2419.000000	97.033901 
2418.000000	97.036173 
2417.000000	97.037580 
2416.000000	97.038325 
2415.000000	97.039290 
2414.000000	97.040872 
2413.000000	97.042766 
2412.000000	97.044722 
2411.000000	97.046534 
2410.000000	97.047736 
2409.000000	97.048416 
2408.000000	97.049828 
2407.000000	97.052883 
2406.000000	97.056374 
2405.000000	97.057978 
2404.000000	97.056928 
2403.000000	97.054639 
2402.000000	97.052989 
2401.000000	97.053056 
2400.000000	97.055287 
2399.000000	97.059520 
2398.000000	97.064716 
2397.000000	97.069676 
2396.000000	97.073894 
2395.000000	97.076845 
2394.000000	97.077207 
2393.000000	97.074385 
2392.000000	97.070495 
2391.000000	97.068933 
2390.000000	97.070634 
2389.000000	97.073311 
2388.000000	97.074532 
2387.000000	97.073993 
2386.000000	97.072507 
2385.000000	97.070671 
2384.000000	97.069440 
2383.000000	97.070595 
2382.000000	97.075547 
2381.000000	97.084462 
2380.000000	97.096770 
2379.000000	97.111309 
2378.000000	97.125188 
2377.000000	97.133922 
2376.000000	97.134617 
2375.000000	97.128515 
2374.000000	97.119475 
2373.000000	97.110110 
2372.000000	97.101102 
2371.000000	97.094003 
2370.000000	97.091631 
2369.000000	97.094393 
2368.000000	97.098210 
2367.000000	97.098503 
2366.000000	97.095624 
2365.000000	97.093727 
2364.000000	97.094333 
2363.000000	97.094294 
2362.000000	97.091574 
2361.000000	97.089012 
2360.000000	97.089221 
2359.000000	97.090130 
2358.000000	97.088488 
2357.000000	97.085791 
2356.000000	97.085620 
2355.000000	97.088133 
2354.000000	97.090033 
2353.000000	97.088298 
2352.000000	97.083909 
2351.000000	97.078173 
2350.000000	97.070771 
2349.000000	97.063461 
2348.000000	97.060415 
2347.000000	97.061698 
2346.000000	97.058914 
2345.000000	97.047475 
2344.000000	97.032947 
2343.000000	97.022618 
2342.000000	97.020851 
2341.000000	97.029378 
2340.000000	97.046149 
2339.000000	97.062893 
2338.000000	97.071275 
2337.000000	97.069223 
2336.000000	97.061774 
2335.000000	97.054878 
2334.000000	97.050265 
2333.000000	97.044474 
2332.000000	97.034840 
2331.000000	97.021641 
2330.000000	97.006151 
2329.000000	96.988085 
2328.000000	96.966803 
2327.000000	96.944574 
2326.000000	96.923131 
2325.000000	96.904299 
2324.000000	96.891121 
2323.000000	96.887116 
2322.000000	96.890757 
2321.000000	96.894410 
2320.000000	96.894183 
2319.000000	96.894015 
2318.000000	96.899188 
2317.000000	96.908269 
2316.000000	96.916262 
2315.000000	96.920551 
2314.000000	96.921198 
2313.000000	96.918337 
2312.000000	96.912353 
2311.000000	96.905935 
2310.000000	96.901072 
2309.000000	96.896851 
2308.000000	96.891690 
2307.000000	96.887441 
2306.000000	96.886720 
2305.000000	96.888600 
2304.000000	96.889696 
2303.000000	96.889212 
2302.000000	96.889617 
2301.000000	96.892408 
2300.000000	96.895951 
2299.000000	96.897450 
2298.000000	96.895322 
2297.000000	96.889901 
2296.000000	96.883169 
2295.000000	96.878579 
2294.000000	96.878237 
2293.000000	96.880828 
2292.000000	96.882738 
2291.000000	96.882328 
2290.000000	96.881100 
2289.000000	96.881381 
2288.000000	96.883356 
2287.000000	96.885469 
2286.000000	96.886639 
2285.000000	96.887572 
2284.000000	96.889721 
2283.000000	96.893276 
2282.000000	96.896645 
2281.000000	96.897992 
2280.000000	96.896973 
2279.000000	96.894549 
2278.000000	96.891850 
2277.000000	96.889563 
2276.000000	96.888173 
2275.000000	96.888066 
2274.000000	96.889244 
2273.000000	96.891210 
2272.000000	96.893251 
2271.000000	96.894696 
2270.000000	96.895049 
2269.000000	96.894419 
2268.000000	96.893763 
2267.000000	96.894104 
2266.000000	96.895356 
2265.000000	96.896445 
2264.000000	96.896432 
2263.000000	96.894998 
2262.000000	96.892116 
2261.000000	96.888150 
2260.000000	96.884316 
2259.000000	96.881927 
2258.000000	96.881026 
2257.000000	96.880601 
2256.000000	96.880288 
2255.000000	96.880836 
2254.000000	96.882471 
2253.000000	96.883726 
2252.000000	96.882915 
2251.000000	96.879882 
2250.000000	96.875576 
2249.000000	96.870964 
2248.000000	96.866841 
2247.000000	96.864000 
2246.000000	96.862692 
2245.000000	96.862160 
2244.000000	96.861233 
2243.000000	96.859477 
2242.000000	96.857316 
2241.000000	96.855283 
2240.000000	96.853570 
2239.000000	96.852109 
2238.000000	96.850676 
2237.000000	96.848958 
2236.000000	96.846800 
2235.000000	96.844383 
2234.000000	96.842008 
2233.000000	96.839774 
2232.000000	96.837606 
2231.000000	96.835442 
2230.000000	96.833226 
2229.000000	96.830845 
2228.000000	96.828252 
2227.000000	96.825572 
2226.000000	96.822935 
2225.000000	96.820315 
2224.000000	96.817573 
2223.000000	96.814623 
2222.000000	96.811604 
2221.000000	96.808796 
2220.000000	96.806286 
2219.000000	96.803921 
2218.000000	96.801509 
2217.000000	96.799066 
2216.000000	96.796720 
2215.000000	96.794449 
2214.000000	96.792009 
2213.000000	96.789193 
2212.000000	96.786124 
2211.000000	96.783272 
2210.000000	96.780982 
2209.000000	96.779114 
2208.000000	96.777175 
2207.000000	96.774785 
2206.000000	96.771936 
2205.000000	96.769094 
2204.000000	96.767079 
2203.000000	96.766465 
2202.000000	96.766819 
2201.000000	96.766647 
2200.000000	96.763910 
2199.000000	96.757453 
2198.000000	96.748667 
2197.000000	96.741157 
2196.000000	96.737675 
2195.000000	96.737325 
2194.000000	96.736660 
2193.000000	96.733790 
2192.000000	96.730204 
2191.000000	96.727845 
2190.000000	96.726056 
2189.000000	96.723104 
2188.000000	96.719292 
2187.000000	96.715738 
2186.000000	96.710707 
2185.000000	96.701180 
2184.000000	96.689417 
2183.000000	96.683982 
2182.000000	96.690856 
2181.000000	96.705627 
2180.000000	96.717354 
2179.000000	96.720104 
2178.000000	96.717153 
2177.000000	96.714622 
2176.000000	96.714603 
2175.000000	96.715202 
2174.000000	96.714824 
2173.000000	96.714645 
2172.000000	96.717516 
2171.000000	96.724869 
2170.000000	96.733914 
2169.000000	96.738160 
2168.000000	96.732487 
2167.000000	96.717976 
2166.000000	96.700391 
2165.000000	96.683682 
2164.000000	96.667082 
2163.000000	96.650346 
2162.000000	96.640227 
2161.000000	96.647983 
2160.000000	96.679170 
2159.000000	96.726536 
2158.000000	96.773451 
2157.000000	96.806696 
2156.000000	96.824272 
2155.000000	96.831158 
2154.000000	96.832713 
2153.000000	96.832984 
2152.000000	96.834897 
2151.000000	96.838519 
2150.000000	96.840771 
2149.000000	96.840023 
2148.000000	96.840053 
2147.000000	96.845999 
2146.000000	96.856973 
2145.000000	96.866934 
2144.000000	96.873497 
2143.000000	96.881199 
2142.000000	96.893929 
2141.000000	96.908358 
2140.000000	96.918384 
2139.000000	96.923587 
2138.000000	96.929435 
2137.000000	96.939972 
2136.000000	96.953172 
2135.000000	96.963131 
2134.000000	96.965053 
2133.000000	96.958977 
2132.000000	96.950323 
2131.000000	96.945893 
2130.000000	96.947990 
2129.000000	96.952973 
2128.000000	96.955931 
2127.000000	96.955618 
2126.000000	96.954025 
2125.000000	96.952743 
2124.000000	96.951267 
2123.000000	96.948257 
2122.000000	96.943312 
2121.000000	96.937713 
2120.000000	96.933859 
2119.000000	96.933264 
2118.000000	96.934811 
2117.000000	96.935679 
2116.000000	96.934020 
2115.000000	96.929519 
2114.000000	96.921941 
2113.000000	96.911665 
2112.000000	96.901871 
2111.000000	96.897326 
2110.000000	96.899449 
2109.000000	96.904480 
2108.000000	96.907998 
2107.000000	96.909584 
2106.000000	96.911349 
2105.000000	96.914108 
2104.000000	96.917166 
2103.000000	96.919979 
2102.000000	96.921497 
2101.000000	96.919269 
2100.000000	96.912111 
2099.000000	96.903307 
2098.000000	96.898809 
2097.000000	96.901505 
2096.000000	96.908996 
2095.000000	96.916305 
2094.000000	96.919822 
2093.000000	96.919010 
2092.000000	96.915534 
2091.000000	96.911893 
2090.000000	96.910096 
2089.000000	96.910537 
2088.000000	96.911792 
2087.000000	96.911697 
2086.000000	96.909060 
2085.000000	96.904663 
2084.000000	96.900772 
2083.000000	96.899090 
2082.000000	96.898935 
2081.000000	96.897966 
2080.000000	96.895124 
2079.000000	96.892033 
2078.000000	96.890699 
2077.000000	96.890681 
2076.000000	96.889989 
2075.000000	96.888201 
2074.000000	96.886612 
2073.000000	96.885365 
2072.000000	96.882531 
2071.000000	96.876711 
2070.000000	96.869059 
2069.000000	96.862078 
2068.000000	96.857401 
2067.000000	96.854940 
2066.000000	96.853166 
2065.000000	96.849839 
2064.000000	96.843511 
2063.000000	96.834978 
2062.000000	96.827016 
2061.000000	96.822443 
2060.000000	96.822502 
2059.000000	96.826702 
2058.000000	96.832801 
2057.000000	96.836931 
2056.000000	96.835418 
2055.000000	96.827052 
2054.000000	96.813889 
2053.000000	96.799976 
2052.000000	96.788683 
2051.000000	96.780972 
2050.000000	96.775626 
2049.000000	96.771015 
2048.000000	96.766907 
2047.000000	96.764345 
2046.000000	96.763756 
2045.000000	96.763999 
2044.000000	96.763683 
2043.000000	96.762584 
2042.000000	96.761118 
2041.000000	96.759382 
2040.000000	96.757805 
2039.000000	96.757944 
2038.000000	96.760843 
2037.000000	96.764642 
2036.000000	96.765592 
2035.000000	96.762131 
2034.000000	96.756976 
2033.000000	96.754684 
2032.000000	96.757308 
2031.000000	96.762616 
2030.000000	96.765837 
2029.000000	96.763574 
2028.000000	96.756537 
2027.000000	96.748641 
2026.000000	96.743083 
2025.000000	96.740293 
2024.000000	96.740206 
2023.000000	96.744583 
2022.000000	96.755053 
2021.000000	96.769164 
2020.000000	96.780555 
2019.000000	96.783991 
2018.000000	96.778595 
2017.000000	96.767359 
2016.000000	96.755417 
2015.000000	96.747628 
2014.000000	96.745267 
2013.000000	96.744333 
2012.000000	96.739635 
2011.000000	96.732037 
2010.000000	96.728701 
2009.000000	96.734680 
2008.000000	96.747327 
2007.000000	96.760510 
2006.000000	96.771503 
2005.000000	96.780659 
2004.000000	96.787489 
2003.000000	96.791069 
2002.000000	96.792699 
2001.000000	96.793822 
2000.000000	96.792278 
1999.000000	96.783904 
1998.000000	96.767779 
1997.000000	96.748598 
1996.000000	96.733324 
1995.000000	96.726095 
1994.000000	96.726380 
1993.000000	96.730383 
1992.000000	96.733643 
1991.000000	96.734172 
1990.000000	96.733630 
1989.000000	96.734820 
1988.000000	96.738135 
1987.000000	96.740862 
1986.000000	96.739989 
1985.000000	96.735142 
1984.000000	96.728499 
1983.000000	96.722371 
1982.000000	96.717827 
1981.000000	96.715382 
1980.000000	96.716303 
1979.000000	96.721806 
1978.000000	96.730598 
1977.000000	96.738847 
1976.000000	96.743476 
1975.000000	96.745177 
1974.000000	96.747536 
1973.000000	96.753693 
1972.000000	96.763839 
1971.000000	96.775163 
1970.000000	96.783810 
1969.000000	96.787280 
1968.000000	96.785625 
1967.000000	96.781271 
1966.000000	96.777982 
1965.000000	96.778761 
1964.000000	96.784087 
1963.000000	96.792025 
1962.000000	96.799617 
1961.000000	96.804769 
1960.000000	96.807116 
1959.000000	96.807527 
1958.000000	96.807594 
1957.000000	96.809136 
1956.000000	96.813126 
1955.000000	96.818871 
1954.000000	96.824387 
1953.000000	96.828209 
1952.000000	96.830533 
1951.000000	96.832494 
1950.000000	96.835008 
1949.000000	96.838444 
1948.000000	96.842896 
1947.000000	96.848043 
1946.000000	96.852875 
1945.000000	96.856289 
1944.000000	96.858057 
1943.000000	96.858955 
1942.000000	96.860045 
1941.000000	96.861817 
1940.000000	96.864176 
1939.000000	96.866826 
1938.000000	96.869507 
1937.000000	96.872264 
1936.000000	96.875465 
1935.000000	96.879233 
1934.000000	96.882977 
1933.000000	96.886145 
1932.000000	96.889299 
1931.000000	96.893658 
1930.000000	96.899282 
1929.000000	96.904175 
1928.000000	96.906613 
1927.000000	96.907132 
1926.000000	96.907562 
1925.000000	96.908605 
1924.000000	96.909333 
1923.000000	96.909307 
1922.000000	96.909322 
1921.000000	96.910056 
1920.000000	96.911523 
1919.000000	96.913452 
1918.000000	96.915113 
1917.000000	96.915186 
1916.000000	96.913323 
1915.000000	96.911535 
1914.000000	96.912009 
1913.000000	96.914435 
1912.000000	96.916501 
1911.000000	96.916896 
1910.000000	96.916419 
1909.000000	96.916266 
1908.000000	96.917128 
1907.000000	96.919012 
1906.000000	96.920955 
1905.000000	96.921243 
1904.000000	96.919022 
1903.000000	96.916152 
1902.000000	96.915335 
1901.000000	96.916684 
1900.000000	96.918288 
1899.000000	96.918975 
1898.000000	96.919062 
1897.000000	96.918981 
1896.000000	96.918448 
1895.000000	96.917417 
1894.000000	96.916413 
1893.000000	96.915723 
1892.000000	96.915254 
1891.000000	96.915106 
1890.000000	96.915535 
1889.000000	96.916435 
1888.000000	96.917388 
1887.000000	96.918241 
1886.000000	96.919001 
1885.000000	96.919462 
1884.000000	96.919448 
1883.000000	96.919192 
1882.000000	96.919251 
1881.000000	96.919894 
1880.000000	96.920942 
1879.000000	96.921997 
1878.000000	96.922766 
1877.000000	96.923315 
1876.000000	96.924008 
1875.000000	96.925200 
1874.000000	96.926963 
1873.000000	96.928954 
1872.000000	96.930712 
1871.000000	96.932036 
1870.000000	96.932900 
1869.000000	96.933327 
1868.000000	96.933642 
1867.000000	96.934566 
1866.000000	96.936456 
1865.000000	96.938677 
1864.000000	96.940304 
1863.000000	96.941423 
1862.000000	96.942946 
1861.000000	96.945237 
1860.000000	96.947789 
1859.000000	96.950272 
1858.000000	96.952983 
1857.000000	96.956011 
1856.000000	96.958875 
1855.000000	96.961150 
1854.000000	96.962866 
1853.000000	96.964214 
1852.000000	96.965605 
1851.000000	96.967606 
1850.000000	96.970314 
1849.000000	96.973202 
1848.000000	96.975687 
1847.000000	96.977901 
1846.000000	96.980370 
1845.000000	96.983142 
1844.000000	96.985751 
1843.000000	96.987983 
1842.000000	96.990073 
1841.000000	96.992184 
1840.000000	96.994456 
1839.000000	96.997050 
1838.000000	96.999801 
1837.000000	97.001960 
1836.000000	97.002968 
1835.000000	97.003480 
1834.000000	97.004685 
1833.000000	97.006773 
1832.000000	97.009031 
1831.000000	97.010637 
1830.000000	97.011425 
1829.000000	97.012162 
1828.000000	97.013503 
1827.000000	97.015376 
1826.000000	97.017210 
1825.000000	97.018558 
1824.000000	97.019427 
1823.000000	97.020198 
1822.000000	97.021404 
1821.000000	97.023107 
1820.000000	97.024735 
1819.000000	97.025807 
1818.000000	97.026987 
1817.000000	97.029062 
1816.000000	97.031077 
1815.000000	97.032053 
1814.000000	97.032730 
1813.000000	97.034431 
1812.000000	97.036453 
1811.000000	97.036387 
1810.000000	97.034218 
1809.000000	97.032135 
1808.000000	97.031001 
1807.000000	97.030556 
1806.000000	97.031264 
1805.000000	97.033405 
1804.000000	97.035325 
1803.000000	97.035263 
1802.000000	97.033257 
1801.000000	97.031063 
1800.000000	97.029771 
1799.000000	97.029156 
1798.000000	97.029836 
1797.000000	97.031677 
1796.000000	97.032722 
1795.000000	97.032165 
1794.000000	97.031530 
1793.000000	97.032404 
1792.000000	97.033595 
1791.000000	97.033015 
1790.000000	97.032085 
1789.000000	97.033131 
1788.000000	97.035845 
1787.000000	97.038342 
1786.000000	97.039849 
1785.000000	97.040856 
1784.000000	97.041447 
1783.000000	97.042365 
1782.000000	97.044114 
1781.000000	97.046433 
1780.000000	97.048930 
1779.000000	97.051124 
1778.000000	97.053477 
1777.000000	97.055939 
1776.000000	97.057931 
1775.000000	97.059180 
1774.000000	97.059725 
1773.000000	97.060415 
1772.000000	97.062310 
1771.000000	97.064557 
1770.000000	97.066018 
1769.000000	97.067007 
1768.000000	97.068180 
1767.000000	97.069796 
1766.000000	97.071713 
1765.000000	97.073921 
1764.000000	97.076311 
1763.000000	97.078325 
1762.000000	97.079574 
1761.000000	97.080820 
1760.000000	97.082921 
1759.000000	97.085634 
1758.000000	97.088053 
1757.000000	97.089516 
1756.000000	97.090737 
1755.000000	97.092331 
1754.000000	97.093652 
1753.000000	97.093978 
1752.000000	97.093718 
1751.000000	97.094158 
1750.000000	97.095842 
1749.000000	97.098049 
1748.000000	97.099979 
1747.000000	97.101746 
1746.000000	97.103271 
1745.000000	97.104619 
1744.000000	97.106213 
1743.000000	97.107628 
1742.000000	97.108097 
1741.000000	97.108220 
1740.000000	97.109415 
1739.000000	97.111875 
1738.000000	97.114257 
1737.000000	97.115798 
1736.000000	97.116631 
1735.000000	97.116405 
1734.000000	97.115509 
1733.000000	97.114664 
1732.000000	97.114826 
1731.000000	97.117085 
1730.000000	97.120807 
1729.000000	97.123492 
1728.000000	97.124399 
1727.000000	97.125134 
1726.000000	97.126243 
1725.000000	97.127050 
1724.000000	97.126804 
1723.000000	97.125835 
1722.000000	97.125913 
1721.000000	97.127492 
1720.000000	97.129092 
1719.000000	97.128674 
1718.000000	97.126682 
1717.000000	97.125510 
1716.000000	97.123315 
1715.000000	97.119154 
1714.000000	97.116506 
1713.000000	97.116680 
1712.000000	97.117033 
1711.000000	97.116551 
1710.000000	97.116657 
1709.000000	97.117473 
1708.000000	97.117602 
1707.000000	97.116776 
1706.000000	97.116340 
1705.000000	97.116070 
1704.000000	97.112992 
1703.000000	97.106648 
1702.000000	97.099737 
1701.000000	97.095641 
1700.000000	97.095002 
1699.000000	97.093008 
1698.000000	97.090496 
1697.000000	97.090050 
1696.000000	97.090092 
1695.000000	97.088942 
1694.000000	97.087233 
1693.000000	97.086001 
1692.000000	97.084959 
1691.000000	97.083543 
1690.000000	97.081809 
1689.000000	97.079720 
1688.000000	97.077390 
1687.000000	97.075014 
1686.000000	97.072957 
1685.000000	97.071667 
1684.000000	97.070383 
1683.000000	97.068059 
1682.000000	97.065109 
1681.000000	97.061847 
1680.000000	97.059011 
1679.000000	97.056919 
1678.000000	97.055021 
1677.000000	97.052740 
1676.000000	97.050455 
1675.000000	97.049040 
1674.000000	97.047397 
1673.000000	97.044692 
1672.000000	97.041908 
1671.000000	97.040011 
1670.000000	97.038802 
1669.000000	97.037155 
1668.000000	97.035515 
1667.000000	97.034917 
1666.000000	97.034587 
1665.000000	97.033712 
1664.000000	97.032460 
1663.000000	97.031589 
1662.000000	97.030290 
1661.000000	97.026668 
1660.000000	97.022347 
1659.000000	97.020351 
1658.000000	97.020421 
1657.000000	97.020308 
1656.000000	97.019055 
1655.000000	97.016413 
1654.000000	97.010578 
1653.000000	97.004579 
1652.000000	96.999123 
1651.000000	96.994863 
1650.000000	96.991987 
1649.000000	96.990776 
1648.000000	96.989180 
1647.000000	96.986660 
1646.000000	96.985031 
1645.000000	96.984685 
1644.000000	96.984132 
1643.000000	96.983332 
1642.000000	96.983519 
1641.000000	96.984053 
1640.000000	96.984159 
1639.000000	96.982865 
1638.000000	96.980192 
1637.000000	96.976629 
1636.000000	96.973565 
1635.000000	96.973320 
1634.000000	96.974484 
1633.000000	96.975231 
1632.000000	96.974291 
1631.000000	96.972831 
1630.000000	96.972379 
1629.000000	96.972473 
1628.000000	96.971879 
1627.000000	96.971877 
1626.000000	96.973257 
1625.000000	96.974557 
1624.000000	96.975291 
1623.000000	96.977156 
1622.000000	96.979703 
1621.000000	96.979428 
1620.000000	96.976966 
1619.000000	96.975854 
1618.000000	96.977478 
1617.000000	96.978150 
1616.000000	96.974894 
1615.000000	96.971158 
1614.000000	96.969880 
1613.000000	96.969008 
1612.000000	96.966921 
1611.000000	96.966054 
1610.000000	96.968033 
1609.000000	96.971067 
1608.000000	96.974881 
1607.000000	96.981320 
1606.000000	96.987886 
1605.000000	96.990312 
1604.000000	96.990774 
1603.000000	96.993256 
1602.000000	96.996886 
1601.000000	96.998714 
1600.000000	96.999835 
1599.000000	97.003521 
1598.000000	97.009169 
1597.000000	97.013782 
1596.000000	97.016735 
1595.000000	97.019787 
1594.000000	97.023407 
1593.000000	97.026346 
1592.000000	97.028987 
1591.000000	97.033219 
1590.000000	97.038641 
1589.000000	97.042791 
1588.000000	97.046061 
1587.000000	97.051265 
1586.000000	97.058098 
1585.000000	97.061863 
1584.000000	97.062209 
1583.000000	97.064261 
1582.000000	97.069203 
1581.000000	97.073438 
1580.000000	97.076174 
1579.000000	97.080004 
1578.000000	97.085043 
1577.000000	97.089189 
1576.000000	97.092370 
1575.000000	97.096088 
1574.000000	97.098984 
1573.000000	97.100332 
1572.000000	97.102983 
1571.000000	97.109264 
1570.000000	97.115871 
1569.000000	97.115146 
1568.000000	97.109241 
1567.000000	97.106070 
1566.000000	97.106579 
1565.000000	97.107369 
1564.000000	97.109025 
1563.000000	97.111314 
1562.000000	97.112738 
1561.000000	97.107124 
1560.000000	97.101093 
1559.000000	97.102763 
1558.000000	97.104152 
1557.000000	97.100350 
1556.000000	97.097341 
1555.000000	97.098068 
1554.000000	97.099116 
1553.000000	97.098482 
1552.000000	97.098125 
1551.000000	97.096323 
1550.000000	97.090829 
1549.000000	97.083709 
1548.000000	97.079625 
1547.000000	97.080208 
1546.000000	97.080910 
1545.000000	97.076488 
1544.000000	97.067784 
1543.000000	97.059276 
1542.000000	97.054488 
1541.000000	97.053711 
1540.000000	97.050268 
1539.000000	97.041494 
1538.000000	97.030790 
1537.000000	97.020477 
1536.000000	97.011534 
1535.000000	97.005498 
1534.000000	97.001771 
1533.000000	96.997737 
1532.000000	96.991343 
1531.000000	96.983164 
1530.000000	96.975799 
1529.000000	96.970109 
1528.000000	96.964031 
1527.000000	96.956267 
1526.000000	96.947564 
1525.000000	96.939587 
1524.000000	96.933600 
1523.000000	96.929422 
1522.000000	96.924946 
1521.000000	96.917113 
1520.000000	96.905566 
1519.000000	96.893574 
1518.000000	96.883234 
1517.000000	96.874084 
1516.000000	96.865200 
1515.000000	96.857468 
1514.000000	96.852106 
1513.000000	96.848774 
1512.000000	96.845023 
1511.000000	96.837760 
1510.000000	96.827111 
1509.000000	96.814917 
1508.000000	96.803305 
1507.000000	96.793120 
1506.000000	96.786458 
1505.000000	96.781237 
1504.000000	96.774301 
1503.000000	96.765431 
1502.000000	96.755686 
1501.000000	96.746087 
1500.000000	96.737392 
1499.000000	96.728814 
1498.000000	96.719072 
1497.000000	96.710366 
1496.000000	96.704796 
1495.000000	96.701222 
1494.000000	96.698731 
1493.000000	96.697831 
1492.000000	96.698047 
1491.000000	96.697052 
1490.000000	96.692603 
1489.000000	96.685166 
1488.000000	96.675249 
1487.000000	96.663483 
1486.000000	96.653104 
1485.000000	96.643869 
1484.000000	96.634300 
1483.000000	96.625418 
1482.000000	96.617965 
1481.000000	96.611302 
1480.000000	96.603812 
1479.000000	96.596037 
1478.000000	96.589877 
1477.000000	96.585359 
1476.000000	96.578781 
1475.000000	96.568017 
1474.000000	96.556255 
1473.000000	96.548386 
1472.000000	96.545399 
1471.000000	96.542862 
1470.000000	96.538530 
1469.000000	96.533196 
1468.000000	96.526436 
1467.000000	96.517773 
1466.000000	96.509622 
1465.000000	96.504964 
1464.000000	96.503525 
1463.000000	96.500270 
1462.000000	96.492814 
1461.000000	96.484318 
1460.000000	96.479115 
1459.000000	96.477624 
1458.000000	96.474347 
1457.000000	96.465956 
1456.000000	96.456146 
1455.000000	96.446574 
1454.000000	96.436786 
1453.000000	96.430018 
1452.000000	96.429372 
1451.000000	96.433425 
1450.000000	96.438979 
1449.000000	96.445617 
1448.000000	96.452053 
1447.000000	96.455342 
1446.000000	96.453802 
1445.000000	96.449990 
1444.000000	96.448279 
1443.000000	96.447416 
1442.000000	96.444604 
1441.000000	96.440750 
1440.000000	96.439047 
1439.000000	96.438635 
1438.000000	96.436031 
1437.000000	96.432345 
1436.000000	96.431813 
1435.000000	96.432144 
1434.000000	96.430248 
1433.000000	96.429005 
1432.000000	96.431413 
1431.000000	96.436047 
1430.000000	96.439072 
1429.000000	96.440784 
1428.000000	96.442902 
1427.000000	96.445772 
1426.000000	96.448265 
1425.000000	96.450166 
1424.000000	96.454415 
1423.000000	96.459222 
1422.000000	96.460679 
1421.000000	96.460635 
1420.000000	96.464613 
1419.000000	96.469265 
1418.000000	96.465319 
1417.000000	96.457273 
1416.000000	96.456716 
1415.000000	96.464708 
1414.000000	96.473009 
1413.000000	96.475969 
1412.000000	96.476799 
1411.000000	96.479389 
1410.000000	96.482629 
1409.000000	96.486380 
1408.000000	96.492317 
1407.000000	96.500604 
1406.000000	96.508947 
1405.000000	96.516501 
1404.000000	96.526432 
1403.000000	96.537698 
1402.000000	96.546101 
1401.000000	96.552844 
1400.000000	96.563570 
1399.000000	96.579439 
1398.000000	96.593985 
1397.000000	96.602827 
1396.000000	96.608573 
1395.000000	96.616157 
1394.000000	96.626285 
1393.000000	96.638076 
1392.000000	96.653466 
1391.000000	96.671856 
1390.000000	96.688733 
1389.000000	96.700459 
1388.000000	96.707075 
1387.000000	96.711030 
1386.000000	96.714672 
1385.000000	96.720317 
1384.000000	96.730686 
1383.000000	96.745398 
1382.000000	96.760491 
1381.000000	96.772585 
1380.000000	96.781416 
1379.000000	96.789367 
1378.000000	96.798837 
1377.000000	96.810390 
1376.000000	96.822713 
1375.000000	96.833957 
1374.000000	96.842969 
1373.000000	96.851170 
1372.000000	96.860919 
1371.000000	96.872951 
1370.000000	96.885443 
1369.000000	96.895789 
1368.000000	96.905099 
1367.000000	96.916140 
1366.000000	96.929387 
1365.000000	96.943336 
1364.000000	96.955438 
1363.000000	96.963080 
1362.000000	96.966372 
1361.000000	96.969184 
1360.000000	96.975767 
1359.000000	96.987202 
1358.000000	97.000634 
1357.000000	97.011981 
1356.000000	97.019666 
1355.000000	97.024931 
1354.000000	97.029537 
1353.000000	97.035378 
1352.000000	97.042710 
1351.000000	97.051400 
1350.000000	97.061118 
1349.000000	97.069724 
1348.000000	97.076117 
1347.000000	97.081263 
1346.000000	97.086747 
1345.000000	97.093078 
1344.000000	97.099986 
1343.000000	97.107463 
1342.000000	97.115281 
1341.000000	97.121737 
1340.000000	97.124447 
1339.000000	97.122961 
1338.000000	97.119233 
1337.000000	97.116035 
1336.000000	97.115050 
1335.000000	97.115817 
1334.000000	97.116757 
1333.000000	97.117278 
1332.000000	97.118033 
1331.000000	97.119729 
1330.000000	97.121877 
1329.000000	97.123602 
1328.000000	97.124937 
1327.000000	97.127005 
1326.000000	97.129851 
1325.000000	97.131514 
1324.000000	97.131046 
1323.000000	97.129226 
1322.000000	97.126820 
1321.000000	97.124202 
1320.000000	97.122504 
1319.000000	97.123039 
1318.000000	97.125535 
1317.000000	97.128436 
1316.000000	97.130385 
1315.000000	97.130371 
1314.000000	97.127624 
1313.000000	97.123322 
1312.000000	97.120666 
1311.000000	97.121460 
1310.000000	97.123614 
1309.000000	97.124276 
1308.000000	97.123706 
1307.000000	97.124639 
1306.000000	97.128095 
1305.000000	97.132022 
1304.000000	97.134495 
1303.000000	97.134933 
1302.000000	97.132925 
1301.000000	97.128456 
1300.000000	97.123689 
1299.000000	97.121963 
1298.000000	97.124077 
1297.000000	97.127113 
1296.000000	97.127826 
1295.000000	97.126335 
1294.000000	97.125366 
1293.000000	97.126837 
1292.000000	97.129884 
1291.000000	97.131879 
1290.000000	97.131175 
1289.000000	97.128757 
1288.000000	97.127014 
1287.000000	97.126946 
1286.000000	97.127276 
1285.000000	97.126729 
1284.000000	97.125969 
1283.000000	97.125965 
1282.000000	97.125742 
1281.000000	97.123295 
1280.000000	97.118715 
1279.000000	97.115069 
1278.000000	97.115746 
1277.000000	97.121407 
1276.000000	97.129170 
1275.000000	97.134536 
1274.000000	97.134656 
1273.000000	97.130745 
1272.000000	97.127089 
1271.000000	97.126792 
1270.000000	97.128832 
1269.000000	97.129839 
1268.000000	97.128023 
1267.000000	97.124044 
1266.000000	97.119230 
1265.000000	97.115117 
1264.000000	97.113614 
1263.000000	97.115124 
1262.000000	97.117047 
1261.000000	97.116163 
1260.000000	97.112940 
1259.000000	97.111466 
1258.000000	97.114174 
1257.000000	97.118468 
1256.000000	97.119403 
1255.000000	97.115134 
1254.000000	97.109103 
1253.000000	97.106191 
1252.000000	97.106663 
1251.000000	97.105275 
1250.000000	97.097594 
1249.000000	97.085944 
1248.000000	97.076864 
1247.000000	97.072789 
1246.000000	97.069224 
1245.000000	97.061294 
1244.000000	97.049846 
1243.000000	97.039334 
1242.000000	97.032354 
1241.000000	97.028286 
1240.000000	97.025053 
1239.000000	97.019888 
1238.000000	97.010270 
1237.000000	96.996327 
1236.000000	96.980961 
1235.000000	96.966155 
1234.000000	96.950920 
1233.000000	96.934183 
1232.000000	96.917074 
1231.000000	96.900278 
1230.000000	96.881952 
1229.000000	96.860831 
1228.000000	96.838430 
1227.000000	96.815005 
1226.000000	96.786138 
1225.000000	96.747401 
1224.000000	96.700774 
1223.000000	96.652489 
1222.000000	96.605319 
1221.000000	96.556633 
1220.000000	96.503600 
1219.000000	96.446466 
1218.000000	96.386605 
1217.000000	96.324622 
1216.000000	96.260456 
1215.000000	96.192880 
1214.000000	96.119683 
1213.000000	96.041470 
1212.000000	95.964068 
1211.000000	95.892802 
1210.000000	95.824965 
1209.000000	95.752675 
1208.000000	95.673289 
1207.000000	95.592245 
1206.000000	95.514743 
1205.000000	95.438849 
1204.000000	95.358886 
1203.000000	95.272547 
1202.000000	95.182930 
1201.000000	95.095643 
1200.000000	95.014821 
1199.000000	94.939939 
1198.000000	94.865720 
1197.000000	94.787084 
1196.000000	94.704017 
1195.000000	94.619994 
1194.000000	94.536771 
1193.000000	94.453257 
1192.000000	94.368615 
1191.000000	94.283201 
1190.000000	94.196795 
1189.000000	94.108855 
1188.000000	94.020125 
1187.000000	93.931260 
1186.000000	93.840626 
1185.000000	93.746192 
1184.000000	93.648335 
1183.000000	93.547940 
1182.000000	93.443616 
1181.000000	93.334285 
1180.000000	93.222508 
1179.000000	93.110884 
1178.000000	92.996809 
1177.000000	92.875770 
1176.000000	92.748414 
1175.000000	92.619145 
1174.000000	92.489010 
1173.000000	92.355874 
1172.000000	92.221071 
1171.000000	92.089277 
1170.000000	91.961534 
1169.000000	91.834830 
1168.000000	91.709502 
1167.000000	91.591450 
1166.000000	91.486990 
1165.000000	91.401900 
1164.000000	91.345454 
1163.000000	91.327340 
1162.000000	91.347752 
1161.000000	91.394823 
1160.000000	91.451876 
1159.000000	91.502413 
1158.000000	91.530190 
1157.000000	91.523307 
1156.000000	91.480545 
1155.000000	91.409322 
1154.000000	91.317352 
1153.000000	91.210613 
1152.000000	91.097783 
1151.000000	90.988751 
1150.000000	90.886940 
1149.000000	90.788970 
1148.000000	90.692568 
1147.000000	90.598422 
1146.000000	90.504188 
1145.000000	90.404544 
1144.000000	90.299117 
1143.000000	90.193757 
1142.000000	90.092170 
1141.000000	89.992392 
1140.000000	89.892680 
1139.000000	89.794261 
1138.000000	89.697117 
1137.000000	89.599698 
1136.000000	89.503714 
1135.000000	89.412231 
1134.000000	89.322225 
1133.000000	89.226602 
1132.000000	89.124881 
1131.000000	89.024307 
1130.000000	88.928863 
1129.000000	88.834625 
1128.000000	88.737582 
1127.000000	88.638397 
1126.000000	88.537803 
1125.000000	88.434860 
1124.000000	88.331653 
1123.000000	88.232396 
1122.000000	88.136265 
1121.000000	88.038493 
1120.000000	87.939534 
1119.000000	87.844829 
1118.000000	87.754566 
1117.000000	87.662844 
1116.000000	87.568271 
1115.000000	87.476272 
1114.000000	87.389465 
1113.000000	87.305067 
1112.000000	87.222947 
1111.000000	87.146234 
1110.000000	87.072439 
1109.000000	86.994386 
1108.000000	86.911198 
1107.000000	86.828574 
1106.000000	86.747944 
1105.000000	86.665255 
1104.000000	86.580517 
1103.000000	86.498453 
1102.000000	86.418739 
1101.000000	86.337486 
1100.000000	86.257204 
1099.000000	86.185078 
1098.000000	86.121862 
1097.000000	86.061750 
1096.000000	86.003291 
1095.000000	85.948416 
1094.000000	85.892743 
1093.000000	85.830274 
1092.000000	85.767386 
1091.000000	85.718201 
1090.000000	85.685463 
1089.000000	85.658814 
1088.000000	85.631628 
1087.000000	85.605782 
1086.000000	85.580452 
1085.000000	85.551833 
1084.000000	85.524976 
1083.000000	85.510407 
1082.000000	85.506680 
1081.000000	85.500792 
1080.000000	85.488059 
1079.000000	85.477196 
1078.000000	85.473350 
1077.000000	85.470115 
1076.000000	85.460878 
1075.000000	85.444151 
1074.000000	85.415505 
1073.000000	85.368075 
1072.000000	85.303087 
1071.000000	85.226400 
1070.000000	85.132888 
1069.000000	85.008855 
1068.000000	84.852880 
1067.000000	84.680836 
1066.000000	84.507237 
1065.000000	84.334641 
1064.000000	84.164251 
1063.000000	84.001067 
1062.000000	83.843002 
1061.000000	83.679448 
1060.000000	83.507161 
1059.000000	83.335933 
1058.000000	83.174341 
1057.000000	83.021864 
1056.000000	82.878138 
1055.000000	82.746467 
1054.000000	82.624142 
1053.000000	82.502341 
1052.000000	82.379859 
1051.000000	82.263754 
1050.000000	82.152828 
1049.000000	82.035928 
1048.000000	81.910139 
1047.000000	81.784413 
1046.000000	81.662975 
1045.000000	81.541095 
1044.000000	81.418028 
1043.000000	81.298586 
1042.000000	81.181036 
1041.000000	81.058677 
1040.000000	80.934783 
1039.000000	80.820844 
1038.000000	80.718868 
1037.000000	80.621016 
1036.000000	80.527614 
1035.000000	80.448902 
1034.000000	80.387310 
1033.000000	80.334429 
1032.000000	80.286700 
1031.000000	80.247510 
1030.000000	80.213213 
1029.000000	80.175278 
1028.000000	80.137955 
1027.000000	80.115356 
1026.000000	80.108832 
1025.000000	80.104858 
1024.000000	80.097053 
1023.000000	80.091795 
1022.000000	80.089885 
1021.000000	80.082188 
1020.000000	80.067027 
1019.000000	80.053713 
1018.000000	80.045235 
1017.000000	80.034808 
1016.000000	80.022286 
1015.000000	80.016019 
1014.000000	80.015334 
1013.000000	80.009277 
1012.000000	79.996473 
1011.000000	79.988665 
1010.000000	79.990979 
1009.000000	79.996092 
1008.000000	80.001464 
1007.000000	80.014982 
1006.000000	80.039518 
1005.000000	80.068465 
1004.000000	80.099891 
1003.000000	80.138565 
1002.000000	80.181241 
1001.000000	80.217605 
1000.000000	80.249525 
999.000000	 80.291935 
998.000000	 80.350416 
997.000000	 80.414357 
996.000000	 80.475995 
995.000000	 80.540018 
994.000000	 80.610203 
993.000000	 80.682689 
992.000000	 80.756636 
991.000000	 80.836345 
990.000000	 80.919493 
989.000000	 80.998459 
988.000000	 81.075991 
987.000000	 81.164050 
986.000000	 81.264953 
985.000000	 81.369764 
984.000000	 81.477152 
983.000000	 81.596227 
982.000000	 81.727428 
981.000000	 81.858395 
980.000000	 81.983646 
979.000000	 82.111946 
978.000000	 82.249092 
977.000000	 82.389599 
976.000000	 82.530590 
975.000000	 82.678558 
974.000000	 82.836480 
973.000000	 82.998206 
972.000000	 83.160798 
971.000000	 83.329196 
970.000000	 83.503879 
969.000000	 83.676682 
968.000000	 83.843307 
967.000000	 84.008017 
966.000000	 84.172690 
965.000000	 84.333685 
964.000000	 84.492669 
963.000000	 84.657644 
962.000000	 84.829253 
961.000000	 84.997934 
960.000000	 85.158164 
959.000000	 85.314144 
958.000000	 85.468785 
957.000000	 85.618932 
956.000000	 85.764715 
955.000000	 85.912045 
954.000000	 86.062029 
953.000000	 86.208054 
952.000000	 86.346137 
951.000000	 86.478311 
950.000000	 86.604429 
949.000000	 86.721356 
948.000000	 86.831930 
947.000000	 86.943981 
946.000000	 87.058280 
945.000000	 87.167646 
944.000000	 87.269480 
943.000000	 87.369073 
942.000000	 87.469681 
941.000000	 87.570015 
940.000000	 87.672312 
939.000000	 87.781130 
938.000000	 87.892539 
937.000000	 87.996123 
936.000000	 88.089899 
935.000000	 88.182699 
934.000000	 88.280106 
933.000000	 88.378974 
932.000000	 88.477979 
931.000000	 88.582007 
930.000000	 88.692285 
929.000000	 88.801916 
928.000000	 88.905287 
927.000000	 89.004112 
926.000000	 89.101499 
925.000000	 89.196850 
924.000000	 89.288030 
923.000000	 89.372443 
922.000000	 89.446627 
921.000000	 89.511870 
920.000000	 89.578327 
919.000000	 89.655016 
918.000000	 89.737376 
917.000000	 89.813645 
916.000000	 89.881648 
915.000000	 89.949660 
914.000000	 90.022772 
913.000000	 90.099476 
912.000000	 90.180730 
911.000000	 90.271049 
910.000000	 90.370313 
909.000000	 90.474813 
908.000000	 90.586147 
907.000000	 90.709096 
906.000000	 90.841702 
905.000000	 90.977403 
904.000000	 91.115061 
903.000000	 91.256310 
902.000000	 91.395926 
901.000000	 91.527345 
900.000000	 91.655976 
899.000000	 91.794224 
898.000000	 91.943393 
897.000000	 92.091672 
896.000000	 92.229162 
895.000000	 92.353675 
894.000000	 92.464181 
893.000000	 92.561846 
892.000000	 92.656944 
891.000000	 92.761300 
890.000000	 92.871991 
889.000000	 92.973647 
888.000000	 93.057117 
887.000000	 93.125492 
886.000000	 93.183688 
885.000000	 93.234447 
884.000000	 93.283611 
883.000000	 93.335696 
882.000000	 93.384419 
881.000000	 93.421974 
880.000000	 93.457819 
879.000000	 93.512171 
878.000000	 93.588941 
877.000000	 93.671661 
876.000000	 93.749013 
875.000000	 93.827403 
874.000000	 93.914543 
873.000000	 94.009193 
872.000000	 94.113070 
871.000000	 94.234842 
870.000000	 94.373513 
869.000000	 94.512024 
868.000000	 94.635647 
867.000000	 94.745536 
866.000000	 94.848839 
865.000000	 94.948099 
864.000000	 95.047236 
863.000000	 95.156184 
862.000000	 95.279962 
861.000000	 95.410210 
860.000000	 95.534384 
859.000000	 95.647285 
858.000000	 95.749430 
857.000000	 95.841421 
856.000000	 95.924672 
855.000000	 96.001637 
854.000000	 96.071311 
853.000000	 96.129712 
852.000000	 96.177274 
851.000000	 96.220878 
850.000000	 96.268150 
849.000000	 96.324919 
848.000000	 96.395563 
847.000000	 96.476709 
846.000000	 96.552793 
845.000000	 96.609376 
844.000000	 96.650653 
843.000000	 96.693092 
842.000000	 96.742428 
841.000000	 96.788764 
840.000000	 96.823651 
839.000000	 96.847908 
838.000000	 96.861908 
837.000000	 96.863788 
836.000000	 96.861390 
835.000000	 96.871251 
834.000000	 96.898404 
833.000000	 96.928711 
832.000000	 96.948040 
831.000000	 96.958389 
830.000000	 96.968991 
829.000000	 96.983087 
828.000000	 97.002237 
827.000000	 97.032809 
826.000000	 97.076268 
825.000000	 97.120278 
824.000000	 97.150073 
823.000000	 97.163249 
822.000000	 97.166296 
821.000000	 97.163817 
820.000000	 97.157077 
819.000000	 97.144928 
818.000000	 97.120463 
817.000000	 97.073551 
816.000000	 97.000807 
815.000000	 96.907261 
814.000000	 96.795178 
813.000000	 96.657094 
812.000000	 96.481639 
811.000000	 96.258372 
810.000000	 95.974608 
809.000000	 95.617486 
808.000000	 95.185787 
807.000000	 94.694319 
806.000000	 94.163230 
805.000000	 93.610276 
804.000000	 93.056730 
803.000000	 92.529066 
802.000000	 92.047056 
801.000000	 91.620086 
800.000000	 91.260802 
799.000000	 90.989132 
798.000000	 90.814538 
797.000000	 90.725721 
796.000000	 90.703988 
795.000000	 90.734719 
794.000000	 90.801588 
793.000000	 90.884584 
792.000000	 90.970374 
791.000000	 91.052902 
790.000000	 91.120431 
789.000000	 91.155068 
788.000000	 91.147910 
787.000000	 91.101098 
786.000000	 91.012666 
785.000000	 90.874616 
784.000000	 90.690630 
783.000000	 90.481268 
782.000000	 90.266928 
781.000000	 90.060754 
780.000000	 89.882598 
779.000000	 89.761241 
778.000000	 89.713290 
777.000000	 89.734183 
776.000000	 89.815850 
775.000000	 89.955948 
774.000000	 90.142660 
773.000000	 90.349289 
772.000000	 90.554975 
771.000000	 90.756926 
770.000000	 90.954863 
769.000000	 91.139224 
768.000000	 91.303271 
767.000000	 91.451680 
766.000000	 91.587517 
765.000000	 91.704828 
764.000000	 91.804497 
763.000000	 91.904186 
762.000000	 92.020470 
761.000000	 92.150701 
760.000000	 92.282277 
759.000000	 92.410192 
758.000000	 92.536530 
757.000000	 92.662711 
756.000000	 92.792001 
755.000000	 92.931019 
754.000000	 93.078349 
753.000000	 93.217781 
752.000000	 93.331395 
751.000000	 93.415298 
750.000000	 93.478967 
749.000000	 93.536335 
748.000000	 93.600804 
747.000000	 93.679440 
746.000000	 93.766263 
745.000000	 93.849061 
744.000000	 93.927256 
743.000000	 94.014482 
742.000000	 94.119369 
741.000000	 94.233699 
740.000000	 94.344800 
739.000000	 94.449514 
738.000000	 94.549436 
737.000000	 94.641284 
736.000000	 94.719709 
735.000000	 94.784190 
734.000000	 94.837946 
733.000000	 94.885140 
732.000000	 94.931538 
731.000000	 94.981001 
730.000000	 95.028172 
729.000000	 95.061455 
728.000000	 95.078488 
727.000000	 95.092105 
726.000000	 95.117869 
725.000000	 95.163152 
724.000000	 95.227560 
723.000000	 95.303845 
722.000000	 95.377822 
721.000000	 95.438852 
720.000000	 95.492951 
719.000000	 95.553679 
718.000000	 95.620307 
717.000000	 95.680363 
716.000000	 95.731374 
715.000000	 95.783124 
714.000000	 95.837627 
713.000000	 95.884681 
712.000000	 95.923872 
711.000000	 95.972701 
710.000000	 96.042525 
709.000000	 96.121247 
708.000000	 96.190023 
707.000000	 96.243610 
706.000000	 96.281929 
705.000000	 96.296943 
704.000000	 96.280691 
703.000000	 96.232964 
702.000000	 96.150013 
701.000000	 96.015127 
700.000000	 95.812791 
699.000000	 95.548908 
698.000000	 95.248479 
697.000000	 94.945654 
696.000000	 94.684901 
695.000000	 94.514924 
694.000000	 94.465571 
693.000000	 94.528858 
692.000000	 94.667839 
691.000000	 94.843007 
690.000000	 95.026877 
689.000000	 95.205589 
688.000000	 95.376091 
687.000000	 95.537369 
686.000000	 95.682555 
685.000000	 95.802946 
684.000000	 95.899534 
683.000000	 95.982728 
682.000000	 96.058290 
681.000000	 96.125687 
680.000000	 96.190115 
679.000000	 96.264263 
678.000000	 96.347602 
677.000000	 96.423395 
676.000000	 96.489732 
675.000000	 96.562205 
674.000000	 96.643873 
673.000000	 96.716101 
672.000000	 96.765565 
671.000000	 96.815159 
670.000000	 96.914165 
669.000000	 97.087256 
668.000000	 97.233894 
667.000000	 97.249885 
666.000000	 97.198347 
665.000000	 97.142702 
664.000000	 97.096378 
663.000000	 97.068968 
662.000000	 97.070389 
661.000000	 97.087883 
660.000000	 97.113088 
659.000000	 97.150643 
658.000000	 97.193074 
657.000000	 97.211096 
656.000000	 97.196324 
655.000000	 97.168986 
654.000000	 97.141201 
653.000000	 97.105315 
652.000000	 97.068436 
651.000000	 97.059749 
650.000000	 97.083293 

