4000.000000	97.537994 
3999.000000	97.536188 
3998.000000	97.533687 
3997.000000	97.531268 
3996.000000	97.529760 
3995.000000	97.529501 
3994.000000	97.530269 
3993.000000	97.531445 
3992.000000	97.532368 
3991.000000	97.532704 
3990.000000	97.532493 
3989.000000	97.531967 
3988.000000	97.531362 
3987.000000	97.530871 
3986.000000	97.530659 
3985.000000	97.530753 
3984.000000	97.530891 
3983.000000	97.530691 
3982.000000	97.530099 
3981.000000	97.529458 
3980.000000	97.528929 
3979.000000	97.528133 
3978.000000	97.526678 
3977.000000	97.524855 
3976.000000	97.523502 
3975.000000	97.523081 
3974.000000	97.523145 
3973.000000	97.522761 
3972.000000	97.521333 
3971.000000	97.519018 
3970.000000	97.516571 
3969.000000	97.514885 
3968.000000	97.514537 
3967.000000	97.515488 
3966.000000	97.517158 
3965.000000	97.518781 
3964.000000	97.519668 
3963.000000	97.519381 
3962.000000	97.517922 
3961.000000	97.515780 
3960.000000	97.513653 
3959.000000	97.512100 
3958.000000	97.511361 
3957.000000	97.511374 
3956.000000	97.511720 
3955.000000	97.511610 
3954.000000	97.510386 
3953.000000	97.507989 
3952.000000	97.504965 
3951.000000	97.502006 
3950.000000	97.499483 
3949.000000	97.497472 
3948.000000	97.495855 
3947.000000	97.494512 
3946.000000	97.493593 
3945.000000	97.493449 
3944.000000	97.494125 
3943.000000	97.494973 
3942.000000	97.495374 
3941.000000	97.495438 
3940.000000	97.495642 
3939.000000	97.496117 
3938.000000	97.496431 
3937.000000	97.496103 
3936.000000	97.495081 
3935.000000	97.493553 
3934.000000	97.491819 
3933.000000	97.490176 
3932.000000	97.488890 
3931.000000	97.487978 
3930.000000	97.487430 
3929.000000	97.487689 
3928.000000	97.489155 
3927.000000	97.491302 
3926.000000	97.492583 
3925.000000	97.491706 
3924.000000	97.488961 
3923.000000	97.485785 
3922.000000	97.483153 
3921.000000	97.481097 
3920.000000	97.479403 
3919.000000	97.478126 
3918.000000	97.477276 
3917.000000	97.476630 
3916.000000	97.476150 
3915.000000	97.476079 
3914.000000	97.476512 
3913.000000	97.477185 
3912.000000	97.477771 
3911.000000	97.478251 
3910.000000	97.478589 
3909.000000	97.478606 
3908.000000	97.478233 
3907.000000	97.477447 
3906.000000	97.476178 
3905.000000	97.474044 
3904.000000	97.470862 
3903.000000	97.467379 
3902.000000	97.464958 
3901.000000	97.464443 
3900.000000	97.465563 
3899.000000	97.467209 
3898.000000	97.468488 
3897.000000	97.469153 
3896.000000	97.469254 
3895.000000	97.468996 
3894.000000	97.468587 
3893.000000	97.468079 
3892.000000	97.467172 
3891.000000	97.465493 
3890.000000	97.463222 
3889.000000	97.460996 
3888.000000	97.459469 
3887.000000	97.458888 
3886.000000	97.459071 
3885.000000	97.459488 
3884.000000	97.459523 
3883.000000	97.458863 
3882.000000	97.457817 
3881.000000	97.457126 
3880.000000	97.457166 
3879.000000	97.457408 
3878.000000	97.457135 
3877.000000	97.456376 
3876.000000	97.455801 
3875.000000	97.455811 
3874.000000	97.456031 
3873.000000	97.455804 
3872.000000	97.454929 
3871.000000	97.453671 
3870.000000	97.452501 
3869.000000	97.451946 
3868.000000	97.452052 
3867.000000	97.452260 
3866.000000	97.452090 
3865.000000	97.451750 
3864.000000	97.451892 
3863.000000	97.452469 
3862.000000	97.452574 
3861.000000	97.451990 
3860.000000	97.451445 
3859.000000	97.451348 
3858.000000	97.451174 
3857.000000	97.450243 
3856.000000	97.448667 
3855.000000	97.446958 
3854.000000	97.445060 
3853.000000	97.443060 
3852.000000	97.441743 
3851.000000	97.441678 
3850.000000	97.442660 
3849.000000	97.444444 
3848.000000	97.446859 
3847.000000	97.449449 
3846.000000	97.451149 
3845.000000	97.451156 
3844.000000	97.449765 
3843.000000	97.447812 
3842.000000	97.445739 
3841.000000	97.443850 
3840.000000	97.442501 
3839.000000	97.442201 
3838.000000	97.443120 
3837.000000	97.444463 
3836.000000	97.445236 
3835.000000	97.445189 
3834.000000	97.444886 
3833.000000	97.445104 
3832.000000	97.445994 
3831.000000	97.446977 
3830.000000	97.447381 
3829.000000	97.447119 
3828.000000	97.446988 
3827.000000	97.447834 
3826.000000	97.449319 
3825.000000	97.450232 
3824.000000	97.449680 
3823.000000	97.447946 
3822.000000	97.446259 
3821.000000	97.445406 
3820.000000	97.445013 
3819.000000	97.444343 
3818.000000	97.443528 
3817.000000	97.443681 
3816.000000	97.445722 
3815.000000	97.449134 
3814.000000	97.452274 
3813.000000	97.454038 
3812.000000	97.454717 
3811.000000	97.455465 
3810.000000	97.456679 
3809.000000	97.457459 
3808.000000	97.456851 
3807.000000	97.454993 
3806.000000	97.452573 
3805.000000	97.449674 
3804.000000	97.446194 
3803.000000	97.443642 
3802.000000	97.443991 
3801.000000	97.446821 
3800.000000	97.449385 
3799.000000	97.449531 
3798.000000	97.448000 
3797.000000	97.447637 
3796.000000	97.450177 
3795.000000	97.454261 
3794.000000	97.457195 
3793.000000	97.458093 
3792.000000	97.458406 
3791.000000	97.459884 
3790.000000	97.462272 
3789.000000	97.463920 
3788.000000	97.464223 
3787.000000	97.464072 
3786.000000	97.464174 
3785.000000	97.463863 
3784.000000	97.462055 
3783.000000	97.458793 
3782.000000	97.455124 
3781.000000	97.452491 
3780.000000	97.452289 
3779.000000	97.455050 
3778.000000	97.459325 
3777.000000	97.462586 
3776.000000	97.463278 
3775.000000	97.461636 
3774.000000	97.458829 
3773.000000	97.455612 
3772.000000	97.452000 
3771.000000	97.447700 
3770.000000	97.442967 
3769.000000	97.438888 
3768.000000	97.436208 
3767.000000	97.434852 
3766.000000	97.434727 
3765.000000	97.435682 
3764.000000	97.437436 
3763.000000	97.439282 
3762.000000	97.440251 
3761.000000	97.440006 
3760.000000	97.439147 
3759.000000	97.438833 
3758.000000	97.438084 
3757.000000	97.434561 
3756.000000	97.427857 
3755.000000	97.419150 
3754.000000	97.409847 
3753.000000	97.401080 
3752.000000	97.394297 
3751.000000	97.389997 
3750.000000	97.385613 
3749.000000	97.379437 
3748.000000	97.373652 
3747.000000	97.371347 
3746.000000	97.373472 
3745.000000	97.377063 
3744.000000	97.380497 
3743.000000	97.383598 
3742.000000	97.383513 
3741.000000	97.378338 
3740.000000	97.371519 
3739.000000	97.369688 
3738.000000	97.374520 
3737.000000	97.379925 
3736.000000	97.382129 
3735.000000	97.385364 
3734.000000	97.393588 
3733.000000	97.402845 
3732.000000	97.407443 
3731.000000	97.406666 
3730.000000	97.402077 
3729.000000	97.395062 
3728.000000	97.388216 
3727.000000	97.384821 
3726.000000	97.385746 
3725.000000	97.387983 
3724.000000	97.388664 
3723.000000	97.388751 
3722.000000	97.391142 
3721.000000	97.396185 
3720.000000	97.400142 
3719.000000	97.400427 
3718.000000	97.397543 
3717.000000	97.392360 
3716.000000	97.385002 
3715.000000	97.374384 
3714.000000	97.360204 
3713.000000	97.345132 
3712.000000	97.333680 
3711.000000	97.328428 
3710.000000	97.327451 
3709.000000	97.327374 
3708.000000	97.326296 
3707.000000	97.323107 
3706.000000	97.317753 
3705.000000	97.311470 
3704.000000	97.305821 
3703.000000	97.300617 
3702.000000	97.292556 
3701.000000	97.278098 
3700.000000	97.257607 
3699.000000	97.236107 
3698.000000	97.219499 
3697.000000	97.209831 
3696.000000	97.205139 
3695.000000	97.202145 
3694.000000	97.198735 
3693.000000	97.195304 
3692.000000	97.193618 
3691.000000	97.194092 
3690.000000	97.193596 
3689.000000	97.188926 
3688.000000	97.181386 
3687.000000	97.174146 
3686.000000	97.168147 
3685.000000	97.162483 
3684.000000	97.156882 
3683.000000	97.152391 
3682.000000	97.148754 
3681.000000	97.142188 
3680.000000	97.128316 
3679.000000	97.106049 
3678.000000	97.079313 
3677.000000	97.053518 
3676.000000	97.031176 
3675.000000	97.012566 
3674.000000	96.995267 
3673.000000	96.976052 
3672.000000	96.955057 
3671.000000	96.937544 
3670.000000	96.927939 
3669.000000	96.923609 
3668.000000	96.918055 
3667.000000	96.908637 
3666.000000	96.898354 
3665.000000	96.890153 
3664.000000	96.882394 
3663.000000	96.871319 
3662.000000	96.854578 
3661.000000	96.832093 
3660.000000	96.805609 
3659.000000	96.777295 
3658.000000	96.749872 
3657.000000	96.725025 
3656.000000	96.702271 
3655.000000	96.679956 
3654.000000	96.655901 
3653.000000	96.628742 
3652.000000	96.598224 
3651.000000	96.564813 
3650.000000	96.529948 
3649.000000	96.497209 
3648.000000	96.472045 
3647.000000	96.457680 
3646.000000	96.452649 
3645.000000	96.452574 
3644.000000	96.453115 
3643.000000	96.451663 
3642.000000	96.446729 
3641.000000	96.437388 
3640.000000	96.423745 
3639.000000	96.406471 
3638.000000	96.386511 
3637.000000	96.364660 
3636.000000	96.341688 
3635.000000	96.317999 
3634.000000	96.293337 
3633.000000	96.267399 
3632.000000	96.240157 
3631.000000	96.212120 
3630.000000	96.184427 
3629.000000	96.159024 
3628.000000	96.137440 
3627.000000	96.120642 
3626.000000	96.109684 
3625.000000	96.106524 
3624.000000	96.112089 
3623.000000	96.123524 
3622.000000	96.134585 
3621.000000	96.138566 
3620.000000	96.131523 
3619.000000	96.115189 
3618.000000	96.096902 
3617.000000	96.085599 
3616.000000	96.087735 
3615.000000	96.103945 
3614.000000	96.127965 
3613.000000	96.150638 
3612.000000	96.166274 
3611.000000	96.174660 
3610.000000	96.178983 
3609.000000	96.183181 
3608.000000	96.189707 
3607.000000	96.199222 
3606.000000	96.211443 
3605.000000	96.226510 
3604.000000	96.244719 
3603.000000	96.264563 
3602.000000	96.282685 
3601.000000	96.295742 
3600.000000	96.302452 
3599.000000	96.304419 
3598.000000	96.305401 
3597.000000	96.309058 
3596.000000	96.317016 
3595.000000	96.326449 
3594.000000	96.331978 
3593.000000	96.331301 
3592.000000	96.326972 
3591.000000	96.323348 
3590.000000	96.323300 
3589.000000	96.326981 
3588.000000	96.332470 
3587.000000	96.337493 
3586.000000	96.341274 
3585.000000	96.345196 
3584.000000	96.351686 
3583.000000	96.361471 
3582.000000	96.372743 
3581.000000	96.382164 
3580.000000	96.387257 
3579.000000	96.387643 
3578.000000	96.384624 
3577.000000	96.380391 
3576.000000	96.377153 
3575.000000	96.376360 
3574.000000	96.377387 
3573.000000	96.377885 
3572.000000	96.375356 
3571.000000	96.368693 
3570.000000	96.358465 
3569.000000	96.346656 
3568.000000	96.336334 
3567.000000	96.330669 
3566.000000	96.330785 
3565.000000	96.335180 
3564.000000	96.341570 
3563.000000	96.348505 
3562.000000	96.355202 
3561.000000	96.360945 
3560.000000	96.364875 
3559.000000	96.366441 
3558.000000	96.365973 
3557.000000	96.364625 
3556.000000	96.363431 
3555.000000	96.362587 
3554.000000	96.361554 
3553.000000	96.359445 
3552.000000	96.355602 
3551.000000	96.350158 
3550.000000	96.344448 
3549.000000	96.340517 
3548.000000	96.339512 
3547.000000	96.340351 
3546.000000	96.340790 
3545.000000	96.340117 
3544.000000	96.339956 
3543.000000	96.341907 
3542.000000	96.345535 
3541.000000	96.349353 
3540.000000	96.352773 
3539.000000	96.356011 
3538.000000	96.358614 
3537.000000	96.359201 
3536.000000	96.357101 
3535.000000	96.353240 
3534.000000	96.349418 
3533.000000	96.347018 
3532.000000	96.346495 
3531.000000	96.347432 
3530.000000	96.348506 
3529.000000	96.347937 
3528.000000	96.344633 
3527.000000	96.339190 
3526.000000	96.333741 
3525.000000	96.330709 
3524.000000	96.331408 
3523.000000	96.335385 
3522.000000	96.340838 
3521.000000	96.346045 
3520.000000	96.350573 
3519.000000	96.354778 
3518.000000	96.358615 
3517.000000	96.361270 
3516.000000	96.362136 
3515.000000	96.361665 
3514.000000	96.360929 
3513.000000	96.360417 
3512.000000	96.359574 
3511.000000	96.357742 
3510.000000	96.355342 
3509.000000	96.353733 
3508.000000	96.353772 
3507.000000	96.354930 
3506.000000	96.356028 
3505.000000	96.356462 
3504.000000	96.356435 
3503.000000	96.356127 
3502.000000	96.355317 
3501.000000	96.354129 
3500.000000	96.353583 
3499.000000	96.354736 
3498.000000	96.357320 
3497.000000	96.359606 
3496.000000	96.359943 
3495.000000	96.358313 
3494.000000	96.356243 
3493.000000	96.355276 
3492.000000	96.355590 
3491.000000	96.356219 
3490.000000	96.356352 
3489.000000	96.356048 
3488.000000	96.355535 
3487.000000	96.354385 
3486.000000	96.352063 
3485.000000	96.349162 
3484.000000	96.347271 
3483.000000	96.347366 
3482.000000	96.348860 
3481.000000	96.350393 
3480.000000	96.351291 
3479.000000	96.351756 
3478.000000	96.351811 
3477.000000	96.350861 
3476.000000	96.348483 
3475.000000	96.345242 
3474.000000	96.342356 
3473.000000	96.340574 
3472.000000	96.339641 
3471.000000	96.338824 
3470.000000	96.337779 
3469.000000	96.336805 
3468.000000	96.336260 
3467.000000	96.335959 
3466.000000	96.335357 
3465.000000	96.334122 
3464.000000	96.332181 
3463.000000	96.329329 
3462.000000	96.325353 
3461.000000	96.320713 
3460.000000	96.316550 
3459.000000	96.313574 
3458.000000	96.311219 
3457.000000	96.308333 
3456.000000	96.304718 
3455.000000	96.301541 
3454.000000	96.300181 
3453.000000	96.300959 
3452.000000	96.303006 
3451.000000	96.305113 
3450.000000	96.306424 
3449.000000	96.306447 
3448.000000	96.304805 
3447.000000	96.301327 
3446.000000	96.296407 
3445.000000	96.291149 
3444.000000	96.286856 
3443.000000	96.284153 
3442.000000	96.282591 
3441.000000	96.281129 
3440.000000	96.279073 
3439.000000	96.276472 
3438.000000	96.273682 
3437.000000	96.270869 
3436.000000	96.268184 
3435.000000	96.266074 
3434.000000	96.265048 
3433.000000	96.265001 
3432.000000	96.265120 
3431.000000	96.264619 
3430.000000	96.263358 
3429.000000	96.261679 
3428.000000	96.259801 
3427.000000	96.257690 
3426.000000	96.255520 
3425.000000	96.253912 
3424.000000	96.253381 
3423.000000	96.253587 
3422.000000	96.253435 
3421.000000	96.252119 
3420.000000	96.249934 
3419.000000	96.247940 
3418.000000	96.246948 
3417.000000	96.246997 
3416.000000	96.247582 
3415.000000	96.248017 
3414.000000	96.247679 
3413.000000	96.246262 
3412.000000	96.244002 
3411.000000	96.241559 
3410.000000	96.239540 
3409.000000	96.238167 
3408.000000	96.237333 
3407.000000	96.236665 
3406.000000	96.235599 
3405.000000	96.233769 
3404.000000	96.231559 
3403.000000	96.229942 
3402.000000	96.229561 
3401.000000	96.230111 
3400.000000	96.230686 
3399.000000	96.230569 
3398.000000	96.229615 
3397.000000	96.228269 
3396.000000	96.227467 
3395.000000	96.228124 
3394.000000	96.230320 
3393.000000	96.232998 
3392.000000	96.234769 
3391.000000	96.235152 
3390.000000	96.234758 
3389.000000	96.234428 
3388.000000	96.234486 
3387.000000	96.234814 
3386.000000	96.235188 
3385.000000	96.235256 
3384.000000	96.234571 
3383.000000	96.233166 
3382.000000	96.231999 
3381.000000	96.232196 
3380.000000	96.233675 
3379.000000	96.234964 
3378.000000	96.234824 
3377.000000	96.233808 
3376.000000	96.233626 
3375.000000	96.235088 
3374.000000	96.237318 
3373.000000	96.238990 
3372.000000	96.239890 
3371.000000	96.240907 
3370.000000	96.242875 
3369.000000	96.245823 
3368.000000	96.249104 
3367.000000	96.251862 
3366.000000	96.253510 
3365.000000	96.254088 
3364.000000	96.254258 
3363.000000	96.254801 
3362.000000	96.256010 
3361.000000	96.257623 
3360.000000	96.259264 
3359.000000	96.260812 
3358.000000	96.262314 
3357.000000	96.263704 
3356.000000	96.264793 
3355.000000	96.265617 
3354.000000	96.266684 
3353.000000	96.268659 
3352.000000	96.271701 
3351.000000	96.275150 
3350.000000	96.278023 
3349.000000	96.279869 
3348.000000	96.281102 
3347.000000	96.282555 
3346.000000	96.284737 
3345.000000	96.287462 
3344.000000	96.290033 
3343.000000	96.291807 
3342.000000	96.292680 
3341.000000	96.293171 
3340.000000	96.293942 
3339.000000	96.295202 
3338.000000	96.296761 
3337.000000	96.298491 
3336.000000	96.300483 
3335.000000	96.302761 
3334.000000	96.305082 
3333.000000	96.307165 
3332.000000	96.308929 
3331.000000	96.310411 
3330.000000	96.311625 
3329.000000	96.312694 
3328.000000	96.314002 
3327.000000	96.315943 
3326.000000	96.318473 
3325.000000	96.320995 
3324.000000	96.322796 
3323.000000	96.323561 
3322.000000	96.323512 
3321.000000	96.323203 
3320.000000	96.323230 
3319.000000	96.324041 
3318.000000	96.325864 
3317.000000	96.328635 
3316.000000	96.331891 
3315.000000	96.334897 
3314.000000	96.337149 
3313.000000	96.338844 
3312.000000	96.340740 
3311.000000	96.343480 
3310.000000	96.347107 
3309.000000	96.351158 
3308.000000	96.355019 
3307.000000	96.358098 
3306.000000	96.359963 
3305.000000	96.360619 
3304.000000	96.360739 
3303.000000	96.361390 
3302.000000	96.363219 
3301.000000	96.365956 
3300.000000	96.368664 
3299.000000	96.370503 
3298.000000	96.371352 
3297.000000	96.371821 
3296.000000	96.372762 
3295.000000	96.374652 
3294.000000	96.377398 
3293.000000	96.380569 
3292.000000	96.383737 
3291.000000	96.386675 
3290.000000	96.389290 
3289.000000	96.391553 
3288.000000	96.393529 
3287.000000	96.395393 
3286.000000	96.397290 
3285.000000	96.399187 
3284.000000	96.400973 
3283.000000	96.402707 
3282.000000	96.404651 
3281.000000	96.406962 
3280.000000	96.409462 
3279.000000	96.411843 
3278.000000	96.414070 
3277.000000	96.416388 
3276.000000	96.418936 
3275.000000	96.421555 
3274.000000	96.424025 
3273.000000	96.426360 
3272.000000	96.428756 
3271.000000	96.431319 
3270.000000	96.433960 
3269.000000	96.436512 
3268.000000	96.438891 
3267.000000	96.441150 
3266.000000	96.443448 
3265.000000	96.445911 
3264.000000	96.448536 
3263.000000	96.451207 
3262.000000	96.453794 
3261.000000	96.456266 
3260.000000	96.458677 
3259.000000	96.461093 
3258.000000	96.463528 
3257.000000	96.465993 
3256.000000	96.468522 
3255.000000	96.471114 
3254.000000	96.473712 
3253.000000	96.476267 
3252.000000	96.478796 
3251.000000	96.481348 
3250.000000	96.483942 
3249.000000	96.486552 
3248.000000	96.489142 
3247.000000	96.491703 
3246.000000	96.494257 
3245.000000	96.496839 
3244.000000	96.499458 
3243.000000	96.502097 
3242.000000	96.504736 
3241.000000	96.507377 
3240.000000	96.510039 
3239.000000	96.512736 
3238.000000	96.515470 
3237.000000	96.518241 
3236.000000	96.521050 
3235.000000	96.523879 
3234.000000	96.526685 
3233.000000	96.529429 
3232.000000	96.532101 
3231.000000	96.534722 
3230.000000	96.537353 
3229.000000	96.540033 
3228.000000	96.542770 
3227.000000	96.545552 
3226.000000	96.548379 
3225.000000	96.551252 
3224.000000	96.554145 
3223.000000	96.557009 
3222.000000	96.559822 
3221.000000	96.562609 
3220.000000	96.565417 
3219.000000	96.568260 
3218.000000	96.571113 
3217.000000	96.573947 
3216.000000	96.576764 
3215.000000	96.579598 
3214.000000	96.582480 
3213.000000	96.585410 
3212.000000	96.588349 
3211.000000	96.591260 
3210.000000	96.594135 
3209.000000	96.597000 
3208.000000	96.599881 
3207.000000	96.602779 
3206.000000	96.605695 
3205.000000	96.608650 
3204.000000	96.611666 
3203.000000	96.614730 
3202.000000	96.617804 
3201.000000	96.620854 
3200.000000	96.623874 
3199.000000	96.626879 
3198.000000	96.629881 
3197.000000	96.632885 
3196.000000	96.635887 
3195.000000	96.638888 
3194.000000	96.641889 
3193.000000	96.644900 
3192.000000	96.647926 
3191.000000	96.650969 
3190.000000	96.654026 
3189.000000	96.657090 
3188.000000	96.660150 
3187.000000	96.663200 
3186.000000	96.666242 
3185.000000	96.669283 
3184.000000	96.672322 
3183.000000	96.675355 
3182.000000	96.678377 
3181.000000	96.681388 
3180.000000	96.684394 
3179.000000	96.687398 
3178.000000	96.690400 
3177.000000	96.693402 
3176.000000	96.696405 
3175.000000	96.699410 
3174.000000	96.702415 
3173.000000	96.705409 
3172.000000	96.708383 
3171.000000	96.711330 
3170.000000	96.714255 
3169.000000	96.717166 
3168.000000	96.720069 
3167.000000	96.722967 
3166.000000	96.725857 
3165.000000	96.728737 
3164.000000	96.731608 
3163.000000	96.734468 
3162.000000	96.737311 
3161.000000	96.740136 
3160.000000	96.742945 
3159.000000	96.745744 
3158.000000	96.748538 
3157.000000	96.751331 
3156.000000	96.754122 
3155.000000	96.756910 
3154.000000	96.759691 
3153.000000	96.762465 
3152.000000	96.765230 
3151.000000	96.767984 
3150.000000	96.770725 
3149.000000	96.773455 
3148.000000	96.776179 
3147.000000	96.778906 
3146.000000	96.781641 
3145.000000	96.784388 
3144.000000	96.787140 
3143.000000	96.789882 
3142.000000	96.792601 
3141.000000	96.795289 
3140.000000	96.797952 
3139.000000	96.800599 
3138.000000	96.803236 
3137.000000	96.805870 
3136.000000	96.808507 
3135.000000	96.811133 
3134.000000	96.813724 
3133.000000	96.816265 
3132.000000	96.818799 
3131.000000	96.821378 
3130.000000	96.824005 
3129.000000	96.826630 
3128.000000	96.829246 
3127.000000	96.831908 
3126.000000	96.834658 
3125.000000	96.837447 
3124.000000	96.840171 
3123.000000	96.842759 
3122.000000	96.845226 
3121.000000	96.847659 
3120.000000	96.850154 
3119.000000	96.852738 
3118.000000	96.855376 
3117.000000	96.858046 
3116.000000	96.860767 
3115.000000	96.863493 
3114.000000	96.866077 
3113.000000	96.868434 
3112.000000	96.870704 
3111.000000	96.873134 
3110.000000	96.875771 
3109.000000	96.878383 
3108.000000	96.880729 
3107.000000	96.882836 
3106.000000	96.884955 
3105.000000	96.887248 
3104.000000	96.889620 
3103.000000	96.891860 
3102.000000	96.893868 
3101.000000	96.895710 
3100.000000	96.897509 
3099.000000	96.899364 
3098.000000	96.901359 
3097.000000	96.903563 
3096.000000	96.905950 
3095.000000	96.908363 
3094.000000	96.910652 
3093.000000	96.912807 
3092.000000	96.914904 
3091.000000	96.916969 
3090.000000	96.918969 
3089.000000	96.920907 
3088.000000	96.922830 
3087.000000	96.924782 
3086.000000	96.926760 
3085.000000	96.928723 
3084.000000	96.930633 
3083.000000	96.932493 
3082.000000	96.934331 
3081.000000	96.936168 
3080.000000	96.938011 
3079.000000	96.939854 
3078.000000	96.941669 
3077.000000	96.943434 
3076.000000	96.945163 
3075.000000	96.946892 
3074.000000	96.948615 
3073.000000	96.950281 
3072.000000	96.951876 
3071.000000	96.953467 
3070.000000	96.955122 
3069.000000	96.956822 
3068.000000	96.958495 
3067.000000	96.960097 
3066.000000	96.961617 
3065.000000	96.963030 
3064.000000	96.964310 
3063.000000	96.965468 
3062.000000	96.966545 
3061.000000	96.967600 
3060.000000	96.968716 
3059.000000	96.969987 
3058.000000	96.971477 
3057.000000	96.973192 
3056.000000	96.975019 
3055.000000	96.976657 
3054.000000	96.977757 
3053.000000	96.978243 
3052.000000	96.978542 
3051.000000	96.979322 
3050.000000	96.980875 
3049.000000	96.982865 
3048.000000	96.984611 
3047.000000	96.985632 
3046.000000	96.985846 
3045.000000	96.985509 
3044.000000	96.985156 
3043.000000	96.985455 
3042.000000	96.986844 
3041.000000	96.989104 
3040.000000	96.991293 
3039.000000	96.992432 
3038.000000	96.992332 
3037.000000	96.991693 
3036.000000	96.991282 
3035.000000	96.991055 
3034.000000	96.990457 
3033.000000	96.989387 
3032.000000	96.988377 
3031.000000	96.987799 
3030.000000	96.987421 
3029.000000	96.987010 
3028.000000	96.986846 
3027.000000	96.987096 
3026.000000	96.987060 
3025.000000	96.985835 
3024.000000	96.983673 
3023.000000	96.981963 
3022.000000	96.981653 
3021.000000	96.982407 
3020.000000	96.983473 
3019.000000	96.984571 
3018.000000	96.985461 
3017.000000	96.985323 
3016.000000	96.983425 
3015.000000	96.980215 
3014.000000	96.977251 
3013.000000	96.975903 
3012.000000	96.976158 
3011.000000	96.976546 
3010.000000	96.975289 
3009.000000	96.971824 
3008.000000	96.967297 
3007.000000	96.963404 
3006.000000	96.960766 
3005.000000	96.958935 
3004.000000	96.957606 
3003.000000	96.957069 
3002.000000	96.957526 
3001.000000	96.958755 
3000.000000	96.960487 
2999.000000	96.962291 
2998.000000	96.963026 
2997.000000	96.961437 
2996.000000	96.957723 
2995.000000	96.953764 
2994.000000	96.951213 
2993.000000	96.949968 
2992.000000	96.948845 
2991.000000	96.947094 
2990.000000	96.944807 
2989.000000	96.942459 
2988.000000	96.940729 
2987.000000	96.940396 
2986.000000	96.941850 
2985.000000	96.944877 
2984.000000	96.949082 
2983.000000	96.954111 
2982.000000	96.959231 
2981.000000	96.963223 
2980.000000	96.965061 
2979.000000	96.964435 
2978.000000	96.961593 
2977.000000	96.957323 
2976.000000	96.953246 
2975.000000	96.951317 
2974.000000	96.952532 
2973.000000	96.956467 
2972.000000	96.962130 
2971.000000	96.968573 
2970.000000	96.974434 
2969.000000	96.978015 
2968.000000	96.978764 
2967.000000	96.978168 
2966.000000	96.978442 
2965.000000	96.980631 
2964.000000	96.984397 
2963.000000	96.988966 
2962.000000	96.993541 
2961.000000	96.997361 
2960.000000	97.000320 
2959.000000	97.003354 
2958.000000	97.007501 
2957.000000	97.012738 
2956.000000	97.018189 
2955.000000	97.023020 
2954.000000	97.026508 
2953.000000	97.027944 
2952.000000	97.027634 
2951.000000	97.027713 
2950.000000	97.030515 
2949.000000	97.035771 
2948.000000	97.040566 
2947.000000	97.042534 
2946.000000	97.042200 
2945.000000	97.041749 
2944.000000	97.042250 
2943.000000	97.042872 
2942.000000	97.042542 
2941.000000	97.041417 
2940.000000	97.040671 
2939.000000	97.041362 
2938.000000	97.043635 
2937.000000	97.046757 
2936.000000	97.049730 
2935.000000	97.051888 
2934.000000	97.052984 
2933.000000	97.052993 
2932.000000	97.052232 
2931.000000	97.051618 
2930.000000	97.052235 
2929.000000	97.054312 
2928.000000	97.056879 
2927.000000	97.058719 
2926.000000	97.059457 
2925.000000	97.059516 
2924.000000	97.059374 
2923.000000	97.059296 
2922.000000	97.059638 
2921.000000	97.060921 
2920.000000	97.063488 
2919.000000	97.067193 
2918.000000	97.071269 
2917.000000	97.074417 
2916.000000	97.075393 
2915.000000	97.073890 
2914.000000	97.070870 
2913.000000	97.067814 
2912.000000	97.065598 
2911.000000	97.064240 
2910.000000	97.063469 
2909.000000	97.063109 
2908.000000	97.063125 
2907.000000	97.063721 
2906.000000	97.065287 
2905.000000	97.067719 
2904.000000	97.069922 
2903.000000	97.070538 
2902.000000	97.069878 
2901.000000	97.069800 
2900.000000	97.071671 
2899.000000	97.074913 
2898.000000	97.077830 
2897.000000	97.079758 
2896.000000	97.081357 
2895.000000	97.083035 
2894.000000	97.084257 
2893.000000	97.084769 
2892.000000	97.085618 
2891.000000	97.088140 
2890.000000	97.092330 
2889.000000	97.096894 
2888.000000	97.100705 
2887.000000	97.103495 
2886.000000	97.105120 
2885.000000	97.105216 
2884.000000	97.104174 
2883.000000	97.103692 
2882.000000	97.105375 
2881.000000	97.109083 
2880.000000	97.113359 
2879.000000	97.117432 
2878.000000	97.121858 
2877.000000	97.127018 
2876.000000	97.131997 
2875.000000	97.135543 
2874.000000	97.137469 
2873.000000	97.138572 
2872.000000	97.139614 
2871.000000	97.140902 
2870.000000	97.142538 
2869.000000	97.144462 
2868.000000	97.146416 
2867.000000	97.148262 
2866.000000	97.150189 
2865.000000	97.152307 
2864.000000	97.154395 
2863.000000	97.156425 
2862.000000	97.158925 
2861.000000	97.162236 
2860.000000	97.165737 
2859.000000	97.168466 
2858.000000	97.170417 
2857.000000	97.172538 
2856.000000	97.175466 
2855.000000	97.178759 
2854.000000	97.181543 
2853.000000	97.183578 
2852.000000	97.185296 
2851.000000	97.187113 
2850.000000	97.189026 
2849.000000	97.190881 
2848.000000	97.192663 
2847.000000	97.194451 
2846.000000	97.196268 
2845.000000	97.198063 
2844.000000	97.199791 
2843.000000	97.201496 
2842.000000	97.203270 
2841.000000	97.205119 
2840.000000	97.206944 
2839.000000	97.208667 
2838.000000	97.210321 
2837.000000	97.211969 
2836.000000	97.213629 
2835.000000	97.215271 
2834.000000	97.216884 
2833.000000	97.218479 
2832.000000	97.220066 
2831.000000	97.221648 
2830.000000	97.223215 
2829.000000	97.224757 
2828.000000	97.226272 
2827.000000	97.227766 
2826.000000	97.229245 
2825.000000	97.230711 
2824.000000	97.232158 
2823.000000	97.233576 
2822.000000	97.234956 
2821.000000	97.236298 
2820.000000	97.237605 
2819.000000	97.238885 
2818.000000	97.240142 
2817.000000	97.241381 
2816.000000	97.242609 
2815.000000	97.243828 
2814.000000	97.245041 
2813.000000	97.246247 
2812.000000	97.247447 
2811.000000	97.248644 
2810.000000	97.249840 
2809.000000	97.251042 
2808.000000	97.252256 
2807.000000	97.253486 
2806.000000	97.254730 
2805.000000	97.255981 
2804.000000	97.257229 
2803.000000	97.258471 
2802.000000	97.259707 
2801.000000	97.260937 
2800.000000	97.262161 
2799.000000	97.263376 
2798.000000	97.264583 
2797.000000	97.265780 
2796.000000	97.266967 
2795.000000	97.268139 
2794.000000	97.269297 
2793.000000	97.270455 
2792.000000	97.271624 
2791.000000	97.272812 
2790.000000	97.274004 
2789.000000	97.275175 
2788.000000	97.276303 
2787.000000	97.277405 
2786.000000	97.278530 
2785.000000	97.279704 
2784.000000	97.280894 
2783.000000	97.282073 
2782.000000	97.283243 
2781.000000	97.284408 
2780.000000	97.285546 
2779.000000	97.286654 
2778.000000	97.287770 
2777.000000	97.288933 
2776.000000	97.290116 
2775.000000	97.291252 
2774.000000	97.292326 
2773.000000	97.293397 
2772.000000	97.294503 
2771.000000	97.295614 
2770.000000	97.296693 
2769.000000	97.297781 
2768.000000	97.298947 
2767.000000	97.300183 
2766.000000	97.301393 
2765.000000	97.302493 
2764.000000	97.303482 
2763.000000	97.304416 
2762.000000	97.305339 
2761.000000	97.306245 
2760.000000	97.307124 
2759.000000	97.307990 
2758.000000	97.308868 
2757.000000	97.309751 
2756.000000	97.310594 
2755.000000	97.311389 
2754.000000	97.312169 
2753.000000	97.312975 
2752.000000	97.313801 
2751.000000	97.314622 
2750.000000	97.315414 
2749.000000	97.316177 
2748.000000	97.316914 
2747.000000	97.317623 
2746.000000	97.318307 
2745.000000	97.318973 
2744.000000	97.319628 
2743.000000	97.320279 
2742.000000	97.320926 
2741.000000	97.321565 
2740.000000	97.322195 
2739.000000	97.322822 
2738.000000	97.323452 
2737.000000	97.324083 
2736.000000	97.324712 
2735.000000	97.325338 
2734.000000	97.325959 
2733.000000	97.326577 
2732.000000	97.327191 
2731.000000	97.327800 
2730.000000	97.328400 
2729.000000	97.328992 
2728.000000	97.329574 
2727.000000	97.330144 
2726.000000	97.330702 
2725.000000	97.331251 
2724.000000	97.331797 
2723.000000	97.332347 
2722.000000	97.332903 
2721.000000	97.333461 
2720.000000	97.334019 
2719.000000	97.334579 
2718.000000	97.335141 
2717.000000	97.335706 
2716.000000	97.336270 
2715.000000	97.336834 
2714.000000	97.337400 
2713.000000	97.337971 
2712.000000	97.338544 
2711.000000	97.339120 
2710.000000	97.339676 
2709.000000	97.340203 
2708.000000	97.340726 
2707.000000	97.341272 
2706.000000	97.341855 
2705.000000	97.342493 
2704.000000	97.343203 
2703.000000	97.343929 
2702.000000	97.344531 
2701.000000	97.344927 
2700.000000	97.345280 
2699.000000	97.345909 
2698.000000	97.346940 
2697.000000	97.348057 
2696.000000	97.348739 
2695.000000	97.348809 
2694.000000	97.348597 
2693.000000	97.348571 
2692.000000	97.348791 
2691.000000	97.348986 
2690.000000	97.349018 
2689.000000	97.349038 
2688.000000	97.349146 
2687.000000	97.349176 
2686.000000	97.349053 
2685.000000	97.349134 
2684.000000	97.349860 
2683.000000	97.351061 
2682.000000	97.351896 
2681.000000	97.351714 
2680.000000	97.350777 
2679.000000	97.350078 
2678.000000	97.350382 
2677.000000	97.351591 
2676.000000	97.352887 
2675.000000	97.353416 
2674.000000	97.352888 
2673.000000	97.351694 
2672.000000	97.350498 
2671.000000	97.349601 
2670.000000	97.348860 
2669.000000	97.348174 
2668.000000	97.347730 
2667.000000	97.347553 
2666.000000	97.347103 
2665.000000	97.345764 
2664.000000	97.343672 
2663.000000	97.341709 
2662.000000	97.340553 
2661.000000	97.339991 
2660.000000	97.339358 
2659.000000	97.338364 
2658.000000	97.337253 
2657.000000	97.336331 
2656.000000	97.335652 
2655.000000	97.335084 
2654.000000	97.334392 
2653.000000	97.333291 
2652.000000	97.331699 
2651.000000	97.330009 
2650.000000	97.328862 
2649.000000	97.328546 
2648.000000	97.328738 
2647.000000	97.328856 
2646.000000	97.328418 
2645.000000	97.327084 
2644.000000	97.324771 
2643.000000	97.322041 
2642.000000	97.320018 
2641.000000	97.319388 
2640.000000	97.319634 
2639.000000	97.319606 
2638.000000	97.318895 
2637.000000	97.318158 
2636.000000	97.318092 
2635.000000	97.318652 
2634.000000	97.319329 
2633.000000	97.319740 
2632.000000	97.319679 
2631.000000	97.318986 
2630.000000	97.317767 
2629.000000	97.316528 
2628.000000	97.315790 
2627.000000	97.315631 
2626.000000	97.315814 
2625.000000	97.316223 
2624.000000	97.316931 
2623.000000	97.317871 
2622.000000	97.318648 
2621.000000	97.318758 
2620.000000	97.317937 
2619.000000	97.316318 
2618.000000	97.314431 
2617.000000	97.312960 
2616.000000	97.312275 
2615.000000	97.312205 
2614.000000	97.312278 
2613.000000	97.312164 
2612.000000	97.311881 
2611.000000	97.311656 
2610.000000	97.311717 
2609.000000	97.312144 
2608.000000	97.312748 
2607.000000	97.313146 
2606.000000	97.313105 
2605.000000	97.312757 
2604.000000	97.312368 
2603.000000	97.312017 
2602.000000	97.311681 
2601.000000	97.311508 
2600.000000	97.311693 
2599.000000	97.312105 
2598.000000	97.312293 
2597.000000	97.311974 
2596.000000	97.311279 
2595.000000	97.310525 
2594.000000	97.309878 
2593.000000	97.309450 
2592.000000	97.309563 
2591.000000	97.310485 
2590.000000	97.311902 
2589.000000	97.312973 
2588.000000	97.313188 
2587.000000	97.312885 
2586.000000	97.312851 
2585.000000	97.313487 
2584.000000	97.314503 
2583.000000	97.315269 
2582.000000	97.315351 
2581.000000	97.314779 
2580.000000	97.314017 
2579.000000	97.313641 
2578.000000	97.313905 
2577.000000	97.314556 
2576.000000	97.315036 
2575.000000	97.314883 
2574.000000	97.314038 
2573.000000	97.312882 
2572.000000	97.311947 
2571.000000	97.311435 
2570.000000	97.311078 
2569.000000	97.310631 
2568.000000	97.310434 
2567.000000	97.311127 
2566.000000	97.312681 
2565.000000	97.314046 
2564.000000	97.314091 
2563.000000	97.312798 
2562.000000	97.311366 
2561.000000	97.311186 
2560.000000	97.312911 
2559.000000	97.316356 
2558.000000	97.320702 
2557.000000	97.324698 
2556.000000	97.327210 
2555.000000	97.327876 
2554.000000	97.327233 
2553.000000	97.326050 
2552.000000	97.324675 
2551.000000	97.323371 
2550.000000	97.322775 
2549.000000	97.323250 
2548.000000	97.323987 
2547.000000	97.323624 
2546.000000	97.321960 
2545.000000	97.320268 
2544.000000	97.319509 
2543.000000	97.319081 
2542.000000	97.318029 
2541.000000	97.316840 
2540.000000	97.316966 
2539.000000	97.318767 
2538.000000	97.320932 
2537.000000	97.322141 
2536.000000	97.322582 
2535.000000	97.323298 
2534.000000	97.324539 
2533.000000	97.325436 
2532.000000	97.325192 
2531.000000	97.324028 
2530.000000	97.322769 
2529.000000	97.321900 
2528.000000	97.321341 
2527.000000	97.321006 
2526.000000	97.321151 
2525.000000	97.322041 
2524.000000	97.323530 
2523.000000	97.325188 
2522.000000	97.326686 
2521.000000	97.327784 
2520.000000	97.328139 
2519.000000	97.327524 
2518.000000	97.326216 
2517.000000	97.324837 
2516.000000	97.323657 
2515.000000	97.322441 
2514.000000	97.321154 
2513.000000	97.320379 
2512.000000	97.320689 
2511.000000	97.321965 
2510.000000	97.323566 
2509.000000	97.324913 
2508.000000	97.325732 
2507.000000	97.325971 
2506.000000	97.325873 
2505.000000	97.326001 
2504.000000	97.326770 
2503.000000	97.327981 
2502.000000	97.328967 
2501.000000	97.329327 
2500.000000	97.329239 
2499.000000	97.329130 
2498.000000	97.329226 
2497.000000	97.329485 
2496.000000	97.329829 
2495.000000	97.330234 
2494.000000	97.330626 
2493.000000	97.330868 
2492.000000	97.330902 
2491.000000	97.330852 
2490.000000	97.330948 
2489.000000	97.331297 
2488.000000	97.331765 
2487.000000	97.332108 
2486.000000	97.332264 
2485.000000	97.332415 
2484.000000	97.332745 
2483.000000	97.333178 
2482.000000	97.333470 
2481.000000	97.333513 
2480.000000	97.333442 
2479.000000	97.333439 
2478.000000	97.333576 
2477.000000	97.333849 
2476.000000	97.334196 
2475.000000	97.334445 
2474.000000	97.334396 
2473.000000	97.334018 
2472.000000	97.333469 
2471.000000	97.332926 
2470.000000	97.332552 
2469.000000	97.332616 
2468.000000	97.333341 
2467.000000	97.334556 
2466.000000	97.335736 
2465.000000	97.336449 
2464.000000	97.336610 
2463.000000	97.336346 
2462.000000	97.335950 
2461.000000	97.335983 
2460.000000	97.336948 
2459.000000	97.338607 
2458.000000	97.339864 
2457.000000	97.339751 
2456.000000	97.338243 
2455.000000	97.336192 
2454.000000	97.334610 
2453.000000	97.333919 
2452.000000	97.333840 
2451.000000	97.333856 
2450.000000	97.333902 
2449.000000	97.334405 
2448.000000	97.335472 
2447.000000	97.336474 
2446.000000	97.336874 
2445.000000	97.337117 
2444.000000	97.337956 
2443.000000	97.339229 
2442.000000	97.340109 
2441.000000	97.340440 
2440.000000	97.340955 
2439.000000	97.342159 
2438.000000	97.343798 
2437.000000	97.345529 
2436.000000	97.347367 
2435.000000	97.349231 
2434.000000	97.350685 
2433.000000	97.351425 
2432.000000	97.351632 
2431.000000	97.351754 
2430.000000	97.352249 
2429.000000	97.353461 
2428.000000	97.355349 
2427.000000	97.357229 
2426.000000	97.358218 
2425.000000	97.358025 
2424.000000	97.357257 
2423.000000	97.356838 
2422.000000	97.357046 
2421.000000	97.357725 
2420.000000	97.359079 
2419.000000	97.361476 
2418.000000	97.364562 
2417.000000	97.367355 
2416.000000	97.369347 
2415.000000	97.370834 
2414.000000	97.372004 
2413.000000	97.372746 
2412.000000	97.373412 
2411.000000	97.374426 
2410.000000	97.375359 
2409.000000	97.375822 
2408.000000	97.376725 
2407.000000	97.379082 
2406.000000	97.382074 
2405.000000	97.383816 
2404.000000	97.383678 
2403.000000	97.382448 
2402.000000	97.380843 
2401.000000	97.379477 
2400.000000	97.379724 
2399.000000	97.382724 
2398.000000	97.387558 
2397.000000	97.392033 
2396.000000	97.395168 
2395.000000	97.397404 
2394.000000	97.398753 
2393.000000	97.398615 
2392.000000	97.397496 
2391.000000	97.397046 
2390.000000	97.397919 
2389.000000	97.398946 
2388.000000	97.398702 
2387.000000	97.396636 
2386.000000	97.392707 
2385.000000	97.387584 
2384.000000	97.383565 
2383.000000	97.383634 
2382.000000	97.389093 
2381.000000	97.399255 
2380.000000	97.413461 
2379.000000	97.431430 
2378.000000	97.450444 
2377.000000	97.464475 
2376.000000	97.468821 
2375.000000	97.464624 
2374.000000	97.456876 
2373.000000	97.448147 
2372.000000	97.437377 
2371.000000	97.425442 
2370.000000	97.417630 
2369.000000	97.417954 
2368.000000	97.423282 
2367.000000	97.426030 
2366.000000	97.422606 
2365.000000	97.416665 
2364.000000	97.413472 
2363.000000	97.413821 
2362.000000	97.415951 
2361.000000	97.419103 
2360.000000	97.421282 
2359.000000	97.419470 
2358.000000	97.413361 
2357.000000	97.408259 
2356.000000	97.409058 
2355.000000	97.413968 
2354.000000	97.418342 
2353.000000	97.418328 
2352.000000	97.414310 
2351.000000	97.408411 
2350.000000	97.401301 
2349.000000	97.394565 
2348.000000	97.390255 
2347.000000	97.389726 
2346.000000	97.387664 
2345.000000	97.379411 
2344.000000	97.368801 
2343.000000	97.361787 
2342.000000	97.363305 
2341.000000	97.373508 
2340.000000	97.388150 
2339.000000	97.398685 
2338.000000	97.400035 
2337.000000	97.394529 
2336.000000	97.388667 
2335.000000	97.384955 
2334.000000	97.382010 
2333.000000	97.376534 
2332.000000	97.368185 
2331.000000	97.357724 
2330.000000	97.344143 
2329.000000	97.326514 
2328.000000	97.303612 
2327.000000	97.279300 
2326.000000	97.257399 
2325.000000	97.241022 
2324.000000	97.232523 
2323.000000	97.231499 
2322.000000	97.235009 
2321.000000	97.236320 
2320.000000	97.234330 
2319.000000	97.233469 
2318.000000	97.238548 
2317.000000	97.248091 
2316.000000	97.257272 
2315.000000	97.262948 
2314.000000	97.264204 
2313.000000	97.261179 
2312.000000	97.254628 
2311.000000	97.247478 
2310.000000	97.242144 
2309.000000	97.238958 
2308.000000	97.237109 
2307.000000	97.237068 
2306.000000	97.239112 
2305.000000	97.241220 
2304.000000	97.241188 
2303.000000	97.239506 
2302.000000	97.238980 
2301.000000	97.241067 
2300.000000	97.244437 
2299.000000	97.246324 
2298.000000	97.244083 
2297.000000	97.237379 
2296.000000	97.229099 
2295.000000	97.224725 
2294.000000	97.227250 
2293.000000	97.234695 
2292.000000	97.242049 
2291.000000	97.246602 
2290.000000	97.249338 
2289.000000	97.252102 
2288.000000	97.254863 
2287.000000	97.256386 
2286.000000	97.256431 
2285.000000	97.256371 
2284.000000	97.257992 
2283.000000	97.261704 
2282.000000	97.266222 
2281.000000	97.269730 
2280.000000	97.271493 
2279.000000	97.271790 
2278.000000	97.271035 
2277.000000	97.269442 
2276.000000	97.267676 
2275.000000	97.267021 
2274.000000	97.268552 
2273.000000	97.272550 
2272.000000	97.278481 
2271.000000	97.285086 
2270.000000	97.290456 
2269.000000	97.293162 
2268.000000	97.293633 
2267.000000	97.293776 
2266.000000	97.294834 
2265.000000	97.296312 
2264.000000	97.296840 
2263.000000	97.295321 
2262.000000	97.291174 
2261.000000	97.284931 
2260.000000	97.278919 
2259.000000	97.275657 
2258.000000	97.275491 
2257.000000	97.276753 
2256.000000	97.278487 
2255.000000	97.281281 
2254.000000	97.284990 
2253.000000	97.287479 
2252.000000	97.286854 
2251.000000	97.283430 
2250.000000	97.278618 
2249.000000	97.273179 
2248.000000	97.267897 
2247.000000	97.264556 
2246.000000	97.264249 
2245.000000	97.265421 
2244.000000	97.264941 
2243.000000	97.261592 
2242.000000	97.257276 
2241.000000	97.254701 
2240.000000	97.254575 
2239.000000	97.255645 
2238.000000	97.256541 
2237.000000	97.257018 
2236.000000	97.257459 
2235.000000	97.257842 
2234.000000	97.257620 
2233.000000	97.256511 
2232.000000	97.255091 
2231.000000	97.254240 
2230.000000	97.254051 
2229.000000	97.253721 
2228.000000	97.252678 
2227.000000	97.251329 
2226.000000	97.250403 
2225.000000	97.249927 
2224.000000	97.249267 
2223.000000	97.248105 
2222.000000	97.246879 
2221.000000	97.246140 
2220.000000	97.245742 
2219.000000	97.245088 
2218.000000	97.243869 
2217.000000	97.242320 
2216.000000	97.241004 
2215.000000	97.240287 
2214.000000	97.240061 
2213.000000	97.239793 
2212.000000	97.239046 
2211.000000	97.237906 
2210.000000	97.236831 
2209.000000	97.236100 
2208.000000	97.235597 
2207.000000	97.235156 
2206.000000	97.234900 
2205.000000	97.235117 
2204.000000	97.235941 
2203.000000	97.237122 
2202.000000	97.238271 
2201.000000	97.239104 
2200.000000	97.239244 
2199.000000	97.238213 
2198.000000	97.235959 
2197.000000	97.233371 
2196.000000	97.231674 
2195.000000	97.231223 
2194.000000	97.231335 
2193.000000	97.231370 
2192.000000	97.231406 
2191.000000	97.231545 
2190.000000	97.231199 
2189.000000	97.229850 
2188.000000	97.228075 
2187.000000	97.226790 
2186.000000	97.225678 
2185.000000	97.223705 
2184.000000	97.221598 
2183.000000	97.222272 
2182.000000	97.227540 
2181.000000	97.235078 
2180.000000	97.239812 
2179.000000	97.238895 
2178.000000	97.233943 
2177.000000	97.229114 
2176.000000	97.227236 
2175.000000	97.228225 
2174.000000	97.230652 
2173.000000	97.233931 
2172.000000	97.238806 
2171.000000	97.245915 
2170.000000	97.254019 
2169.000000	97.259937 
2168.000000	97.260988 
2167.000000	97.257433 
2166.000000	97.251851 
2165.000000	97.245930 
2164.000000	97.239196 
2163.000000	97.232257 
2162.000000	97.229884 
2161.000000	97.237749 
2160.000000	97.256036 
2159.000000	97.277608 
2158.000000	97.294236 
2157.000000	97.303804 
2156.000000	97.308927 
2155.000000	97.311758 
2154.000000	97.313084 
2153.000000	97.314852 
2152.000000	97.319378 
2151.000000	97.325288 
2150.000000	97.327550 
2149.000000	97.323694 
2148.000000	97.317960 
2147.000000	97.316760 
2146.000000	97.321244 
2145.000000	97.327440 
2144.000000	97.332922 
2143.000000	97.339666 
2142.000000	97.349293 
2141.000000	97.359039 
2140.000000	97.365062 
2139.000000	97.368039 
2138.000000	97.372675 
2137.000000	97.381696 
2136.000000	97.392151 
2135.000000	97.398101 
2134.000000	97.396164 
2133.000000	97.388670 
2132.000000	97.381986 
2131.000000	97.380738 
2130.000000	97.383803 
2129.000000	97.386474 
2128.000000	97.386009 
2127.000000	97.383772 
2126.000000	97.382098 
2125.000000	97.381195 
2124.000000	97.380213 
2123.000000	97.379364 
2122.000000	97.378986 
2121.000000	97.377554 
2120.000000	97.372886 
2119.000000	97.365478 
2118.000000	97.359110 
2117.000000	97.357099 
2116.000000	97.358466 
2115.000000	97.358481 
2114.000000	97.353125 
2113.000000	97.343534 
2112.000000	97.335772 
2111.000000	97.335246 
2110.000000	97.341513 
2109.000000	97.349014 
2108.000000	97.353106 
2107.000000	97.354276 
2106.000000	97.355600 
2105.000000	97.358374 
2104.000000	97.361846 
2103.000000	97.365247 
2102.000000	97.367687 
2101.000000	97.367066 
2100.000000	97.361912 
2099.000000	97.354684 
2098.000000	97.350956 
2097.000000	97.354125 
2096.000000	97.362482 
2095.000000	97.371252 
2094.000000	97.376692 
2093.000000	97.377992 
2092.000000	97.376325 
2091.000000	97.373688 
2090.000000	97.371965 
2089.000000	97.371779 
2088.000000	97.372082 
2087.000000	97.371366 
2086.000000	97.369301 
2085.000000	97.366933 
2084.000000	97.365395 
2083.000000	97.364821 
2082.000000	97.364680 
2081.000000	97.364883 
2080.000000	97.366137 
2079.000000	97.368913 
2078.000000	97.372250 
2077.000000	97.374228 
2076.000000	97.373963 
2075.000000	97.372519 
2074.000000	97.371285 
2073.000000	97.369931 
2072.000000	97.366986 
2071.000000	97.362167 
2070.000000	97.357004 
2069.000000	97.353198 
2068.000000	97.351254 
2067.000000	97.350778 
2066.000000	97.351106 
2065.000000	97.351158 
2064.000000	97.349595 
2063.000000	97.346103 
2062.000000	97.342339 
2061.000000	97.340719 
2060.000000	97.342148 
2059.000000	97.345515 
2058.000000	97.348596 
2057.000000	97.349708 
2056.000000	97.348557 
2055.000000	97.345904 
2054.000000	97.343115 
2053.000000	97.341383 
2052.000000	97.341010 
2051.000000	97.341405 
2050.000000	97.341789 
2049.000000	97.341890 
2048.000000	97.341904 
2047.000000	97.341999 
2046.000000	97.342132 
2045.000000	97.342283 
2044.000000	97.342580 
2043.000000	97.343076 
2042.000000	97.343578 
2041.000000	97.343836 
2040.000000	97.343902 
2039.000000	97.344164 
2038.000000	97.344920 
2037.000000	97.346010 
2036.000000	97.346970 
2035.000000	97.347527 
2034.000000	97.347817 
2033.000000	97.348205 
2032.000000	97.348908 
2031.000000	97.349754 
2030.000000	97.350284 
2029.000000	97.350162 
2028.000000	97.349547 
2027.000000	97.348950 
2026.000000	97.348678 
2025.000000	97.348703 
2024.000000	97.349087 
2023.000000	97.350278 
2022.000000	97.352657 
2021.000000	97.355583 
2020.000000	97.357394 
2019.000000	97.356893 
2018.000000	97.354343 
2017.000000	97.351308 
2016.000000	97.349260 
2015.000000	97.348770 
2014.000000	97.349385 
2013.000000	97.349584 
2012.000000	97.347983 
2011.000000	97.345374 
2010.000000	97.344646 
2009.000000	97.347588 
2008.000000	97.352545 
2007.000000	97.356299 
2006.000000	97.357859 
2005.000000	97.358426 
2004.000000	97.358693 
2003.000000	97.358541 
2002.000000	97.358942 
2001.000000	97.361320 
2000.000000	97.364434 
1999.000000	97.364305 
1998.000000	97.358418 
1997.000000	97.348629 
1996.000000	97.339472 
1995.000000	97.334285 
1994.000000	97.333525 
1993.000000	97.335423 
1992.000000	97.337211 
1991.000000	97.337291 
1990.000000	97.336979 
1989.000000	97.338871 
1988.000000	97.342968 
1987.000000	97.345506 
1986.000000	97.342691 
1985.000000	97.334884 
1984.000000	97.326161 
1983.000000	97.320206 
1982.000000	97.317877 
1981.000000	97.318490 
1980.000000	97.321746 
1979.000000	97.327692 
1978.000000	97.335507 
1977.000000	97.343130 
1976.000000	97.348327 
1975.000000	97.350413 
1974.000000	97.351033 
1973.000000	97.353053 
1972.000000	97.357930 
1971.000000	97.364070 
1970.000000	97.368163 
1969.000000	97.368151 
1968.000000	97.364644 
1967.000000	97.360133 
1966.000000	97.357398 
1965.000000	97.358003 
1964.000000	97.361754 
1963.000000	97.367227 
1962.000000	97.372810 
1961.000000	97.377240 
1960.000000	97.379366 
1959.000000	97.378416 
1958.000000	97.375230 
1957.000000	97.372604 
1956.000000	97.373046 
1955.000000	97.376439 
1954.000000	97.380378 
1953.000000	97.382594 
1952.000000	97.382666 
1951.000000	97.381469 
1950.000000	97.380190 
1949.000000	97.379966 
1948.000000	97.381458 
1947.000000	97.384202 
1946.000000	97.386732 
1945.000000	97.387854 
1944.000000	97.387483 
1943.000000	97.386204 
1942.000000	97.384684 
1941.000000	97.383534 
1940.000000	97.383146 
1939.000000	97.383303 
1938.000000	97.383399 
1937.000000	97.383332 
1936.000000	97.383811 
1935.000000	97.385293 
1934.000000	97.387064 
1933.000000	97.388105 
1932.000000	97.388598 
1931.000000	97.389562 
1930.000000	97.391146 
1929.000000	97.392262 
1928.000000	97.392200 
1927.000000	97.391542 
1926.000000	97.391177 
1925.000000	97.391213 
1924.000000	97.391322 
1923.000000	97.391379 
1922.000000	97.391152 
1921.000000	97.390096 
1920.000000	97.388214 
1919.000000	97.386415 
1918.000000	97.385329 
1917.000000	97.384264 
1916.000000	97.382529 
1915.000000	97.381099 
1914.000000	97.381358 
1913.000000	97.382853 
1912.000000	97.383569 
1911.000000	97.382669 
1910.000000	97.381404 
1909.000000	97.381294 
1908.000000	97.382476 
1907.000000	97.384003 
1906.000000	97.384678 
1905.000000	97.383496 
1904.000000	97.380444 
1903.000000	97.377110 
1902.000000	97.375481 
1901.000000	97.375786 
1900.000000	97.376631 
1899.000000	97.376992 
1898.000000	97.376958 
1897.000000	97.376673 
1896.000000	97.375571 
1895.000000	97.373133 
1894.000000	97.369664 
1893.000000	97.365885 
1892.000000	97.362424 
1891.000000	97.359977 
1890.000000	97.359175 
1889.000000	97.359743 
1888.000000	97.360815 
1887.000000	97.362247 
1886.000000	97.364324 
1885.000000	97.366233 
1884.000000	97.366244 
1883.000000	97.363889 
1882.000000	97.361055 
1881.000000	97.360109 
1880.000000	97.361450 
1879.000000	97.363346 
1878.000000	97.363911 
1877.000000	97.363252 
1876.000000	97.363125 
1875.000000	97.364818 
1874.000000	97.367918 
1873.000000	97.370907 
1872.000000	97.372683 
1871.000000	97.373258 
1870.000000	97.373276 
1869.000000	97.373276 
1868.000000	97.373349 
1867.000000	97.373469 
1866.000000	97.373314 
1865.000000	97.372078 
1864.000000	97.369868 
1863.000000	97.368486 
1862.000000	97.369544 
1861.000000	97.372435 
1860.000000	97.375167 
1859.000000	97.377090 
1858.000000	97.379350 
1857.000000	97.382639 
1856.000000	97.386196 
1855.000000	97.389072 
1854.000000	97.390901 
1853.000000	97.391701 
1852.000000	97.392313 
1851.000000	97.394223 
1850.000000	97.397930 
1849.000000	97.402114 
1848.000000	97.405024 
1847.000000	97.406475 
1846.000000	97.407608 
1845.000000	97.409229 
1844.000000	97.411008 
1843.000000	97.412607 
1842.000000	97.414434 
1841.000000	97.416783 
1840.000000	97.419915 
1839.000000	97.424230 
1838.000000	97.429010 
1837.000000	97.431944 
1836.000000	97.431550 
1835.000000	97.429334 
1834.000000	97.428321 
1833.000000	97.429422 
1832.000000	97.431208 
1831.000000	97.432114 
1830.000000	97.431906 
1829.000000	97.431486 
1828.000000	97.431825 
1827.000000	97.433185 
1826.000000	97.435240 
1825.000000	97.437251 
1824.000000	97.438251 
1823.000000	97.438280 
1822.000000	97.438713 
1821.000000	97.440397 
1820.000000	97.442532 
1819.000000	97.444094 
1818.000000	97.445819 
1817.000000	97.448660 
1816.000000	97.450995 
1815.000000	97.450820 
1814.000000	97.449401 
1813.000000	97.450121 
1812.000000	97.453486 
1811.000000	97.455553 
1810.000000	97.453748 
1809.000000	97.450351 
1808.000000	97.448161 
1807.000000	97.447120 
1806.000000	97.446425 
1805.000000	97.445991 
1804.000000	97.445224 
1803.000000	97.443097 
1802.000000	97.440254 
1801.000000	97.439256 
1800.000000	97.440179 
1799.000000	97.439856 
1798.000000	97.437616 
1797.000000	97.435835 
1796.000000	97.435346 
1795.000000	97.434712 
1794.000000	97.433247 
1793.000000	97.432701 
1792.000000	97.434059 
1791.000000	97.436176 
1790.000000	97.438853 
1789.000000	97.442427 
1788.000000	97.445994 
1787.000000	97.448704 
1786.000000	97.451663 
1785.000000	97.456252 
1784.000000	97.461257 
1783.000000	97.464553 
1782.000000	97.465935 
1781.000000	97.467293 
1780.000000	97.469959 
1779.000000	97.473240 
1778.000000	97.476468 
1777.000000	97.479681 
1776.000000	97.482571 
1775.000000	97.484353 
1774.000000	97.484662 
1773.000000	97.484893 
1772.000000	97.486554 
1771.000000	97.488869 
1770.000000	97.490521 
1769.000000	97.491486 
1768.000000	97.492581 
1767.000000	97.494210 
1766.000000	97.496082 
1765.000000	97.497973 
1764.000000	97.499915 
1763.000000	97.501870 
1762.000000	97.503638 
1761.000000	97.505201 
1760.000000	97.506735 
1759.000000	97.508258 
1758.000000	97.509684 
1757.000000	97.511093 
1756.000000	97.512663 
1755.000000	97.514261 
1754.000000	97.515543 
1753.000000	97.516386 
1752.000000	97.517104 
1751.000000	97.518235 
1750.000000	97.519934 
1749.000000	97.521805 
1748.000000	97.523293 
1747.000000	97.524310 
1746.000000	97.525146 
1745.000000	97.526208 
1744.000000	97.527690 
1743.000000	97.529197 
1742.000000	97.530027 
1741.000000	97.530179 
1740.000000	97.530578 
1739.000000	97.531802 
1738.000000	97.533013 
1737.000000	97.533181 
1736.000000	97.532191 
1735.000000	97.531365 
1734.000000	97.531519 
1733.000000	97.531051 
1732.000000	97.529858 
1731.000000	97.530044 
1730.000000	97.532672 
1729.000000	97.536310 
1728.000000	97.538515 
1727.000000	97.538411 
1726.000000	97.537118 
1725.000000	97.536410 
1724.000000	97.536886 
1723.000000	97.537583 
1722.000000	97.537557 
1721.000000	97.536707 
1720.000000	97.535437 
1719.000000	97.533955 
1718.000000	97.531749 
1717.000000	97.528325 
1716.000000	97.524194 
1715.000000	97.520813 
1714.000000	97.519310 
1713.000000	97.518753 
1712.000000	97.517364 
1711.000000	97.515424 
1710.000000	97.514307 
1709.000000	97.513573 
1708.000000	97.511416 
1707.000000	97.507638 
1706.000000	97.504364 
1705.000000	97.502532 
1704.000000	97.499562 
1703.000000	97.493247 
1702.000000	97.483777 
1701.000000	97.475481 
1700.000000	97.471582 
1699.000000	97.469297 
1698.000000	97.467302 
1697.000000	97.466112 
1696.000000	97.464800 
1695.000000	97.462129 
1694.000000	97.458504 
1693.000000	97.454818 
1692.000000	97.450809 
1691.000000	97.446445 
1690.000000	97.442155 
1689.000000	97.438038 
1688.000000	97.433686 
1687.000000	97.428850 
1686.000000	97.424030 
1685.000000	97.420791 
1684.000000	97.418135 
1683.000000	97.413403 
1682.000000	97.407635 
1681.000000	97.402463 
1680.000000	97.398537 
1679.000000	97.395603 
1678.000000	97.392337 
1677.000000	97.387778 
1676.000000	97.382855 
1675.000000	97.378763 
1674.000000	97.373859 
1673.000000	97.366729 
1672.000000	97.358826 
1671.000000	97.353231 
1670.000000	97.351211 
1669.000000	97.349113 
1668.000000	97.344822 
1667.000000	97.340584 
1666.000000	97.336970 
1665.000000	97.333076 
1664.000000	97.329778 
1663.000000	97.328224 
1662.000000	97.325521 
1661.000000	97.318153 
1660.000000	97.308269 
1659.000000	97.300018 
1658.000000	97.295225 
1657.000000	97.291397 
1656.000000	97.286583 
1655.000000	97.280082 
1654.000000	97.277607 
1653.000000	97.272868 
1652.000000	97.256432 
1651.000000	97.243615 
1650.000000	97.237033 
1649.000000	97.230890 
1648.000000	97.225418 
1647.000000	97.222040 
1646.000000	97.219777 
1645.000000	97.218758 
1644.000000	97.219190 
1643.000000	97.219330 
1642.000000	97.217910 
1641.000000	97.215538 
1640.000000	97.213224 
1639.000000	97.210765 
1638.000000	97.207424 
1637.000000	97.204622 
1636.000000	97.203760 
1635.000000	97.202813 
1634.000000	97.201853 
1633.000000	97.201680 
1632.000000	97.200796 
1631.000000	97.200506 
1630.000000	97.204030 
1629.000000	97.211382 
1628.000000	97.219591 
1627.000000	97.226467 
1626.000000	97.231506 
1625.000000	97.234936 
1624.000000	97.239204 
1623.000000	97.247125 
1622.000000	97.257150 
1621.000000	97.265001 
1620.000000	97.269482 
1619.000000	97.272891 
1618.000000	97.278505 
1617.000000	97.285069 
1616.000000	97.287726 
1615.000000	97.288409 
1614.000000	97.290678 
1613.000000	97.292200 
1612.000000	97.291219 
1611.000000	97.290449 
1610.000000	97.293205 
1609.000000	97.299994 
1608.000000	97.310179 
1607.000000	97.322802 
1606.000000	97.334323 
1605.000000	97.342109 
1604.000000	97.348529 
1603.000000	97.356769 
1602.000000	97.365607 
1601.000000	97.371776 
1600.000000	97.375657 
1599.000000	97.380402 
1598.000000	97.386778 
1597.000000	97.393200 
1596.000000	97.399387 
1595.000000	97.406699 
1594.000000	97.414925 
1593.000000	97.421589 
1592.000000	97.425525 
1591.000000	97.428487 
1590.000000	97.432312 
1589.000000	97.436968 
1588.000000	97.442533 
1587.000000	97.450192 
1586.000000	97.459039 
1585.000000	97.465527 
1584.000000	97.468877 
1583.000000	97.472109 
1582.000000	97.476910 
1581.000000	97.482007 
1580.000000	97.486350 
1579.000000	97.490538 
1578.000000	97.495457 
1577.000000	97.501733 
1576.000000	97.507922 
1575.000000	97.512669 
1574.000000	97.516395 
1573.000000	97.518517 
1572.000000	97.519465 
1571.000000	97.522405 
1570.000000	97.527459 
1569.000000	97.528494 
1568.000000	97.525592 
1567.000000	97.524326 
1566.000000	97.525677 
1565.000000	97.527448 
1564.000000	97.530673 
1563.000000	97.533681 
1562.000000	97.533147 
1561.000000	97.524150 
1560.000000	97.518966 
1559.000000	97.527579 
1558.000000	97.529042 
1557.000000	97.522703 
1556.000000	97.518440 
1555.000000	97.516672 
1554.000000	97.513915 
1553.000000	97.509650 
1552.000000	97.504637 
1551.000000	97.499250 
1550.000000	97.492945 
1549.000000	97.486554 
1548.000000	97.481736 
1547.000000	97.479049 
1546.000000	97.476582 
1545.000000	97.473186 
1544.000000	97.469379 
1543.000000	97.465574 
1542.000000	97.462437 
1541.000000	97.460948 
1540.000000	97.454881 
1539.000000	97.441098 
1538.000000	97.427974 
1537.000000	97.417722 
1536.000000	97.406917 
1535.000000	97.396005 
1534.000000	97.388715 
1533.000000	97.384920 
1532.000000	97.379935 
1531.000000	97.371193 
1530.000000	97.360257 
1529.000000	97.349656 
1528.000000	97.340597 
1527.000000	97.332949 
1526.000000	97.325787 
1525.000000	97.318320 
1524.000000	97.310485 
1523.000000	97.302744 
1522.000000	97.295415 
1521.000000	97.286545 
1520.000000	97.274470 
1519.000000	97.260939 
1518.000000	97.248488 
1517.000000	97.238545 
1516.000000	97.230580 
1515.000000	97.223236 
1514.000000	97.215793 
1513.000000	97.207927 
1512.000000	97.199284 
1511.000000	97.189399 
1510.000000	97.178657 
1509.000000	97.168206 
1508.000000	97.159574 
1507.000000	97.152235 
1506.000000	97.143484 
1505.000000	97.133240 
1504.000000	97.122884 
1503.000000	97.112771 
1502.000000	97.102812 
1501.000000	97.093067 
1500.000000	97.083528 
1499.000000	97.074018 
1498.000000	97.064229 
1497.000000	97.054226 
1496.000000	97.044380 
1495.000000	97.034904 
1494.000000	97.025796 
1493.000000	97.017065 
1492.000000	97.008841 
1491.000000	97.001216 
1490.000000	96.993610 
1489.000000	96.985085 
1488.000000	96.975245 
1487.000000	96.964628 
1486.000000	96.954370 
1485.000000	96.944251 
1484.000000	96.933517 
1483.000000	96.922773 
1482.000000	96.913295 
1481.000000	96.905309 
1480.000000	96.897295 
1479.000000	96.887994 
1478.000000	96.878015 
1477.000000	96.868778 
1476.000000	96.859750 
1475.000000	96.848585 
1474.000000	96.835398 
1473.000000	96.824815 
1472.000000	96.819656 
1471.000000	96.816050 
1470.000000	96.809828 
1469.000000	96.800413 
1468.000000	96.788693 
1467.000000	96.775887 
1466.000000	96.764274 
1465.000000	96.756579 
1464.000000	96.752092 
1463.000000	96.745860 
1462.000000	96.734690 
1461.000000	96.720317 
1460.000000	96.706931 
1459.000000	96.696821 
1458.000000	96.687244 
1457.000000	96.674629 
1456.000000	96.662067 
1455.000000	96.653059 
1454.000000	96.644539 
1453.000000	96.635957 
1452.000000	96.629875 
1451.000000	96.627168 
1450.000000	96.626323 
1449.000000	96.627544 
1448.000000	96.631054 
1447.000000	96.633446 
1446.000000	96.630771 
1445.000000	96.624802 
1444.000000	96.620207 
1443.000000	96.617272 
1442.000000	96.613026 
1441.000000	96.605955 
1440.000000	96.596952 
1439.000000	96.586243 
1438.000000	96.573731 
1437.000000	96.563564 
1436.000000	96.560273 
1435.000000	96.560345 
1434.000000	96.558105 
1433.000000	96.554028 
1432.000000	96.551776 
1431.000000	96.553587 
1430.000000	96.557826 
1429.000000	96.562029 
1428.000000	96.565187 
1427.000000	96.567237 
1426.000000	96.568835 
1425.000000	96.572412 
1424.000000	96.580646 
1423.000000	96.589710 
1422.000000	96.593236 
1421.000000	96.592608 
1420.000000	96.597106 
1419.000000	96.608665 
1418.000000	96.615708 
1417.000000	96.615721 
1416.000000	96.618416 
1415.000000	96.627121 
1414.000000	96.635673 
1413.000000	96.639381 
1412.000000	96.641891 
1411.000000	96.648258 
1410.000000	96.656943 
1409.000000	96.664666 
1408.000000	96.671912 
1407.000000	96.680463 
1406.000000	96.689866 
1405.000000	96.699962 
1404.000000	96.713027 
1403.000000	96.727393 
1402.000000	96.737852 
1401.000000	96.745053 
1400.000000	96.756575 
1399.000000	96.776067 
1398.000000	96.796602 
1397.000000	96.811842 
1396.000000	96.825355 
1395.000000	96.843445 
1394.000000	96.864320 
1393.000000	96.882884 
1392.000000	96.900522 
1391.000000	96.919459 
1390.000000	96.937378 
1389.000000	96.951286 
1388.000000	96.962118 
1387.000000	96.973267 
1386.000000	96.985929 
1385.000000	97.000274 
1384.000000	97.017735 
1383.000000	97.037749 
1382.000000	97.056014 
1381.000000	97.069129 
1380.000000	97.078285 
1379.000000	97.087417 
1378.000000	97.098565 
1377.000000	97.110760 
1376.000000	97.122987 
1375.000000	97.135848 
1374.000000	97.149636 
1373.000000	97.163824 
1372.000000	97.178552 
1371.000000	97.194759 
1370.000000	97.212298 
1369.000000	97.228768 
1368.000000	97.243007 
1367.000000	97.255935 
1366.000000	97.268125 
1365.000000	97.279118 
1364.000000	97.288145 
1363.000000	97.295175 
1362.000000	97.301890 
1361.000000	97.310683 
1360.000000	97.322385 
1359.000000	97.335846 
1358.000000	97.349031 
1357.000000	97.360444 
1356.000000	97.370217 
1355.000000	97.379370 
1354.000000	97.388496 
1353.000000	97.398048 
1352.000000	97.407814 
1351.000000	97.417746 
1350.000000	97.428565 
1349.000000	97.439356 
1348.000000	97.448502 
1347.000000	97.455440 
1346.000000	97.460974 
1345.000000	97.465815 
1344.000000	97.470178 
1343.000000	97.474637 
1342.000000	97.480128 
1341.000000	97.486390 
1340.000000	97.491696 
1339.000000	97.495099 
1338.000000	97.497616 
1337.000000	97.500715 
1336.000000	97.504654 
1335.000000	97.508647 
1334.000000	97.512255 
1333.000000	97.515783 
1332.000000	97.519320 
1331.000000	97.522716 
1330.000000	97.526202 
1329.000000	97.530130 
1328.000000	97.534306 
1327.000000	97.538409 
1326.000000	97.542107 
1325.000000	97.543940 
1324.000000	97.542467 
1323.000000	97.537816 
1322.000000	97.532014 
1321.000000	97.527857 
1320.000000	97.527303 
1319.000000	97.530266 
1318.000000	97.534766 
1317.000000	97.538609 
1316.000000	97.540460 
1315.000000	97.539627 
1314.000000	97.536290 
1313.000000	97.532629 
1312.000000	97.531791 
1311.000000	97.534449 
1310.000000	97.537573 
1309.000000	97.538048 
1308.000000	97.536312 
1307.000000	97.535376 
1306.000000	97.536985 
1305.000000	97.539946 
1304.000000	97.542586 
1303.000000	97.544029 
1302.000000	97.543525 
1301.000000	97.540646 
1300.000000	97.536830 
1299.000000	97.534916 
1298.000000	97.536161 
1297.000000	97.538683 
1296.000000	97.539527 
1295.000000	97.537828 
1294.000000	97.535220 
1293.000000	97.533985 
1292.000000	97.535248 
1291.000000	97.538287 
1290.000000	97.541214 
1289.000000	97.542479 
1288.000000	97.541806 
1287.000000	97.539784 
1286.000000	97.537030 
1285.000000	97.534351 
1284.000000	97.533073 
1283.000000	97.533809 
1282.000000	97.535119 
1281.000000	97.534553 
1280.000000	97.531354 
1279.000000	97.527542 
1278.000000	97.526102 
1277.000000	97.528588 
1276.000000	97.534065 
1275.000000	97.539801 
1274.000000	97.543043 
1273.000000	97.543058 
1272.000000	97.541545 
1271.000000	97.540436 
1270.000000	97.539549 
1269.000000	97.537260 
1268.000000	97.533121 
1267.000000	97.528327 
1266.000000	97.523880 
1265.000000	97.520475 
1264.000000	97.519900 
1263.000000	97.523898 
1262.000000	97.531050 
1261.000000	97.537083 
1260.000000	97.539682 
1259.000000	97.541163 
1258.000000	97.544400 
1257.000000	97.548017 
1256.000000	97.548007 
1255.000000	97.543756 
1254.000000	97.539978 
1253.000000	97.541254 
1252.000000	97.545813 
1251.000000	97.547122 
1250.000000	97.541876 
1249.000000	97.534280 
1248.000000	97.531002 
1247.000000	97.533195 
1246.000000	97.535988 
1245.000000	97.535704 
1244.000000	97.534130 
1243.000000	97.534564 
1242.000000	97.536930 
1241.000000	97.539203 
1240.000000	97.540953 
1239.000000	97.542325 
1238.000000	97.541455 
1237.000000	97.536433 
1236.000000	97.528861 
1235.000000	97.522199 
1234.000000	97.517045 
1233.000000	97.511159 
1232.000000	97.503753 
1231.000000	97.496208 
1230.000000	97.488384 
1229.000000	97.477610 
1228.000000	97.461942 
1227.000000	97.441607 
1226.000000	97.416701 
1225.000000	97.386328 
1224.000000	97.351042 
1223.000000	97.313475 
1222.000000	97.275108 
1221.000000	97.234524 
1220.000000	97.190257 
1219.000000	97.143326 
1218.000000	97.095365 
1217.000000	97.046002 
1216.000000	96.993539 
1215.000000	96.936972 
1214.000000	96.876631 
1213.000000	96.814358 
1212.000000	96.753145 
1211.000000	96.694023 
1210.000000	96.632984 
1209.000000	96.564141 
1208.000000	96.487116 
1207.000000	96.408504 
1206.000000	96.334287 
1205.000000	96.263105 
1204.000000	96.188975 
1203.000000	96.108593 
1202.000000	96.024226 
1201.000000	95.940786 
1200.000000	95.861306 
1199.000000	95.784441 
1198.000000	95.705895 
1197.000000	95.623421 
1196.000000	95.539757 
1195.000000	95.458657 
1194.000000	95.379044 
1193.000000	95.296037 
1192.000000	95.207334 
1191.000000	95.115002 
1190.000000	95.020944 
1189.000000	94.924385 
1188.000000	94.824679 
1187.000000	94.723153 
1186.000000	94.621091 
1185.000000	94.518672 
1184.000000	94.416266 
1183.000000	94.313850 
1182.000000	94.209238 
1181.000000	94.100122 
1180.000000	93.987482 
1179.000000	93.873294 
1178.000000	93.755525 
1177.000000	93.630155 
1176.000000	93.497944 
1175.000000	93.364083 
1174.000000	93.231021 
1173.000000	93.097081 
1172.000000	92.962525 
1171.000000	92.830479 
1170.000000	92.700565 
1169.000000	92.568564 
1168.000000	92.435086 
1167.000000	92.308881 
1166.000000	92.199533 
1165.000000	92.113042 
1164.000000	92.056371 
1163.000000	92.038141 
1162.000000	92.059523 
1161.000000	92.108346 
1160.000000	92.165095 
1159.000000	92.211690 
1158.000000	92.234338 
1157.000000	92.224519 
1156.000000	92.181036 
1155.000000	92.108622 
1154.000000	92.013405 
1153.000000	91.902275 
1152.000000	91.785475 
1151.000000	91.673324 
1150.000000	91.568373 
1149.000000	91.465809 
1148.000000	91.362648 
1147.000000	91.260810 
1146.000000	91.160605 
1145.000000	91.058519 
1144.000000	90.953850 
1143.000000	90.850894 
1142.000000	90.751648 
1141.000000	90.652267 
1140.000000	90.549509 
1139.000000	90.445013 
1138.000000	90.340885 
1137.000000	90.236686 
1136.000000	90.132772 
1135.000000	90.030718 
1134.000000	89.928552 
1133.000000	89.821629 
1132.000000	89.709913 
1131.000000	89.598212 
1130.000000	89.487940 
1129.000000	89.375568 
1128.000000	89.260576 
1127.000000	89.147132 
1126.000000	89.035662 
1125.000000	88.920595 
1124.000000	88.799438 
1123.000000	88.676968 
1122.000000	88.557468 
1121.000000	88.439671 
1120.000000	88.322137 
1119.000000	88.206553 
1118.000000	88.093065 
1117.000000	87.979671 
1116.000000	87.868411 
1115.000000	87.764452 
1114.000000	87.667278 
1113.000000	87.571083 
1112.000000	87.475003 
1111.000000	87.383364 
1110.000000	87.294800 
1109.000000	87.201952 
1108.000000	87.103580 
1107.000000	87.005885 
1106.000000	86.910298 
1105.000000	86.811047 
1104.000000	86.706714 
1103.000000	86.603059 
1102.000000	86.501720 
1101.000000	86.398066 
1100.000000	86.292388 
1099.000000	86.191094 
1098.000000	86.096066 
1097.000000	86.001913 
1096.000000	85.906618 
1095.000000	85.812997 
1094.000000	85.718801 
1093.000000	85.618179 
1092.000000	85.514949 
1091.000000	85.421350 
1090.000000	85.340978 
1089.000000	85.265438 
1088.000000	85.189573 
1087.000000	85.116376 
1086.000000	85.044913 
1085.000000	84.968105 
1084.000000	84.885911 
1083.000000	84.806963 
1082.000000	84.733593 
1081.000000	84.658358 
1080.000000	84.578307 
1079.000000	84.498906 
1078.000000	84.420680 
1077.000000	84.335506 
1076.000000	84.239378 
1075.000000	84.135457 
1074.000000	84.022089 
1073.000000	83.891457 
1072.000000	83.742037 
1071.000000	83.578232 
1070.000000	83.396151 
1069.000000	83.185386 
1068.000000	82.947708 
1067.000000	82.698958 
1066.000000	82.449392 
1065.000000	82.197481 
1064.000000	81.945684 
1063.000000	81.703663 
1062.000000	81.470438 
1061.000000	81.231213 
1060.000000	80.978683 
1059.000000	80.721656 
1058.000000	80.467435 
1057.000000	80.212118 
1056.000000	79.953656 
1055.000000	79.697121 
1054.000000	79.440512 
1053.000000	79.172309 
1052.000000	78.890670 
1051.000000	78.608230 
1050.000000	78.330255 
1049.000000	78.046983 
1048.000000	77.755063 
1047.000000	77.465534 
1046.000000	77.183551 
1045.000000	76.900419 
1044.000000	76.611309 
1043.000000	76.322356 
1042.000000	76.035912 
1041.000000	75.747113 
1040.000000	75.459631 
1039.000000	75.186113 
1038.000000	74.928178 
1037.000000	74.674961 
1036.000000	74.425806 
1035.000000	74.194432 
1034.000000	73.986097 
1033.000000	73.791270 
1032.000000	73.606441 
1031.000000	73.440023 
1030.000000	73.292798 
1029.000000	73.154185 
1028.000000	73.023085 
1027.000000	72.910729 
1026.000000	72.817554 
1025.000000	72.729006 
1024.000000	72.639535 
1023.000000	72.558857 
1022.000000	72.489102 
1021.000000	72.417803 
1020.000000	72.338930 
1019.000000	72.259643 
1018.000000	72.181682 
1017.000000	72.097963 
1016.000000	72.011706 
1015.000000	71.936259 
1014.000000	71.871324 
1013.000000	71.801921 
1012.000000	71.725377 
1011.000000	71.656327 
1010.000000	71.600434 
1009.000000	71.547113 
1008.000000	71.493701 
1007.000000	71.453145 
1006.000000	71.431373 
1005.000000	71.419598 
1004.000000	71.414346 
1003.000000	71.422382 
1002.000000	71.440745 
1001.000000	71.455693 
1000.000000	71.467715 
999.000000	 71.494398 
998.000000	 71.541940 
997.000000	 71.596083 
996.000000	 71.647216 
995.000000	 71.702575 
994.000000	 71.767531 
993.000000	 71.836756 
992.000000	 71.909887 
991.000000	 71.994392 
990.000000	 72.087211 
989.000000	 72.174866 
988.000000	 72.257184 
987.000000	 72.349971 
986.000000	 72.459814 
985.000000	 72.577837 
984.000000	 72.702017 
983.000000	 72.842697 
982.000000	 73.000840 
981.000000	 73.163689 
980.000000	 73.327804 
979.000000	 73.504318 
978.000000	 73.695593 
977.000000	 73.888965 
976.000000	 74.079830 
975.000000	 74.279364 
974.000000	 74.492709 
973.000000	 74.710598 
972.000000	 74.929293 
971.000000	 75.158310 
970.000000	 75.400800 
969.000000	 75.645074 
968.000000	 75.882698 
967.000000	 76.118017 
966.000000	 76.354423 
965.000000	 76.588333 
964.000000	 76.821229 
963.000000	 77.060341 
962.000000	 77.303016 
961.000000	 77.537257 
960.000000	 77.761205 
959.000000	 77.985152 
958.000000	 78.211587 
957.000000	 78.430901 
956.000000	 78.639886 
955.000000	 78.846613 
954.000000	 79.053616 
953.000000	 79.253492 
952.000000	 79.444246 
951.000000	 79.631630 
950.000000	 79.813654 
949.000000	 79.980521 
948.000000	 80.132900 
947.000000	 80.282838 
946.000000	 80.433364 
945.000000	 80.574442 
944.000000	 80.702250 
943.000000	 80.825145 
942.000000	 80.947370 
941.000000	 81.063962 
940.000000	 81.175339 
939.000000	 81.289769 
938.000000	 81.407725 
937.000000	 81.520618 
936.000000	 81.628606 
935.000000	 81.742971 
934.000000	 81.867291 
933.000000	 81.992799 
932.000000	 82.115482 
931.000000	 82.240982 
930.000000	 82.369724 
929.000000	 82.494406 
928.000000	 82.615615 
927.000000	 82.742813 
926.000000	 82.875872 
925.000000	 83.001708 
924.000000	 83.112529 
923.000000	 83.211901 
922.000000	 83.301119 
921.000000	 83.377014 
920.000000	 83.446062 
919.000000	 83.522671 
918.000000	 83.608832 
917.000000	 83.691724 
916.000000	 83.765683 
915.000000	 83.841016 
914.000000	 83.927791 
913.000000	 84.027201 
912.000000	 84.142143 
911.000000	 84.279671 
910.000000	 84.439058 
909.000000	 84.612928 
908.000000	 84.802448 
907.000000	 85.015338 
906.000000	 85.247988 
905.000000	 85.487067 
904.000000	 85.729759 
903.000000	 85.984079 
902.000000	 86.248519 
901.000000	 86.510886 
900.000000	 86.769067 
899.000000	 87.033474 
898.000000	 87.306219 
897.000000	 87.576078 
896.000000	 87.836220 
895.000000	 88.088653 
894.000000	 88.329625 
893.000000	 88.550082 
892.000000	 88.753734 
891.000000	 88.956114 
890.000000	 89.161210 
889.000000	 89.355521 
888.000000	 89.528650 
887.000000	 89.683117 
886.000000	 89.821823 
885.000000	 89.944016 
884.000000	 90.057246 
883.000000	 90.174804 
882.000000	 90.296187 
881.000000	 90.408369 
880.000000	 90.511377 
879.000000	 90.623138 
878.000000	 90.752714 
877.000000	 90.888567 
876.000000	 91.021080 
875.000000	 91.157342 
874.000000	 91.305937 
873.000000	 91.466407 
872.000000	 91.641590 
871.000000	 91.840623 
870.000000	 92.060176 
869.000000	 92.280015 
868.000000	 92.486411 
867.000000	 92.685146 
866.000000	 92.884411 
865.000000	 93.080360 
864.000000	 93.268242 
863.000000	 93.454121 
862.000000	 93.645563 
861.000000	 93.840468 
860.000000	 94.032718 
859.000000	 94.219932 
858.000000	 94.399831 
857.000000	 94.567608 
856.000000	 94.721852 
855.000000	 94.865537 
854.000000	 94.998451 
853.000000	 95.117254 
852.000000	 95.224999 
851.000000	 95.330904 
850.000000	 95.438528 
849.000000	 95.543823 
848.000000	 95.645846 
847.000000	 95.748160 
846.000000	 95.848269 
845.000000	 95.937622 
844.000000	 96.014188 
843.000000	 96.083637 
842.000000	 96.146485 
841.000000	 96.195828 
840.000000	 96.229377 
839.000000	 96.251578 
838.000000	 96.262581 
837.000000	 96.258349 
836.000000	 96.244143 
835.000000	 96.234533 
834.000000	 96.235880 
833.000000	 96.241189 
832.000000	 96.246228 
831.000000	 96.257480 
830.000000	 96.279114 
829.000000	 96.305675 
828.000000	 96.335341 
827.000000	 96.378455 
826.000000	 96.444438 
825.000000	 96.529540 
824.000000	 96.622486 
823.000000	 96.711111 
822.000000	 96.781615 
821.000000	 96.826386 
820.000000	 96.855401 
819.000000	 96.886017 
818.000000	 96.918754 
817.000000	 96.934618 
816.000000	 96.917195 
815.000000	 96.865250 
814.000000	 96.782314 
813.000000	 96.666620 
812.000000	 96.514545 
811.000000	 96.321239 
810.000000	 96.072790 
809.000000	 95.749371 
808.000000	 95.342802 
807.000000	 94.864194 
806.000000	 94.333482 
805.000000	 93.772589 
804.000000	 93.209968 
803.000000	 92.675224 
802.000000	 92.182825 
801.000000	 91.736347 
800.000000	 91.353207 
799.000000	 91.065476 
798.000000	 90.887869 
797.000000	 90.802663 
796.000000	 90.782926 
795.000000	 90.811700 
794.000000	 90.872216 
793.000000	 90.941788 
792.000000	 91.007222 
791.000000	 91.070210 
790.000000	 91.129112 
789.000000	 91.170158 
788.000000	 91.181819 
787.000000	 91.161223 
786.000000	 91.101304 
785.000000	 90.989262 
784.000000	 90.825121 
783.000000	 90.627172 
782.000000	 90.414566 
781.000000	 90.201175 
780.000000	 90.009629 
779.000000	 89.869361 
778.000000	 89.792157 
777.000000	 89.768518 
776.000000	 89.794168 
775.000000	 89.877901 
774.000000	 90.014957 
773.000000	 90.175837 
772.000000	 90.333449 
771.000000	 90.482508 
770.000000	 90.623060 
769.000000	 90.746105 
768.000000	 90.847220 
767.000000	 90.935201 
766.000000	 91.014970 
765.000000	 91.079211 
764.000000	 91.128159 
763.000000	 91.179765 
762.000000	 91.247631 
761.000000	 91.325101 
760.000000	 91.402892 
759.000000	 91.485839 
758.000000	 91.580116 
757.000000	 91.681112 
756.000000	 91.787457 
755.000000	 91.910177 
754.000000	 92.051649 
753.000000	 92.189021 
752.000000	 92.295519 
751.000000	 92.370127 
750.000000	 92.434243 
749.000000	 92.507427 
748.000000	 92.596228 
747.000000	 92.696777 
746.000000	 92.797562 
745.000000	 92.888065 
744.000000	 92.973869 
743.000000	 93.075335 
742.000000	 93.203887 
741.000000	 93.348437 
740.000000	 93.491380 
739.000000	 93.627297 
738.000000	 93.759337 
737.000000	 93.888309 
736.000000	 94.013646 
735.000000	 94.136512 
734.000000	 94.254830 
733.000000	 94.362379 
732.000000	 94.457122 
731.000000	 94.542370 
730.000000	 94.617013 
729.000000	 94.674230 
728.000000	 94.715407 
727.000000	 94.754457 
726.000000	 94.802808 
725.000000	 94.861959 
724.000000	 94.932489 
723.000000	 95.016062 
722.000000	 95.105266 
721.000000	 95.186621 
720.000000	 95.259189 
719.000000	 95.334752 
718.000000	 95.414978 
717.000000	 95.486910 
716.000000	 95.544699 
715.000000	 95.598540 
714.000000	 95.657213 
713.000000	 95.717670 
712.000000	 95.779529 
711.000000	 95.851889 
710.000000	 95.935607 
709.000000	 96.015818 
708.000000	 96.081051 
707.000000	 96.135883 
706.000000	 96.182666 
705.000000	 96.208113 
704.000000	 96.200133 
703.000000	 96.160027 
702.000000	 96.087290 
701.000000	 95.966830 
700.000000	 95.782953 
699.000000	 95.538434 
698.000000	 95.250707 
697.000000	 94.946414 
696.000000	 94.670731 
695.000000	 94.480174 
694.000000	 94.410885 
693.000000	 94.457436 
692.000000	 94.585618 
691.000000	 94.758456 
690.000000	 94.944691 
689.000000	 95.121857 
688.000000	 95.284046 
687.000000	 95.434598 
686.000000	 95.568627 
685.000000	 95.676406 
684.000000	 95.764863 
683.000000	 95.856359 
682.000000	 95.958879 
681.000000	 96.057580 
680.000000	 96.142012 
679.000000	 96.222750 
678.000000	 96.308044 
677.000000	 96.386573 
676.000000	 96.458789 
675.000000	 96.541534 
674.000000	 96.637483 
673.000000	 96.725898 
672.000000	 96.798887 
671.000000	 96.884483 
670.000000	 97.028446 
669.000000	 97.248035 
668.000000	 97.435982 
667.000000	 97.456499 
666.000000	 97.396039 
665.000000	 97.348344 
664.000000	 97.319365 
663.000000	 97.318264 
662.000000	 97.357427 
661.000000	 97.416564 
660.000000	 97.472783 
659.000000	 97.532394 
658.000000	 97.603014 
657.000000	 97.657861 
656.000000	 97.672334 
655.000000	 97.651235 
654.000000	 97.605748 
653.000000	 97.535611 
652.000000	 97.459634 
651.000000	 97.429345 
650.000000	 97.471692 

