4000.000000	97.566852 
3999.000000	97.565944 
3998.000000	97.564344 
3997.000000	97.562459 
3996.000000	97.560868 
3995.000000	97.559924 
3994.000000	97.559668 
3993.000000	97.559775 
3992.000000	97.559796 
3991.000000	97.559456 
3990.000000	97.558759 
3989.000000	97.557885 
3988.000000	97.557015 
3987.000000	97.556218 
3986.000000	97.555513 
3985.000000	97.554908 
3984.000000	97.554359 
3983.000000	97.553766 
3982.000000	97.553146 
3981.000000	97.552679 
3980.000000	97.552414 
3979.000000	97.552063 
3978.000000	97.551277 
3977.000000	97.550075 
3976.000000	97.548878 
3975.000000	97.548016 
3974.000000	97.547385 
3973.000000	97.546675 
3972.000000	97.545704 
3971.000000	97.544485 
3970.000000	97.543169 
3969.000000	97.542079 
3968.000000	97.541595 
3967.000000	97.541824 
3966.000000	97.542420 
3965.000000	97.542709 
3964.000000	97.542068 
3963.000000	97.540316 
3962.000000	97.537926 
3961.000000	97.535828 
3960.000000	97.534661 
3959.000000	97.534350 
3958.000000	97.534347 
3957.000000	97.534231 
3956.000000	97.533846 
3955.000000	97.533096 
3954.000000	97.531973 
3953.000000	97.530677 
3952.000000	97.529500 
3951.000000	97.528458 
3950.000000	97.527279 
3949.000000	97.525846 
3948.000000	97.524536 
3947.000000	97.524022 
3946.000000	97.524635 
3945.000000	97.525906 
3944.000000	97.526781 
3943.000000	97.526615 
3942.000000	97.525804 
3941.000000	97.525304 
3940.000000	97.525619 
3939.000000	97.526479 
3938.000000	97.527284 
3937.000000	97.527792 
3936.000000	97.527993 
3935.000000	97.527546 
3934.000000	97.525970 
3933.000000	97.523312 
3932.000000	97.520395 
3931.000000	97.518053 
3930.000000	97.516624 
3929.000000	97.516357 
3928.000000	97.517421 
3927.000000	97.519383 
3926.000000	97.520924 
3925.000000	97.521033 
3924.000000	97.520059 
3923.000000	97.518968 
3922.000000	97.518084 
3921.000000	97.517294 
3920.000000	97.516810 
3919.000000	97.516988 
3918.000000	97.517430 
3917.000000	97.517289 
3916.000000	97.516394 
3915.000000	97.515354 
3914.000000	97.514576 
3913.000000	97.513977 
3912.000000	97.513420 
3911.000000	97.513057 
3910.000000	97.512884 
3909.000000	97.512735 
3908.000000	97.512470 
3907.000000	97.512051 
3906.000000	97.511367 
3905.000000	97.510251 
3904.000000	97.508847 
3903.000000	97.507587 
3902.000000	97.506734 
3901.000000	97.506174 
3900.000000	97.505671 
3899.000000	97.505217 
3898.000000	97.504917 
3897.000000	97.504700 
3896.000000	97.504406 
3895.000000	97.504025 
3894.000000	97.503620 
3893.000000	97.503213 
3892.000000	97.502771 
3891.000000	97.502303 
3890.000000	97.501851 
3889.000000	97.501428 
3888.000000	97.501012 
3887.000000	97.500583 
3886.000000	97.500132 
3885.000000	97.499663 
3884.000000	97.499181 
3883.000000	97.498691 
3882.000000	97.498188 
3881.000000	97.497679 
3880.000000	97.497182 
3879.000000	97.496714 
3878.000000	97.496275 
3877.000000	97.495853 
3876.000000	97.495429 
3875.000000	97.494991 
3874.000000	97.494533 
3873.000000	97.494054 
3872.000000	97.493548 
3871.000000	97.493005 
3870.000000	97.492428 
3869.000000	97.491835 
3868.000000	97.491238 
3867.000000	97.490628 
3866.000000	97.489987 
3865.000000	97.489317 
3864.000000	97.488630 
3863.000000	97.487929 
3862.000000	97.487199 
3861.000000	97.486430 
3860.000000	97.485623 
3859.000000	97.484786 
3858.000000	97.483924 
3857.000000	97.483045 
3856.000000	97.482170 
3855.000000	97.481298 
3854.000000	97.480385 
3853.000000	97.479439 
3852.000000	97.478542 
3851.000000	97.477745 
3850.000000	97.477021 
3849.000000	97.476330 
3848.000000	97.475711 
3847.000000	97.475202 
3846.000000	97.474675 
3845.000000	97.473962 
3844.000000	97.473002 
3843.000000	97.471846 
3842.000000	97.470626 
3841.000000	97.469479 
3840.000000	97.468440 
3839.000000	97.467603 
3838.000000	97.467057 
3837.000000	97.466692 
3836.000000	97.466307 
3835.000000	97.465831 
3834.000000	97.465324 
3833.000000	97.464823 
3832.000000	97.464324 
3831.000000	97.463876 
3830.000000	97.463514 
3829.000000	97.463222 
3828.000000	97.462926 
3827.000000	97.462537 
3826.000000	97.462098 
3825.000000	97.461894 
3824.000000	97.462032 
3823.000000	97.462234 
3822.000000	97.462094 
3821.000000	97.461704 
3820.000000	97.461601 
3819.000000	97.462010 
3818.000000	97.462722 
3817.000000	97.463322 
3816.000000	97.463839 
3815.000000	97.464634 
3814.000000	97.465622 
3813.000000	97.466302 
3812.000000	97.466480 
3811.000000	97.466524 
3810.000000	97.466962 
3809.000000	97.467842 
3808.000000	97.468627 
3807.000000	97.468868 
3806.000000	97.468752 
3805.000000	97.468754 
3804.000000	97.468962 
3803.000000	97.469075 
3802.000000	97.468980 
3801.000000	97.469350 
3800.000000	97.470672 
3799.000000	97.472381 
3798.000000	97.473597 
3797.000000	97.474179 
3796.000000	97.474864 
3795.000000	97.476231 
3794.000000	97.477835 
3793.000000	97.478754 
3792.000000	97.478900 
3791.000000	97.479095 
3790.000000	97.479653 
3789.000000	97.479922 
3788.000000	97.479416 
3787.000000	97.478545 
3786.000000	97.477877 
3785.000000	97.477325 
3784.000000	97.476646 
3783.000000	97.476068 
3782.000000	97.475577 
3781.000000	97.474754 
3780.000000	97.473738 
3779.000000	97.473736 
3778.000000	97.475366 
3777.000000	97.477487 
3776.000000	97.477967 
3775.000000	97.475860 
3774.000000	97.472398 
3773.000000	97.469654 
3772.000000	97.467970 
3771.000000	97.466059 
3770.000000	97.463742 
3769.000000	97.462508 
3768.000000	97.462824 
3767.000000	97.463327 
3766.000000	97.462663 
3765.000000	97.461453 
3764.000000	97.461671 
3763.000000	97.463701 
3762.000000	97.465155 
3761.000000	97.463837 
3760.000000	97.460646 
3759.000000	97.458024 
3758.000000	97.455577 
3757.000000	97.451806 
3756.000000	97.447422 
3755.000000	97.443852 
3754.000000	97.440879 
3753.000000	97.437656 
3752.000000	97.435661 
3751.000000	97.436136 
3750.000000	97.435922 
3749.000000	97.432602 
3748.000000	97.429519 
3747.000000	97.430352 
3746.000000	97.433229 
3745.000000	97.433510 
3744.000000	97.432868 
3743.000000	97.434797 
3742.000000	97.437218 
3741.000000	97.436892 
3740.000000	97.434470 
3739.000000	97.433843 
3738.000000	97.436171 
3737.000000	97.437761 
3736.000000	97.436175 
3735.000000	97.434292 
3734.000000	97.435286 
3733.000000	97.437283 
3732.000000	97.437270 
3731.000000	97.435652 
3730.000000	97.434530 
3729.000000	97.434447 
3728.000000	97.433987 
3727.000000	97.432159 
3726.000000	97.430214 
3725.000000	97.429648 
3724.000000	97.430102 
3723.000000	97.430497 
3722.000000	97.430644 
3721.000000	97.430613 
3720.000000	97.429873 
3719.000000	97.428265 
3718.000000	97.425909 
3717.000000	97.423325 
3716.000000	97.421200 
3715.000000	97.419049 
3714.000000	97.415529 
3713.000000	97.410510 
3712.000000	97.406210 
3711.000000	97.404735 
3710.000000	97.405538 
3709.000000	97.406840 
3708.000000	97.407193 
3707.000000	97.405896 
3706.000000	97.403302 
3705.000000	97.400401 
3704.000000	97.397976 
3703.000000	97.396052 
3702.000000	97.393860 
3701.000000	97.390461 
3700.000000	97.385806 
3699.000000	97.380955 
3698.000000	97.376390 
3697.000000	97.371628 
3696.000000	97.367013 
3695.000000	97.362730 
3694.000000	97.357044 
3693.000000	97.348682 
3692.000000	97.340127 
3691.000000	97.336302 
3690.000000	97.338837 
3689.000000	97.344205 
3688.000000	97.347638 
3687.000000	97.347504 
3686.000000	97.344234 
3685.000000	97.337651 
3684.000000	97.328716 
3683.000000	97.321318 
3682.000000	97.317924 
3681.000000	97.314331 
3680.000000	97.304856 
3679.000000	97.290907 
3678.000000	97.279914 
3677.000000	97.273725 
3676.000000	97.267745 
3675.000000	97.261134 
3674.000000	97.255535 
3673.000000	97.250359 
3672.000000	97.242900 
3671.000000	97.232628 
3670.000000	97.226105 
3669.000000	97.228201 
3668.000000	97.232240 
3667.000000	97.230276 
3666.000000	97.222966 
3665.000000	97.215106 
3664.000000	97.208756 
3663.000000	97.201835 
3662.000000	97.191029 
3661.000000	97.175950 
3660.000000	97.160535 
3659.000000	97.148244 
3658.000000	97.138095 
3657.000000	97.124784 
3656.000000	97.106919 
3655.000000	97.089741 
3654.000000	97.077658 
3653.000000	97.068680 
3652.000000	97.056227 
3651.000000	97.037608 
3650.000000	97.019094 
3649.000000	97.005691 
3648.000000	96.993561 
3647.000000	96.980624 
3646.000000	96.971424 
3645.000000	96.969484 
3644.000000	96.972329 
3643.000000	96.974530 
3642.000000	96.972254 
3641.000000	96.965670 
3640.000000	96.956591 
3639.000000	96.946104 
3638.000000	96.935929 
3637.000000	96.927075 
3636.000000	96.915986 
3635.000000	96.894873 
3634.000000	96.861995 
3633.000000	96.827482 
3632.000000	96.803360 
3631.000000	96.789803 
3630.000000	96.776562 
3629.000000	96.762522 
3628.000000	96.757985 
3627.000000	96.764836 
3626.000000	96.774786 
3625.000000	96.781389 
3624.000000	96.785048 
3623.000000	96.790043 
3622.000000	96.797527 
3621.000000	96.802860 
3620.000000	96.801393 
3619.000000	96.793953 
3618.000000	96.784230 
3617.000000	96.776287 
3616.000000	96.774531 
3615.000000	96.780198 
3614.000000	96.791340 
3613.000000	96.806589 
3612.000000	96.825395 
3611.000000	96.844461 
3610.000000	96.857554 
3609.000000	96.860817 
3608.000000	96.857023 
3607.000000	96.852732 
3606.000000	96.852180 
3605.000000	96.856645 
3604.000000	96.866050 
3603.000000	96.878475 
3602.000000	96.890487 
3601.000000	96.899195 
3600.000000	96.905470 
3599.000000	96.911214 
3598.000000	96.915279 
3597.000000	96.914558 
3596.000000	96.908795 
3595.000000	96.900677 
3594.000000	96.894403 
3593.000000	96.892984 
3592.000000	96.896804 
3591.000000	96.904290 
3590.000000	96.912043 
3589.000000	96.916254 
3588.000000	96.916105 
3587.000000	96.913908 
3586.000000	96.910956 
3585.000000	96.907176 
3584.000000	96.903895 
3583.000000	96.903415 
3582.000000	96.906729 
3581.000000	96.911622 
3580.000000	96.914105 
3579.000000	96.911522 
3578.000000	96.904562 
3577.000000	96.896566 
3576.000000	96.890876 
3575.000000	96.888573 
3574.000000	96.888362 
3573.000000	96.888535 
3572.000000	96.888277 
3571.000000	96.887607 
3570.000000	96.886135 
3569.000000	96.882768 
3568.000000	96.877738 
3567.000000	96.873928 
3566.000000	96.873943 
3565.000000	96.877463 
3564.000000	96.882430 
3563.000000	96.886866 
3562.000000	96.889515 
3561.000000	96.889942 
3560.000000	96.888496 
3559.000000	96.886098 
3558.000000	96.883736 
3557.000000	96.882055 
3556.000000	96.881234 
3555.000000	96.881026 
3554.000000	96.880869 
3553.000000	96.880255 
3552.000000	96.879165 
3551.000000	96.878060 
3550.000000	96.877434 
3549.000000	96.877329 
3548.000000	96.877397 
3547.000000	96.877294 
3546.000000	96.876985 
3545.000000	96.876643 
3544.000000	96.876388 
3543.000000	96.876213 
3542.000000	96.876076 
3541.000000	96.875958 
3540.000000	96.875849 
3539.000000	96.875740 
3538.000000	96.875639 
3537.000000	96.875558 
3536.000000	96.875505 
3535.000000	96.875478 
3534.000000	96.875469 
3533.000000	96.875468 
3532.000000	96.875474 
3531.000000	96.875493 
3530.000000	96.875528 
3529.000000	96.875572 
3528.000000	96.875609 
3527.000000	96.875620 
3526.000000	96.875596 
3525.000000	96.875537 
3524.000000	96.875455 
3523.000000	96.875364 
3522.000000	96.875275 
3521.000000	96.875195 
3520.000000	96.875124 
3519.000000	96.875067 
3518.000000	96.875027 
3517.000000	96.875005 
3516.000000	96.874993 
3515.000000	96.874979 
3514.000000	96.874957 
3513.000000	96.874925 
3512.000000	96.874885 
3511.000000	96.874827 
3510.000000	96.874754 
3509.000000	96.874659 
3508.000000	96.874500 
3507.000000	96.874268 
3506.000000	96.873995 
3505.000000	96.873724 
3504.000000	96.873479 
3503.000000	96.873241 
3502.000000	96.872941 
3501.000000	96.872491 
3500.000000	96.871887 
3499.000000	96.871268 
3498.000000	96.870817 
3497.000000	96.870570 
3496.000000	96.870303 
3495.000000	96.869737 
3494.000000	96.868876 
3493.000000	96.868060 
3492.000000	96.867593 
3491.000000	96.867416 
3490.000000	96.867250 
3489.000000	96.866933 
3488.000000	96.866457 
3487.000000	96.865726 
3486.000000	96.864600 
3485.000000	96.863289 
3484.000000	96.862451 
3483.000000	96.862608 
3482.000000	96.863487 
3481.000000	96.864114 
3480.000000	96.863713 
3479.000000	96.862355 
3478.000000	96.860643 
3477.000000	96.858921 
3476.000000	96.857026 
3475.000000	96.854773 
3474.000000	96.852446 
3473.000000	96.850673 
3472.000000	96.849774 
3471.000000	96.849333 
3470.000000	96.848492 
3469.000000	96.846761 
3468.000000	96.844441 
3467.000000	96.842315 
3466.000000	96.840895 
3465.000000	96.839971 
3464.000000	96.838874 
3463.000000	96.837157 
3462.000000	96.834992 
3461.000000	96.832881 
3460.000000	96.831041 
3459.000000	96.829189 
3458.000000	96.826963 
3457.000000	96.824432 
3456.000000	96.822151 
3455.000000	96.820628 
3454.000000	96.819852 
3453.000000	96.819302 
3452.000000	96.818384 
3451.000000	96.816928 
3450.000000	96.815157 
3449.000000	96.813358 
3448.000000	96.811629 
3447.000000	96.809913 
3446.000000	96.808180 
3445.000000	96.806533 
3444.000000	96.805104 
3443.000000	96.803904 
3442.000000	96.802760 
3441.000000	96.801437 
3440.000000	96.799843 
3439.000000	96.798089 
3438.000000	96.796353 
3437.000000	96.794740 
3436.000000	96.793277 
3435.000000	96.792007 
3434.000000	96.790972 
3433.000000	96.790111 
3432.000000	96.789255 
3431.000000	96.788262 
3430.000000	96.787122 
3429.000000	96.785921 
3428.000000	96.784731 
3427.000000	96.783558 
3426.000000	96.782406 
3425.000000	96.781317 
3424.000000	96.780334 
3423.000000	96.779445 
3422.000000	96.778552 
3421.000000	96.777568 
3420.000000	96.776497 
3419.000000	96.775433 
3418.000000	96.774459 
3417.000000	96.773599 
3416.000000	96.772842 
3415.000000	96.772130 
3414.000000	96.771343 
3413.000000	96.770385 
3412.000000	96.769311 
3411.000000	96.768320 
3410.000000	96.767554 
3409.000000	96.766963 
3408.000000	96.766395 
3407.000000	96.765810 
3406.000000	96.765278 
3405.000000	96.764803 
3404.000000	96.764222 
3403.000000	96.763315 
3402.000000	96.762014 
3401.000000	96.760539 
3400.000000	96.759333 
3399.000000	96.758721 
3398.000000	96.758674 
3397.000000	96.758854 
3396.000000	96.758929 
3395.000000	96.758787 
3394.000000	96.758427 
3393.000000	96.757790 
3392.000000	96.756825 
3391.000000	96.755705 
3390.000000	96.754785 
3389.000000	96.754273 
3388.000000	96.754014 
3387.000000	96.753691 
3386.000000	96.753200 
3385.000000	96.752633 
3384.000000	96.751958 
3383.000000	96.751040 
3382.000000	96.750135 
3381.000000	96.750021 
3380.000000	96.751240 
3379.000000	96.753376 
3378.000000	96.755281 
3377.000000	96.756124 
3376.000000	96.755926 
3375.000000	96.755232 
3374.000000	96.754610 
3373.000000	96.754366 
3372.000000	96.754559 
3371.000000	96.755114 
3370.000000	96.755898 
3369.000000	96.756822 
3368.000000	96.757821 
3367.000000	96.758715 
3366.000000	96.759270 
3365.000000	96.759426 
3364.000000	96.759402 
3363.000000	96.759529 
3362.000000	96.759969 
3361.000000	96.760665 
3360.000000	96.761486 
3359.000000	96.762356 
3358.000000	96.763231 
3357.000000	96.764038 
3356.000000	96.764697 
3355.000000	96.765230 
3354.000000	96.765787 
3353.000000	96.766529 
3352.000000	96.767474 
3351.000000	96.768445 
3350.000000	96.769215 
3349.000000	96.769706 
3348.000000	96.770011 
3347.000000	96.770314 
3346.000000	96.770747 
3345.000000	96.771321 
3344.000000	96.771976 
3343.000000	96.772648 
3342.000000	96.773331 
3341.000000	96.774058 
3340.000000	96.774811 
3339.000000	96.775540 
3338.000000	96.776215 
3337.000000	96.776839 
3336.000000	96.777425 
3335.000000	96.777992 
3334.000000	96.778559 
3333.000000	96.779132 
3332.000000	96.779707 
3331.000000	96.780284 
3330.000000	96.780874 
3329.000000	96.781489 
3328.000000	96.782126 
3327.000000	96.782763 
3326.000000	96.783376 
3325.000000	96.783950 
3324.000000	96.784493 
3323.000000	96.785028 
3322.000000	96.785576 
3321.000000	96.786145 
3320.000000	96.786733 
3319.000000	96.787330 
3318.000000	96.787926 
3317.000000	96.788512 
3316.000000	96.789083 
3315.000000	96.789638 
3314.000000	96.790185 
3313.000000	96.790737 
3312.000000	96.791307 
3311.000000	96.791903 
3310.000000	96.792525 
3309.000000	96.793166 
3308.000000	96.793813 
3307.000000	96.794445 
3306.000000	96.795039 
3305.000000	96.795585 
3304.000000	96.796089 
3303.000000	96.796578 
3302.000000	96.797081 
3301.000000	96.797610 
3300.000000	96.798151 
3299.000000	96.798675 
3298.000000	96.799157 
3297.000000	96.799603 
3296.000000	96.800040 
3295.000000	96.800501 
3294.000000	96.801004 
3293.000000	96.801548 
3292.000000	96.802122 
3291.000000	96.802719 
3290.000000	96.803332 
3289.000000	96.803952 
3288.000000	96.804559 
3287.000000	96.805140 
3286.000000	96.805691 
3285.000000	96.806231 
3284.000000	96.806790 
3283.000000	96.807394 
3282.000000	96.808046 
3281.000000	96.808732 
3280.000000	96.809431 
3279.000000	96.810128 
3278.000000	96.810826 
3277.000000	96.811533 
3276.000000	96.812257 
3275.000000	96.813004 
3274.000000	96.813774 
3273.000000	96.814567 
3272.000000	96.815377 
3271.000000	96.816193 
3270.000000	96.817003 
3269.000000	96.817795 
3268.000000	96.818557 
3267.000000	96.819284 
3266.000000	96.819969 
3265.000000	96.820615 
3264.000000	96.821253 
3263.000000	96.821945 
3262.000000	96.822760 
3261.000000	96.823695 
3260.000000	96.824626 
3259.000000	96.825346 
3258.000000	96.825777 
3257.000000	96.826163 
3256.000000	96.826939 
3255.000000	96.828291 
3254.000000	96.829879 
3253.000000	96.831209 
3252.000000	96.832230 
3251.000000	96.833329 
3250.000000	96.834725 
3249.000000	96.836074 
3248.000000	96.836866 
3247.000000	96.837039 
3246.000000	96.837015 
3245.000000	96.837186 
3244.000000	96.837520 
3243.000000	96.837726 
3242.000000	96.837716 
3241.000000	96.837858 
3240.000000	96.838717 
3239.000000	96.840567 
3238.000000	96.843198 
3237.000000	96.846000 
3236.000000	96.848179 
3235.000000	96.849191 
3234.000000	96.849038 
3233.000000	96.848302 
3232.000000	96.847768 
3231.000000	96.847752 
3230.000000	96.847980 
3229.000000	96.848152 
3228.000000	96.848460 
3227.000000	96.849361 
3226.000000	96.850890 
3225.000000	96.852495 
3224.000000	96.853638 
3223.000000	96.854391 
3222.000000	96.855298 
3221.000000	96.856782 
3220.000000	96.858768 
3219.000000	96.860784 
3218.000000	96.862323 
3217.000000	96.863156 
3216.000000	96.863446 
3215.000000	96.863670 
3214.000000	96.864337 
3213.000000	96.865651 
3212.000000	96.867440 
3211.000000	96.869314 
3210.000000	96.870955 
3209.000000	96.872292 
3208.000000	96.873446 
3207.000000	96.874570 
3206.000000	96.875741 
3205.000000	96.876970 
3204.000000	96.878275 
3203.000000	96.879711 
3202.000000	96.881340 
3201.000000	96.883194 
3200.000000	96.885251 
3199.000000	96.887409 
3198.000000	96.889476 
3197.000000	96.891253 
3196.000000	96.892693 
3195.000000	96.893959 
3194.000000	96.895311 
3193.000000	96.896908 
3192.000000	96.898710 
3191.000000	96.900508 
3190.000000	96.902062 
3189.000000	96.903289 
3188.000000	96.904388 
3187.000000	96.905746 
3186.000000	96.907604 
3185.000000	96.909854 
3184.000000	96.912162 
3183.000000	96.914354 
3182.000000	96.916567 
3181.000000	96.918971 
3180.000000	96.921408 
3179.000000	96.923427 
3178.000000	96.924709 
3177.000000	96.925393 
3176.000000	96.926081 
3175.000000	96.927422 
3174.000000	96.929691 
3173.000000	96.932669 
3172.000000	96.935761 
3171.000000	96.938349 
3170.000000	96.940155 
3169.000000	96.941395 
3168.000000	96.942607 
3167.000000	96.944197 
3166.000000	96.946083 
3165.000000	96.947793 
3164.000000	96.948908 
3163.000000	96.949425 
3162.000000	96.949717 
3161.000000	96.950191 
3160.000000	96.951023 
3159.000000	96.952216 
3158.000000	96.953793 
3157.000000	96.955862 
3156.000000	96.958514 
3155.000000	96.961692 
3154.000000	96.965061 
3153.000000	96.968001 
3152.000000	96.969871 
3151.000000	96.970422 
3150.000000	96.970024 
3149.000000	96.969481 
3148.000000	96.969489 
3147.000000	96.970292 
3146.000000	96.971765 
3145.000000	96.973671 
3144.000000	96.975828 
3143.000000	96.978044 
3142.000000	96.979999 
3141.000000	96.981306 
3140.000000	96.981776 
3139.000000	96.981668 
3138.000000	96.981638 
3137.000000	96.982317 
3136.000000	96.983903 
3135.000000	96.986048 
3134.000000	96.988086 
3133.000000	96.989480 
3132.000000	96.990129 
3131.000000	96.990435 
3130.000000	96.991018 
3129.000000	96.992250 
3128.000000	96.994064 
3127.000000	96.996151 
3126.000000	96.998277 
3125.000000	97.000348 
3124.000000	97.002284 
3123.000000	97.004013 
3122.000000	97.005525 
3121.000000	97.006858 
3120.000000	97.008118 
3119.000000	97.009531 
3118.000000	97.011369 
3117.000000	97.013633 
3116.000000	97.015885 
3115.000000	97.017594 
3114.000000	97.018674 
3113.000000	97.019583 
3112.000000	97.020870 
3111.000000	97.022678 
3110.000000	97.024744 
3109.000000	97.026683 
3108.000000	97.028298 
3107.000000	97.029748 
3106.000000	97.031351 
3105.000000	97.033062 
3104.000000	97.034317 
3103.000000	97.034676 
3102.000000	97.034491 
3101.000000	97.034608 
3100.000000	97.035412 
3099.000000	97.036687 
3098.000000	97.038393 
3097.000000	97.040872 
3096.000000	97.044041 
3095.000000	97.047169 
3094.000000	97.049889 
3093.000000	97.052706 
3092.000000	97.055941 
3091.000000	97.058793 
3090.000000	97.060232 
3089.000000	97.060400 
3088.000000	97.060367 
3087.000000	97.060791 
3086.000000	97.061573 
3085.000000	97.062616 
3084.000000	97.064101 
3083.000000	97.065963 
3082.000000	97.067753 
3081.000000	97.069131 
3080.000000	97.069993 
3079.000000	97.070108 
3078.000000	97.069311 
3077.000000	97.068193 
3076.000000	97.067995 
3075.000000	97.069429 
3074.000000	97.072074 
3073.000000	97.075056 
3072.000000	97.077993 
3071.000000	97.080905 
3070.000000	97.083516 
3069.000000	97.085218 
3068.000000	97.085724 
3067.000000	97.085390 
3066.000000	97.084895 
3065.000000	97.084822 
3064.000000	97.085374 
3063.000000	97.086249 
3062.000000	97.086864 
3061.000000	97.086877 
3060.000000	97.086466 
3059.000000	97.086104 
3058.000000	97.086171 
3057.000000	97.086801 
3056.000000	97.087853 
3055.000000	97.088852 
3054.000000	97.089228 
3053.000000	97.088813 
3052.000000	97.087994 
3051.000000	97.087323 
3050.000000	97.087007 
3049.000000	97.086948 
3048.000000	97.087090 
3047.000000	97.087449 
3046.000000	97.087868 
3045.000000	97.088010 
3044.000000	97.087740 
3043.000000	97.087330 
3042.000000	97.087172 
3041.000000	97.087309 
3040.000000	97.087379 
3039.000000	97.087067 
3038.000000	97.086458 
3037.000000	97.085886 
3036.000000	97.085504 
3035.000000	97.085127 
3034.000000	97.084506 
3033.000000	97.083612 
3032.000000	97.082604 
3031.000000	97.081650 
3030.000000	97.080806 
3029.000000	97.080061 
3028.000000	97.079359 
3027.000000	97.078591 
3026.000000	97.077618 
3025.000000	97.076381 
3024.000000	97.075011 
3023.000000	97.073772 
3022.000000	97.072831 
3021.000000	97.072200 
3020.000000	97.071823 
3019.000000	97.071587 
3018.000000	97.071217 
3017.000000	97.070374 
3016.000000	97.068953 
3015.000000	97.067226 
3014.000000	97.065644 
3013.000000	97.064525 
3012.000000	97.063993 
3011.000000	97.063986 
3010.000000	97.064178 
3009.000000	97.064095 
3008.000000	97.063422 
3007.000000	97.062188 
3006.000000	97.060686 
3005.000000	97.059307 
3004.000000	97.058366 
3003.000000	97.057841 
3002.000000	97.057264 
3001.000000	97.056197 
3000.000000	97.054832 
2999.000000	97.053738 
2998.000000	97.052942 
2997.000000	97.051759 
2996.000000	97.049726 
2995.000000	97.047299 
2994.000000	97.045355 
2993.000000	97.044364 
2992.000000	97.044253 
2991.000000	97.044637 
2990.000000	97.044770 
2989.000000	97.043760 
2988.000000	97.041447 
2987.000000	97.038941 
2986.000000	97.037878 
2985.000000	97.039210 
2984.000000	97.042838 
2983.000000	97.047868 
2982.000000	97.052871 
2981.000000	97.056281 
2980.000000	97.057168 
2979.000000	97.055833 
2978.000000	97.053476 
2977.000000	97.051343 
2976.000000	97.050294 
2975.000000	97.050753 
2974.000000	97.052556 
2973.000000	97.054943 
2972.000000	97.057092 
2971.000000	97.058532 
2970.000000	97.058956 
2969.000000	97.058091 
2968.000000	97.056242 
2967.000000	97.054646 
2966.000000	97.054583 
2965.000000	97.056226 
2964.000000	97.058840 
2963.000000	97.061907 
2962.000000	97.065375 
2961.000000	97.068802 
2960.000000	97.071121 
2959.000000	97.071745 
2958.000000	97.071480 
2957.000000	97.071917 
2956.000000	97.074042 
2955.000000	97.077659 
2954.000000	97.081922 
2953.000000	97.086157 
2952.000000	97.090214 
2951.000000	97.094160 
2950.000000	97.097684 
2949.000000	97.099982 
2948.000000	97.100519 
2947.000000	97.099859 
2946.000000	97.099425 
2945.000000	97.100182 
2944.000000	97.101698 
2943.000000	97.102542 
2942.000000	97.101457 
2941.000000	97.098226 
2940.000000	97.093919 
2939.000000	97.090483 
2938.000000	97.089596 
2937.000000	97.091573 
2936.000000	97.095275 
2935.000000	97.098987 
2934.000000	97.101344 
2933.000000	97.101620 
2932.000000	97.099820 
2931.000000	97.096967 
2930.000000	97.094917 
2929.000000	97.095258 
2928.000000	97.098288 
2927.000000	97.102991 
2926.000000	97.107763 
2925.000000	97.111367 
2924.000000	97.113534 
2923.000000	97.114963 
2922.000000	97.116477 
2921.000000	97.117989 
2920.000000	97.118715 
2919.000000	97.118630 
2918.000000	97.118999 
2917.000000	97.120755 
2916.000000	97.122850 
2915.000000	97.123254 
2914.000000	97.121465 
2913.000000	97.119085 
2912.000000	97.117867 
2911.000000	97.117865 
2910.000000	97.118051 
2909.000000	97.117984 
2908.000000	97.118181 
2907.000000	97.119125 
2906.000000	97.120530 
2905.000000	97.121643 
2904.000000	97.121861 
2903.000000	97.121313 
2902.000000	97.120951 
2901.000000	97.121869 
2900.000000	97.124393 
2899.000000	97.127659 
2898.000000	97.130484 
2897.000000	97.132498 
2896.000000	97.134036 
2895.000000	97.135222 
2894.000000	97.135880 
2893.000000	97.136324 
2892.000000	97.137396 
2891.000000	97.139417 
2890.000000	97.141704 
2889.000000	97.143597 
2888.000000	97.145404 
2887.000000	97.147681 
2886.000000	97.150087 
2885.000000	97.151712 
2884.000000	97.152396 
2883.000000	97.153029 
2882.000000	97.154505 
2881.000000	97.156729 
2880.000000	97.159023 
2879.000000	97.161038 
2878.000000	97.162973 
2877.000000	97.165022 
2876.000000	97.167090 
2875.000000	97.169042 
2874.000000	97.170928 
2873.000000	97.172885 
2872.000000	97.174955 
2871.000000	97.177075 
2870.000000	97.179177 
2869.000000	97.181248 
2868.000000	97.183310 
2867.000000	97.185390 
2866.000000	97.187495 
2865.000000	97.189580 
2864.000000	97.191577 
2863.000000	97.193488 
2862.000000	97.195409 
2861.000000	97.197443 
2860.000000	97.199570 
2859.000000	97.201666 
2858.000000	97.203635 
2857.000000	97.205494 
2856.000000	97.207372 
2855.000000	97.209416 
2854.000000	97.211653 
2853.000000	97.213926 
2852.000000	97.216000 
2851.000000	97.217732 
2850.000000	97.219169 
2849.000000	97.220524 
2848.000000	97.222047 
2847.000000	97.223897 
2846.000000	97.226069 
2845.000000	97.228407 
2844.000000	97.230743 
2843.000000	97.233054 
2842.000000	97.235438 
2841.000000	97.237855 
2840.000000	97.239982 
2839.000000	97.241518 
2838.000000	97.242686 
2837.000000	97.244150 
2836.000000	97.246328 
2835.000000	97.249006 
2834.000000	97.251642 
2833.000000	97.253857 
2832.000000	97.255504 
2831.000000	97.256573 
2830.000000	97.257209 
2829.000000	97.257594 
2828.000000	97.257716 
2827.000000	97.257538 
2826.000000	97.257492 
2825.000000	97.258400 
2824.000000	97.260555 
2823.000000	97.263110 
2822.000000	97.264779 
2821.000000	97.265095 
2820.000000	97.264742 
2819.000000	97.264816 
2818.000000	97.266012 
2817.000000	97.268396 
2816.000000	97.271520 
2815.000000	97.274632 
2814.000000	97.277012 
2813.000000	97.278245 
2812.000000	97.278244 
2811.000000	97.277283 
2810.000000	97.276130 
2809.000000	97.275905 
2808.000000	97.277274 
2807.000000	97.279686 
2806.000000	97.281625 
2805.000000	97.281745 
2804.000000	97.279747 
2803.000000	97.276346 
2802.000000	97.272786 
2801.000000	97.270307 
2800.000000	97.269673 
2799.000000	97.270779 
2798.000000	97.272598 
2797.000000	97.273740 
2796.000000	97.273500 
2795.000000	97.272590 
2794.000000	97.272798 
2793.000000	97.275657 
2792.000000	97.281225 
2791.000000	97.287921 
2790.000000	97.293526 
2789.000000	97.296564 
2788.000000	97.297084 
2787.000000	97.296545 
2786.000000	97.296844 
2785.000000	97.298905 
2784.000000	97.302042 
2783.000000	97.304895 
2782.000000	97.306897 
2781.000000	97.308506 
2780.000000	97.310091 
2779.000000	97.311223 
2778.000000	97.311259 
2777.000000	97.310080 
2776.000000	97.307987 
2775.000000	97.305355 
2774.000000	97.302746 
2773.000000	97.300904 
2772.000000	97.300232 
2771.000000	97.300558 
2770.000000	97.301716 
2769.000000	97.303990 
2768.000000	97.307624 
2767.000000	97.312255 
2766.000000	97.317228 
2765.000000	97.322222 
2764.000000	97.327168 
2763.000000	97.331797 
2762.000000	97.335668 
2761.000000	97.338575 
2760.000000	97.340715 
2759.000000	97.342589 
2758.000000	97.344697 
2757.000000	97.346842 
2756.000000	97.347783 
2755.000000	97.346407 
2754.000000	97.343507 
2753.000000	97.341592 
2752.000000	97.342251 
2751.000000	97.344463 
2750.000000	97.346199 
2749.000000	97.346746 
2748.000000	97.346372 
2747.000000	97.344520 
2746.000000	97.340190 
2745.000000	97.334227 
2744.000000	97.329689 
2743.000000	97.329076 
2742.000000	97.332138 
2741.000000	97.336581 
2740.000000	97.340280 
2739.000000	97.342399 
2738.000000	97.342996 
2737.000000	97.342669 
2736.000000	97.342486 
2735.000000	97.343497 
2734.000000	97.346005 
2733.000000	97.349408 
2732.000000	97.352708 
2731.000000	97.355057 
2730.000000	97.356044 
2729.000000	97.355767 
2728.000000	97.354593 
2727.000000	97.352771 
2726.000000	97.350413 
2725.000000	97.347924 
2724.000000	97.346083 
2723.000000	97.345358 
2722.000000	97.345316 
2721.000000	97.345088 
2720.000000	97.344429 
2719.000000	97.343929 
2718.000000	97.344084 
2717.000000	97.344577 
2716.000000	97.344802 
2715.000000	97.344946 
2714.000000	97.345995 
2713.000000	97.348502 
2712.000000	97.351760 
2711.000000	97.354366 
2710.000000	97.355537 
2709.000000	97.355622 
2708.000000	97.355508 
2707.000000	97.355825 
2706.000000	97.356699 
2705.000000	97.357842 
2704.000000	97.358622 
2703.000000	97.358380 
2702.000000	97.357029 
2701.000000	97.355336 
2700.000000	97.354396 
2699.000000	97.354685 
2698.000000	97.355758 
2697.000000	97.356699 
2696.000000	97.356838 
2695.000000	97.356171 
2694.000000	97.355219 
2693.000000	97.354607 
2692.000000	97.354656 
2691.000000	97.355318 
2690.000000	97.356353 
2689.000000	97.357458 
2688.000000	97.358285 
2687.000000	97.358578 
2686.000000	97.358406 
2685.000000	97.358202 
2684.000000	97.358386 
2683.000000	97.358959 
2682.000000	97.359563 
2681.000000	97.359897 
2680.000000	97.359960 
2679.000000	97.359936 
2678.000000	97.360025 
2677.000000	97.360330 
2676.000000	97.360677 
2675.000000	97.360564 
2674.000000	97.359574 
2673.000000	97.357928 
2672.000000	97.356505 
2671.000000	97.356020 
2670.000000	97.356364 
2669.000000	97.356806 
2668.000000	97.356815 
2667.000000	97.356434 
2666.000000	97.355900 
2665.000000	97.355304 
2664.000000	97.354787 
2663.000000	97.354781 
2662.000000	97.355742 
2661.000000	97.357648 
2660.000000	97.359814 
2659.000000	97.361285 
2658.000000	97.361490 
2657.000000	97.360526 
2656.000000	97.358895 
2655.000000	97.356974 
2654.000000	97.354727 
2653.000000	97.352118 
2652.000000	97.349695 
2651.000000	97.348430 
2650.000000	97.348848 
2649.000000	97.350450 
2648.000000	97.352135 
2647.000000	97.353170 
2646.000000	97.353464 
2645.000000	97.353064 
2644.000000	97.351914 
2643.000000	97.350265 
2642.000000	97.348861 
2641.000000	97.348262 
2640.000000	97.348189 
2639.000000	97.347969 
2638.000000	97.347554 
2637.000000	97.347583 
2636.000000	97.348449 
2635.000000	97.349854 
2634.000000	97.351354 
2633.000000	97.352814 
2632.000000	97.354005 
2631.000000	97.354299 
2630.000000	97.353381 
2629.000000	97.351967 
2628.000000	97.351250 
2627.000000	97.351618 
2626.000000	97.352441 
2625.000000	97.353086 
2624.000000	97.353610 
2623.000000	97.354340 
2622.000000	97.355151 
2621.000000	97.355343 
2620.000000	97.354111 
2619.000000	97.351179 
2618.000000	97.347329 
2617.000000	97.344217 
2616.000000	97.343110 
2615.000000	97.343787 
2614.000000	97.344796 
2613.000000	97.344902 
2612.000000	97.344170 
2611.000000	97.343556 
2610.000000	97.343813 
2609.000000	97.344835 
2608.000000	97.345731 
2607.000000	97.345502 
2606.000000	97.343985 
2605.000000	97.342261 
2604.000000	97.341751 
2603.000000	97.342781 
2602.000000	97.344397 
2601.000000	97.345582 
2600.000000	97.346111 
2599.000000	97.346014 
2598.000000	97.344899 
2597.000000	97.342324 
2596.000000	97.338407 
2595.000000	97.333790 
2594.000000	97.329405 
2593.000000	97.326508 
2592.000000	97.326304 
2591.000000	97.328806 
2590.000000	97.332520 
2589.000000	97.335781 
2588.000000	97.338105 
2587.000000	97.339786 
2586.000000	97.340790 
2585.000000	97.340873 
2584.000000	97.340453 
2583.000000	97.340547 
2582.000000	97.341802 
2581.000000	97.343984 
2580.000000	97.346308 
2579.000000	97.347999 
2578.000000	97.348747 
2577.000000	97.348932 
2576.000000	97.349165 
2575.000000	97.349419 
2574.000000	97.348973 
2573.000000	97.347398 
2572.000000	97.345023 
2571.000000	97.342143 
2570.000000	97.338641 
2569.000000	97.335036 
2568.000000	97.333100 
2567.000000	97.334339 
2566.000000	97.338190 
2565.000000	97.342517 
2564.000000	97.345825 
2563.000000	97.348209 
2562.000000	97.350245 
2561.000000	97.352079 
2560.000000	97.353893 
2559.000000	97.356384 
2558.000000	97.360120 
2557.000000	97.364821 
2556.000000	97.369679 
2555.000000	97.373980 
2554.000000	97.376951 
2553.000000	97.377450 
2552.000000	97.374793 
2551.000000	97.370217 
2550.000000	97.366720 
2549.000000	97.366272 
2548.000000	97.367570 
2547.000000	97.367538 
2546.000000	97.365116 
2545.000000	97.362625 
2544.000000	97.362793 
2543.000000	97.365365 
2542.000000	97.367728 
2541.000000	97.368436 
2540.000000	97.368667 
2539.000000	97.369994 
2538.000000	97.372105 
2537.000000	97.373532 
2536.000000	97.373760 
2535.000000	97.373460 
2534.000000	97.372996 
2533.000000	97.371816 
2532.000000	97.369550 
2531.000000	97.366952 
2530.000000	97.365279 
2529.000000	97.364987 
2528.000000	97.365438 
2527.000000	97.365804 
2526.000000	97.365919 
2525.000000	97.366127 
2524.000000	97.366546 
2523.000000	97.366870 
2522.000000	97.366937 
2521.000000	97.367149 
2520.000000	97.368045 
2519.000000	97.369571 
2518.000000	97.370968 
2517.000000	97.371334 
2516.000000	97.370141 
2515.000000	97.367417 
2514.000000	97.363982 
2513.000000	97.361367 
2512.000000	97.360879 
2511.000000	97.362537 
2510.000000	97.365062 
2509.000000	97.367025 
2508.000000	97.367743 
2507.000000	97.367061 
2506.000000	97.365279 
2505.000000	97.363715 
2504.000000	97.364260 
2503.000000	97.367416 
2502.000000	97.371277 
2501.000000	97.373336 
2500.000000	97.373012 
2499.000000	97.371486 
2498.000000	97.369750 
2497.000000	97.368093 
2496.000000	97.367268 
2495.000000	97.368465 
2494.000000	97.371589 
2493.000000	97.374836 
2492.000000	97.376893 
2491.000000	97.378755 
2490.000000	97.382215 
2489.000000	97.386941 
2488.000000	97.390286 
2487.000000	97.390343 
2486.000000	97.388339 
2485.000000	97.387435 
2484.000000	97.389415 
2483.000000	97.393307 
2482.000000	97.397138 
2481.000000	97.400154 
2480.000000	97.402829 
2479.000000	97.405433 
2478.000000	97.407664 
2477.000000	97.409607 
2476.000000	97.411942 
2475.000000	97.414578 
2474.000000	97.415758 
2473.000000	97.413374 
2472.000000	97.407109 
2471.000000	97.398875 
2470.000000	97.391274 
2469.000000	97.385675 
2468.000000	97.381661 
2467.000000	97.378209 
2466.000000	97.375264 
2465.000000	97.373880 
2464.000000	97.374850 
2463.000000	97.377696 
2462.000000	97.381178 
2461.000000	97.384323 
2460.000000	97.386650 
2459.000000	97.387885 
2458.000000	97.387999 
2457.000000	97.387144 
2456.000000	97.385180 
2455.000000	97.381794 
2454.000000	97.377486 
2453.000000	97.373657 
2452.000000	97.371080 
2451.000000	97.369112 
2450.000000	97.367261 
2449.000000	97.366604 
2448.000000	97.368339 
2447.000000	97.371592 
2446.000000	97.374009 
2445.000000	97.374397 
2444.000000	97.373533 
2443.000000	97.372518 
2442.000000	97.371635 
2441.000000	97.370890 
2440.000000	97.370582 
2439.000000	97.371086 
2438.000000	97.372651 
2437.000000	97.375378 
2436.000000	97.378772 
2435.000000	97.381481 
2434.000000	97.382272 
2433.000000	97.381246 
2432.000000	97.379705 
2431.000000	97.378947 
2430.000000	97.379403 
2429.000000	97.380817 
2428.000000	97.382557 
2427.000000	97.383755 
2426.000000	97.383751 
2425.000000	97.382606 
2424.000000	97.380950 
2423.000000	97.379259 
2422.000000	97.377736 
2421.000000	97.376892 
2420.000000	97.377567 
2419.000000	97.380066 
2418.000000	97.383196 
2417.000000	97.385330 
2416.000000	97.385942 
2415.000000	97.385572 
2414.000000	97.384937 
2413.000000	97.384739 
2412.000000	97.385681 
2411.000000	97.387514 
2410.000000	97.388777 
2409.000000	97.388567 
2408.000000	97.387925 
2407.000000	97.388370 
2406.000000	97.389762 
2405.000000	97.390766 
2404.000000	97.390848 
2403.000000	97.390503 
2402.000000	97.390001 
2401.000000	97.389359 
2400.000000	97.389405 
2399.000000	97.391494 
2398.000000	97.395924 
2397.000000	97.401451 
2396.000000	97.406342 
2395.000000	97.409314 
2394.000000	97.409813 
2393.000000	97.408374 
2392.000000	97.406525 
2391.000000	97.405358 
2390.000000	97.404286 
2389.000000	97.402057 
2388.000000	97.398746 
2387.000000	97.395714 
2386.000000	97.393760 
2385.000000	97.392528 
2384.000000	97.391799 
2383.000000	97.392410 
2382.000000	97.395789 
2381.000000	97.403396 
2380.000000	97.416399 
2379.000000	97.434153 
2378.000000	97.452020 
2377.000000	97.462489 
2376.000000	97.460620 
2375.000000	97.447944 
2374.000000	97.431575 
2373.000000	97.418627 
2372.000000	97.411388 
2371.000000	97.408378 
2370.000000	97.407787 
2369.000000	97.408771 
2368.000000	97.410144 
2367.000000	97.409757 
2366.000000	97.406520 
2365.000000	97.402261 
2364.000000	97.399952 
2363.000000	97.400264 
2362.000000	97.401437 
2361.000000	97.401764 
2360.000000	97.400013 
2359.000000	97.395623 
2358.000000	97.390368 
2357.000000	97.387880 
2356.000000	97.389690 
2355.000000	97.393278 
2354.000000	97.396485 
2353.000000	97.397738 
2352.000000	97.395604 
2351.000000	97.388913 
2350.000000	97.378103 
2349.000000	97.366875 
2348.000000	97.360251 
2347.000000	97.360018 
2346.000000	97.359789 
2345.000000	97.352351 
2344.000000	97.339940 
2343.000000	97.329559 
2342.000000	97.326629 
2341.000000	97.331746 
2340.000000	97.342174 
2339.000000	97.352442 
2338.000000	97.358251 
2337.000000	97.359175 
2336.000000	97.356945 
2335.000000	97.353687 
2334.000000	97.350349 
2333.000000	97.346535 
2332.000000	97.339719 
2331.000000	97.328717 
2330.000000	97.312278 
2329.000000	97.291866 
2328.000000	97.268692 
2327.000000	97.248334 
2326.000000	97.234620 
2325.000000	97.228729 
2324.000000	97.228752 
2323.000000	97.232757 
2322.000000	97.238257 
2321.000000	97.240804 
2320.000000	97.238222 
2319.000000	97.234872 
2318.000000	97.236785 
2317.000000	97.246154 
2316.000000	97.258351 
2315.000000	97.268302 
2314.000000	97.271604 
2313.000000	97.268373 
2312.000000	97.260476 
2311.000000	97.252829 
2310.000000	97.247342 
2309.000000	97.243560 
2308.000000	97.239655 
2307.000000	97.237451 
2306.000000	97.238390 
2305.000000	97.240968 
2304.000000	97.241197 
2303.000000	97.238972 
2302.000000	97.237625 
2301.000000	97.240318 
2300.000000	97.245863 
2299.000000	97.251576 
2298.000000	97.254784 
2297.000000	97.255672 
2296.000000	97.255665 
2295.000000	97.257814 
2294.000000	97.263489 
2293.000000	97.271867 
2292.000000	97.279808 
2291.000000	97.285305 
2290.000000	97.288860 
2289.000000	97.293052 
2288.000000	97.299856 
2287.000000	97.308351 
2286.000000	97.315252 
2285.000000	97.318399 
2284.000000	97.320140 
2283.000000	97.325015 
2282.000000	97.334553 
2281.000000	97.345087 
2280.000000	97.351796 
2279.000000	97.352767 
2278.000000	97.349437 
2277.000000	97.344977 
2276.000000	97.343160 
2275.000000	97.346654 
2274.000000	97.354578 
2273.000000	97.362678 
2272.000000	97.366856 
2271.000000	97.366397 
2270.000000	97.363214 
2269.000000	97.359559 
2268.000000	97.357101 
2267.000000	97.356601 
2266.000000	97.356877 
2265.000000	97.355567 
2264.000000	97.351644 
2263.000000	97.345990 
2262.000000	97.339206 
2261.000000	97.330825 
2260.000000	97.321486 
2259.000000	97.313663 
2258.000000	97.309259 
2257.000000	97.307920 
2256.000000	97.308927 
2255.000000	97.312496 
2254.000000	97.317751 
2253.000000	97.321322 
2252.000000	97.320148 
2251.000000	97.314448 
2250.000000	97.306217 
2249.000000	97.296605 
2248.000000	97.286758 
2247.000000	97.279803 
2246.000000	97.278843 
2245.000000	97.283005 
2244.000000	97.287331 
2243.000000	97.287509 
2242.000000	97.283534 
2241.000000	97.278324 
2240.000000	97.274457 
2239.000000	97.272764 
2238.000000	97.272957 
2237.000000	97.274324 
2236.000000	97.275943 
2235.000000	97.276957 
2234.000000	97.277006 
2233.000000	97.276459 
2232.000000	97.276071 
2231.000000	97.276114 
2230.000000	97.275875 
2229.000000	97.274425 
2228.000000	97.271860 
2227.000000	97.269415 
2226.000000	97.268239 
2225.000000	97.268346 
2224.000000	97.268788 
2223.000000	97.268647 
2222.000000	97.267785 
2221.000000	97.266680 
2220.000000	97.265781 
2219.000000	97.265131 
2218.000000	97.264573 
2217.000000	97.264015 
2216.000000	97.263476 
2215.000000	97.262970 
2214.000000	97.262440 
2213.000000	97.261875 
2212.000000	97.261438 
2211.000000	97.261342 
2210.000000	97.261592 
2209.000000	97.261967 
2208.000000	97.262241 
2207.000000	97.262387 
2206.000000	97.262495 
2205.000000	97.262631 
2204.000000	97.262782 
2203.000000	97.262909 
2202.000000	97.263003 
2201.000000	97.263076 
2200.000000	97.263126 
2199.000000	97.263146 
2198.000000	97.263149 
2197.000000	97.263164 
2196.000000	97.263207 
2195.000000	97.263274 
2194.000000	97.263358 
2193.000000	97.263461 
2192.000000	97.263605 
2191.000000	97.263803 
2190.000000	97.264053 
2189.000000	97.264346 
2188.000000	97.264691 
2187.000000	97.265108 
2186.000000	97.265611 
2185.000000	97.266200 
2184.000000	97.266887 
2183.000000	97.267710 
2182.000000	97.268670 
2181.000000	97.269739 
2180.000000	97.270877 
2179.000000	97.272057 
2178.000000	97.273285 
2177.000000	97.274591 
2176.000000	97.276000 
2175.000000	97.277509 
2174.000000	97.279101 
2173.000000	97.280751 
2172.000000	97.282451 
2171.000000	97.284220 
2170.000000	97.286091 
2169.000000	97.288061 
2168.000000	97.290042 
2167.000000	97.291926 
2166.000000	97.293697 
2165.000000	97.295435 
2164.000000	97.297134 
2163.000000	97.298638 
2162.000000	97.299951 
2161.000000	97.301571 
2160.000000	97.304096 
2159.000000	97.307593 
2158.000000	97.311359 
2157.000000	97.314670 
2156.000000	97.317451 
2155.000000	97.319908 
2154.000000	97.321895 
2153.000000	97.323080 
2152.000000	97.323779 
2151.000000	97.324950 
2150.000000	97.327150 
2149.000000	97.330043 
2148.000000	97.333210 
2147.000000	97.336725 
2146.000000	97.340337 
2145.000000	97.343055 
2144.000000	97.344461 
2143.000000	97.345628 
2142.000000	97.347568 
2141.000000	97.349502 
2140.000000	97.350167 
2139.000000	97.350316 
2138.000000	97.352237 
2137.000000	97.356805 
2136.000000	97.362280 
2135.000000	97.366238 
2134.000000	97.367539 
2133.000000	97.366544 
2132.000000	97.364981 
2131.000000	97.364990 
2130.000000	97.367101 
2129.000000	97.369288 
2128.000000	97.369173 
2127.000000	97.367117 
2126.000000	97.365761 
2125.000000	97.366482 
2124.000000	97.367921 
2123.000000	97.368350 
2122.000000	97.367816 
2121.000000	97.367107 
2120.000000	97.365731 
2119.000000	97.362300 
2118.000000	97.356799 
2117.000000	97.351560 
2116.000000	97.349147 
2115.000000	97.349471 
2114.000000	97.349732 
2113.000000	97.347559 
2112.000000	97.344012 
2111.000000	97.342375 
2110.000000	97.344119 
2109.000000	97.347256 
2108.000000	97.348703 
2107.000000	97.347442 
2106.000000	97.344789 
2105.000000	97.342710 
2104.000000	97.342559 
2103.000000	97.344490 
2102.000000	97.346837 
2101.000000	97.346701 
2100.000000	97.342588 
2099.000000	97.336400 
2098.000000	97.331995 
2097.000000	97.331188 
2096.000000	97.332511 
2095.000000	97.333802 
2094.000000	97.334798 
2093.000000	97.336374 
2092.000000	97.338477 
2091.000000	97.340074 
2090.000000	97.340737 
2089.000000	97.341264 
2088.000000	97.342501 
2087.000000	97.343822 
2086.000000	97.343223 
2085.000000	97.339320 
2084.000000	97.333300 
2083.000000	97.328637 
2082.000000	97.328005 
2081.000000	97.330868 
2080.000000	97.334306 
2079.000000	97.336194 
2078.000000	97.336678 
2077.000000	97.336505 
2076.000000	97.335613 
2075.000000	97.334056 
2074.000000	97.332615 
2073.000000	97.331147 
2072.000000	97.327754 
2071.000000	97.321130 
2070.000000	97.312753 
2069.000000	97.305736 
2068.000000	97.301950 
2067.000000	97.301153 
2066.000000	97.302047 
2065.000000	97.303027 
2064.000000	97.302565 
2063.000000	97.300266 
2062.000000	97.297525 
2061.000000	97.296285 
2060.000000	97.297043 
2059.000000	97.298635 
2058.000000	97.299588 
2057.000000	97.299153 
2056.000000	97.297172 
2055.000000	97.293802 
2054.000000	97.289853 
2053.000000	97.286732 
2052.000000	97.285399 
2051.000000	97.285463 
2050.000000	97.285552 
2049.000000	97.284557 
2048.000000	97.282380 
2047.000000	97.279601 
2046.000000	97.276869 
2045.000000	97.274553 
2044.000000	97.272614 
2043.000000	97.270801 
2042.000000	97.269275 
2041.000000	97.268905 
2040.000000	97.270447 
2039.000000	97.273456 
2038.000000	97.276464 
2037.000000	97.278272 
2036.000000	97.278528 
2035.000000	97.277366 
2034.000000	97.275534 
2033.000000	97.274968 
2032.000000	97.277735 
2031.000000	97.283210 
2030.000000	97.287117 
2029.000000	97.285221 
2028.000000	97.277878 
2027.000000	97.269803 
2026.000000	97.265339 
2025.000000	97.265650 
2024.000000	97.270515 
2023.000000	97.280041 
2022.000000	97.292868 
2021.000000	97.304152 
2020.000000	97.308185 
2019.000000	97.302736 
2018.000000	97.289880 
2017.000000	97.274112 
2016.000000	97.260373 
2015.000000	97.252449 
2014.000000	97.250775 
2013.000000	97.251566 
2012.000000	97.251012 
2011.000000	97.251138 
2010.000000	97.258218 
2009.000000	97.274547 
2008.000000	97.294479 
2007.000000	97.310324 
2006.000000	97.319542 
2005.000000	97.323624 
2004.000000	97.323876 
2003.000000	97.321297 
2002.000000	97.318135 
2001.000000	97.315600 
2000.000000	97.311048 
1999.000000	97.300615 
1998.000000	97.284441 
1997.000000	97.267639 
1996.000000	97.255622 
1995.000000	97.249918 
1994.000000	97.248753 
1993.000000	97.249636 
1992.000000	97.250993 
1991.000000	97.253075 
1990.000000	97.257727 
1989.000000	97.265584 
1988.000000	97.273082 
1987.000000	97.274230 
1986.000000	97.266909 
1985.000000	97.256173 
1984.000000	97.249326 
1983.000000	97.248177 
1982.000000	97.248380 
1981.000000	97.245939 
1980.000000	97.242221 
1979.000000	97.241207 
1978.000000	97.243702 
1977.000000	97.246827 
1976.000000	97.248462 
1975.000000	97.249891 
1974.000000	97.253687 
1973.000000	97.260850 
1972.000000	97.270181 
1971.000000	97.278943 
1970.000000	97.283840 
1969.000000	97.282723 
1968.000000	97.276346 
1967.000000	97.268828 
1966.000000	97.265236 
1965.000000	97.267326 
1964.000000	97.273029 
1963.000000	97.278995 
1962.000000	97.283499 
1961.000000	97.286773 
1960.000000	97.289212 
1959.000000	97.290564 
1958.000000	97.290895 
1957.000000	97.291335 
1956.000000	97.293055 
1955.000000	97.295884 
1954.000000	97.298589 
1953.000000	97.300385 
1952.000000	97.301460 
1951.000000	97.302162 
1950.000000	97.302609 
1949.000000	97.303126 
1948.000000	97.304272 
1947.000000	97.306123 
1946.000000	97.308051 
1945.000000	97.309550 
1944.000000	97.310843 
1943.000000	97.312326 
1942.000000	97.313775 
1941.000000	97.314623 
1940.000000	97.314759 
1939.000000	97.314592 
1938.000000	97.314653 
1937.000000	97.315267 
1936.000000	97.316377 
1935.000000	97.317591 
1934.000000	97.318462 
1933.000000	97.318912 
1932.000000	97.319270 
1931.000000	97.319870 
1930.000000	97.320668 
1929.000000	97.321299 
1928.000000	97.321644 
1927.000000	97.321999 
1926.000000	97.322527 
1925.000000	97.322884 
1924.000000	97.322722 
1923.000000	97.322138 
1922.000000	97.321473 
1921.000000	97.320851 
1920.000000	97.320257 
1919.000000	97.319778 
1918.000000	97.319425 
1917.000000	97.318973 
1916.000000	97.318232 
1915.000000	97.317313 
1914.000000	97.316462 
1913.000000	97.315784 
1912.000000	97.315172 
1911.000000	97.314462 
1910.000000	97.313582 
1909.000000	97.312592 
1908.000000	97.311687 
1907.000000	97.311023 
1906.000000	97.310464 
1905.000000	97.309604 
1904.000000	97.308182 
1903.000000	97.306383 
1902.000000	97.304723 
1901.000000	97.303537 
1900.000000	97.302834 
1899.000000	97.302458 
1898.000000	97.302222 
1897.000000	97.301885 
1896.000000	97.301195 
1895.000000	97.300128 
1894.000000	97.298866 
1893.000000	97.297512 
1892.000000	97.296159 
1891.000000	97.295103 
1890.000000	97.294547 
1889.000000	97.294135 
1888.000000	97.293317 
1887.000000	97.292170 
1886.000000	97.291168 
1885.000000	97.290326 
1884.000000	97.289211 
1883.000000	97.287890 
1882.000000	97.287214 
1881.000000	97.287836 
1880.000000	97.289429 
1879.000000	97.290836 
1878.000000	97.291000 
1877.000000	97.289943 
1876.000000	97.288832 
1875.000000	97.288950 
1874.000000	97.290593 
1873.000000	97.292953 
1872.000000	97.294924 
1871.000000	97.295842 
1870.000000	97.295512 
1869.000000	97.294509 
1868.000000	97.294462 
1867.000000	97.296812 
1866.000000	97.300994 
1865.000000	97.304515 
1864.000000	97.305650 
1863.000000	97.305349 
1862.000000	97.305885 
1861.000000	97.308116 
1860.000000	97.311186 
1859.000000	97.314439 
1858.000000	97.318014 
1857.000000	97.321722 
1856.000000	97.325074 
1855.000000	97.328200 
1854.000000	97.331321 
1853.000000	97.333705 
1852.000000	97.334866 
1851.000000	97.335999 
1850.000000	97.338802 
1849.000000	97.343538 
1848.000000	97.348696 
1847.000000	97.352659 
1846.000000	97.354942 
1845.000000	97.356091 
1844.000000	97.357263 
1843.000000	97.359318 
1842.000000	97.362119 
1841.000000	97.365054 
1840.000000	97.368210 
1839.000000	97.372142 
1838.000000	97.376467 
1837.000000	97.379488 
1836.000000	97.380279 
1835.000000	97.380265 
1834.000000	97.381378 
1833.000000	97.383637 
1832.000000	97.385918 
1831.000000	97.387609 
1830.000000	97.389004 
1829.000000	97.390555 
1828.000000	97.392209 
1827.000000	97.393696 
1826.000000	97.394694 
1825.000000	97.395097 
1824.000000	97.395286 
1823.000000	97.395994 
1822.000000	97.397485 
1821.000000	97.398801 
1820.000000	97.398612 
1819.000000	97.396946 
1818.000000	97.395687 
1817.000000	97.396410 
1816.000000	97.398467 
1815.000000	97.400357 
1814.000000	97.401562 
1813.000000	97.402464 
1812.000000	97.403222 
1811.000000	97.403632 
1810.000000	97.404100 
1809.000000	97.405077 
1808.000000	97.406291 
1807.000000	97.407629 
1806.000000	97.409412 
1805.000000	97.411124 
1804.000000	97.411154 
1803.000000	97.408745 
1802.000000	97.405152 
1801.000000	97.402764 
1800.000000	97.402731 
1799.000000	97.404526 
1798.000000	97.407379 
1797.000000	97.410136 
1796.000000	97.411212 
1795.000000	97.409973 
1794.000000	97.407343 
1793.000000	97.405032 
1792.000000	97.403856 
1791.000000	97.403658 
1790.000000	97.404872 
1789.000000	97.407889 
1788.000000	97.411922 
1787.000000	97.415559 
1786.000000	97.418008 
1785.000000	97.419343 
1784.000000	97.420066 
1783.000000	97.421166 
1782.000000	97.423452 
1781.000000	97.427046 
1780.000000	97.431220 
1779.000000	97.434786 
1778.000000	97.437410 
1777.000000	97.439310 
1776.000000	97.440614 
1775.000000	97.441300 
1774.000000	97.441602 
1773.000000	97.442714 
1772.000000	97.445659 
1771.000000	97.449411 
1770.000000	97.452272 
1769.000000	97.453777 
1768.000000	97.454567 
1767.000000	97.455746 
1766.000000	97.457900 
1765.000000	97.460827 
1764.000000	97.463881 
1763.000000	97.466456 
1762.000000	97.468566 
1761.000000	97.470986 
1760.000000	97.474158 
1759.000000	97.477479 
1758.000000	97.480007 
1757.000000	97.481504 
1756.000000	97.482980 
1755.000000	97.485025 
1754.000000	97.486897 
1753.000000	97.487750 
1752.000000	97.487881 
1751.000000	97.488570 
1750.000000	97.490493 
1749.000000	97.493050 
1748.000000	97.495374 
1747.000000	97.497142 
1746.000000	97.498249 
1745.000000	97.498897 
1744.000000	97.499593 
1743.000000	97.500517 
1742.000000	97.501401 
1741.000000	97.502168 
1740.000000	97.503272 
1739.000000	97.505119 
1738.000000	97.507290 
1737.000000	97.508732 
1736.000000	97.508389 
1735.000000	97.506064 
1734.000000	97.503643 
1733.000000	97.502927 
1732.000000	97.504170 
1731.000000	97.507134 
1730.000000	97.511282 
1729.000000	97.515254 
1728.000000	97.517866 
1727.000000	97.519052 
1726.000000	97.519340 
1725.000000	97.519131 
1724.000000	97.518317 
1723.000000	97.517116 
1722.000000	97.516678 
1721.000000	97.517610 
1720.000000	97.519123 
1719.000000	97.519729 
1718.000000	97.518635 
1717.000000	97.515930 
1716.000000	97.512067 
1715.000000	97.508651 
1714.000000	97.507312 
1713.000000	97.507654 
1712.000000	97.507861 
1711.000000	97.507199 
1710.000000	97.506323 
1709.000000	97.505584 
1708.000000	97.504533 
1707.000000	97.503114 
1706.000000	97.502163 
1705.000000	97.501760 
1704.000000	97.500399 
1703.000000	97.497261 
1702.000000	97.492976 
1701.000000	97.489596 
1700.000000	97.488374 
1699.000000	97.487471 
1698.000000	97.486275 
1697.000000	97.485188 
1696.000000	97.483921 
1695.000000	97.482253 
1694.000000	97.480554 
1693.000000	97.479159 
1692.000000	97.477842 
1691.000000	97.476335 
1690.000000	97.474633 
1689.000000	97.472798 
1688.000000	97.470837 
1687.000000	97.468679 
1686.000000	97.466429 
1685.000000	97.464612 
1684.000000	97.463225 
1683.000000	97.461509 
1682.000000	97.459458 
1681.000000	97.457454 
1680.000000	97.455837 
1679.000000	97.454612 
1678.000000	97.453385 
1677.000000	97.451831 
1676.000000	97.450105 
1675.000000	97.448498 
1674.000000	97.446673 
1673.000000	97.444379 
1672.000000	97.442025 
1671.000000	97.440230 
1670.000000	97.439054 
1669.000000	97.437685 
1668.000000	97.435924 
1667.000000	97.434394 
1666.000000	97.433114 
1665.000000	97.431784 
1664.000000	97.430636 
1663.000000	97.430231 
1662.000000	97.429952 
1661.000000	97.428548 
1660.000000	97.426589 
1659.000000	97.425442 
1658.000000	97.425106 
1657.000000	97.424348 
1656.000000	97.421895 
1655.000000	97.416967 
1654.000000	97.410950 
1653.000000	97.407954 
1652.000000	97.406201 
1651.000000	97.404432 
1650.000000	97.401994 
1649.000000	97.398547 
1648.000000	97.395131 
1647.000000	97.394117 
1646.000000	97.395526 
1645.000000	97.397080 
1644.000000	97.397636 
1643.000000	97.397490 
1642.000000	97.397272 
1641.000000	97.397076 
1640.000000	97.396990 
1639.000000	97.396343 
1638.000000	97.394442 
1637.000000	97.392113 
1636.000000	97.391598 
1635.000000	97.392572 
1634.000000	97.392323 
1633.000000	97.390448 
1632.000000	97.387407 
1631.000000	97.384636 
1630.000000	97.383615 
1629.000000	97.384650 
1628.000000	97.387323 
1627.000000	97.391262 
1626.000000	97.394906 
1625.000000	97.396319 
1624.000000	97.396224 
1623.000000	97.397279 
1622.000000	97.399391 
1621.000000	97.399976 
1620.000000	97.398494 
1619.000000	97.396253 
1618.000000	97.394717 
1617.000000	97.394083 
1616.000000	97.393526 
1615.000000	97.393615 
1614.000000	97.394256 
1613.000000	97.392872 
1612.000000	97.388599 
1611.000000	97.384326 
1610.000000	97.382769 
1609.000000	97.384207 
1608.000000	97.389132 
1607.000000	97.397615 
1606.000000	97.406184 
1605.000000	97.411589 
1604.000000	97.415410 
1603.000000	97.419459 
1602.000000	97.422358 
1601.000000	97.423379 
1600.000000	97.425657 
1599.000000	97.431771 
1598.000000	97.439292 
1597.000000	97.444443 
1596.000000	97.447224 
1595.000000	97.450191 
1594.000000	97.453912 
1593.000000	97.456785 
1592.000000	97.458700 
1591.000000	97.461265 
1590.000000	97.464618 
1589.000000	97.467307 
1588.000000	97.469661 
1587.000000	97.473775 
1586.000000	97.479918 
1585.000000	97.485896 
1584.000000	97.491633 
1583.000000	97.498543 
1582.000000	97.505010 
1581.000000	97.508937 
1580.000000	97.511791 
1579.000000	97.515754 
1578.000000	97.520317 
1577.000000	97.525313 
1576.000000	97.532009 
1575.000000	97.538790 
1574.000000	97.542698 
1573.000000	97.543592 
1572.000000	97.544049 
1571.000000	97.546876 
1570.000000	97.550301 
1569.000000	97.548396 
1568.000000	97.543745 
1567.000000	97.543328 
1566.000000	97.546972 
1565.000000	97.550577 
1564.000000	97.553151 
1563.000000	97.553378 
1562.000000	97.549028 
1561.000000	97.536573 
1560.000000	97.529011 
1559.000000	97.537929 
1558.000000	97.541335 
1557.000000	97.533879 
1556.000000	97.527749 
1555.000000	97.525303 
1554.000000	97.523880 
1553.000000	97.521488 
1552.000000	97.518101 
1551.000000	97.512141 
1550.000000	97.504138 
1549.000000	97.497639 
1548.000000	97.495130 
1547.000000	97.494711 
1546.000000	97.490990 
1545.000000	97.481202 
1544.000000	97.468789 
1543.000000	97.458533 
1542.000000	97.452522 
1541.000000	97.449736 
1540.000000	97.443155 
1539.000000	97.429488 
1538.000000	97.414419 
1537.000000	97.400589 
1536.000000	97.386596 
1535.000000	97.374171 
1534.000000	97.366770 
1533.000000	97.362816 
1532.000000	97.355784 
1531.000000	97.343467 
1530.000000	97.329037 
1529.000000	97.315446 
1528.000000	97.303241 
1527.000000	97.292767 
1526.000000	97.284469 
1525.000000	97.277408 
1524.000000	97.269675 
1523.000000	97.260188 
1522.000000	97.249359 
1521.000000	97.236519 
1520.000000	97.220669 
1519.000000	97.203476 
1518.000000	97.186991 
1517.000000	97.172597 
1516.000000	97.160626 
1515.000000	97.150931 
1514.000000	97.143085 
1513.000000	97.135762 
1512.000000	97.126737 
1511.000000	97.114112 
1510.000000	97.098653 
1509.000000	97.082391 
1508.000000	97.068554 
1507.000000	97.059203 
1506.000000	97.052087 
1505.000000	97.042983 
1504.000000	97.031430 
1503.000000	97.018156 
1502.000000	97.004045 
1501.000000	96.990301 
1500.000000	96.977766 
1499.000000	96.965539 
1498.000000	96.951986 
1497.000000	96.937981 
1496.000000	96.925257 
1495.000000	96.914329 
1494.000000	96.905461 
1493.000000	96.898603 
1492.000000	96.892759 
1491.000000	96.886705 
1490.000000	96.880024 
1489.000000	96.873100 
1488.000000	96.864910 
1487.000000	96.854525 
1486.000000	96.842952 
1485.000000	96.829266 
1484.000000	96.813453 
1483.000000	96.798760 
1482.000000	96.787986 
1481.000000	96.780677 
1480.000000	96.773266 
1479.000000	96.763996 
1478.000000	96.754281 
1477.000000	96.745471 
1476.000000	96.735622 
1475.000000	96.722593 
1474.000000	96.708731 
1473.000000	96.699407 
1472.000000	96.695303 
1471.000000	96.690791 
1470.000000	96.683416 
1469.000000	96.674149 
1468.000000	96.662818 
1467.000000	96.649193 
1466.000000	96.635883 
1465.000000	96.626678 
1464.000000	96.621439 
1463.000000	96.614804 
1462.000000	96.604055 
1461.000000	96.591780 
1460.000000	96.581482 
1459.000000	96.573093 
1458.000000	96.563683 
1457.000000	96.554205 
1456.000000	96.548052 
1455.000000	96.543552 
1454.000000	96.537102 
1453.000000	96.530601 
1452.000000	96.528469 
1451.000000	96.530988 
1450.000000	96.535146 
1449.000000	96.539305 
1448.000000	96.542294 
1447.000000	96.542913 
1446.000000	96.541557 
1445.000000	96.541650 
1444.000000	96.546039 
1443.000000	96.551361 
1442.000000	96.553236 
1441.000000	96.551555 
1440.000000	96.548149 
1439.000000	96.541910 
1438.000000	96.532265 
1437.000000	96.525475 
1436.000000	96.527008 
1435.000000	96.531109 
1434.000000	96.531735 
1433.000000	96.530882 
1432.000000	96.532545 
1431.000000	96.537730 
1430.000000	96.545158 
1429.000000	96.555077 
1428.000000	96.566665 
1427.000000	96.577389 
1426.000000	96.586295 
1425.000000	96.596768 
1424.000000	96.612407 
1423.000000	96.626835 
1422.000000	96.631508 
1421.000000	96.628902 
1420.000000	96.630639 
1419.000000	96.640755 
1418.000000	96.650355 
1417.000000	96.657298 
1416.000000	96.668312 
1415.000000	96.684029 
1414.000000	96.698312 
1413.000000	96.708258 
1412.000000	96.718366 
1411.000000	96.731960 
1410.000000	96.746120 
1409.000000	96.758345 
1408.000000	96.769967 
1407.000000	96.783070 
1406.000000	96.797386 
1405.000000	96.812193 
1404.000000	96.828044 
1403.000000	96.842240 
1402.000000	96.851686 
1401.000000	96.859411 
1400.000000	96.872117 
1399.000000	96.890887 
1398.000000	96.909411 
1397.000000	96.925260 
1396.000000	96.943945 
1395.000000	96.969690 
1394.000000	96.996776 
1393.000000	97.017711 
1392.000000	97.033940 
1391.000000	97.049736 
1390.000000	97.065955 
1389.000000	97.081225 
1388.000000	97.094606 
1387.000000	97.106289 
1386.000000	97.117107 
1385.000000	97.129017 
1384.000000	97.144067 
1383.000000	97.161231 
1382.000000	97.177213 
1381.000000	97.190298 
1380.000000	97.201381 
1379.000000	97.212505 
1378.000000	97.225044 
1377.000000	97.238809 
1376.000000	97.252138 
1375.000000	97.263115 
1374.000000	97.271478 
1373.000000	97.280191 
1372.000000	97.292154 
1371.000000	97.306692 
1370.000000	97.320248 
1369.000000	97.329992 
1368.000000	97.337567 
1367.000000	97.346293 
1366.000000	97.357382 
1365.000000	97.370292 
1364.000000	97.383151 
1363.000000	97.392781 
1362.000000	97.397413 
1361.000000	97.399857 
1360.000000	97.405602 
1359.000000	97.417823 
1358.000000	97.434808 
1357.000000	97.451682 
1356.000000	97.464278 
1355.000000	97.471322 
1354.000000	97.474397 
1353.000000	97.477120 
1352.000000	97.481776 
1351.000000	97.488674 
1350.000000	97.496890 
1349.000000	97.504658 
1348.000000	97.511663 
1347.000000	97.518988 
1346.000000	97.527369 
1345.000000	97.535847 
1344.000000	97.542562 
1343.000000	97.546576 
1342.000000	97.548219 
1341.000000	97.547926 
1340.000000	97.545902 
1339.000000	97.543231 
1338.000000	97.541716 
1337.000000	97.542344 
1336.000000	97.544564 
1335.000000	97.547338 
1334.000000	97.550614 
1333.000000	97.554930 
1332.000000	97.559537 
1331.000000	97.562768 
1330.000000	97.564209 
1329.000000	97.565255 
1328.000000	97.566933 
1327.000000	97.568934 
1326.000000	97.570660 
1325.000000	97.572014 
1324.000000	97.573121 
1323.000000	97.572805 
1322.000000	97.569344 
1321.000000	97.563262 
1320.000000	97.557925 
1319.000000	97.556413 
1318.000000	97.558596 
1317.000000	97.561902 
1316.000000	97.563571 
1315.000000	97.561906 
1314.000000	97.557290 
1313.000000	97.553097 
1312.000000	97.553325 
1311.000000	97.558089 
1310.000000	97.563076 
1309.000000	97.564774 
1308.000000	97.564376 
1307.000000	97.565719 
1306.000000	97.570236 
1305.000000	97.575530 
1304.000000	97.578710 
1303.000000	97.578514 
1302.000000	97.575060 
1301.000000	97.569532 
1300.000000	97.564437 
1299.000000	97.562542 
1298.000000	97.564633 
1297.000000	97.568613 
1296.000000	97.571171 
1295.000000	97.570677 
1294.000000	97.568355 
1293.000000	97.566728 
1292.000000	97.566752 
1291.000000	97.566808 
1290.000000	97.565265 
1289.000000	97.563289 
1288.000000	97.563611 
1287.000000	97.566558 
1286.000000	97.569156 
1285.000000	97.568951 
1284.000000	97.566952 
1283.000000	97.565592 
1282.000000	97.565449 
1281.000000	97.565285 
1280.000000	97.564318 
1279.000000	97.562999 
1278.000000	97.562152 
1277.000000	97.562472 
1276.000000	97.564081 
1275.000000	97.565948 
1274.000000	97.566525 
1273.000000	97.565873 
1272.000000	97.566124 
1271.000000	97.568623 
1270.000000	97.571717 
1269.000000	97.572809 
1268.000000	97.571630 
1267.000000	97.569519 
1266.000000	97.566472 
1265.000000	97.561628 
1264.000000	97.556276 
1263.000000	97.553707 
1262.000000	97.555596 
1261.000000	97.560175 
1260.000000	97.564920 
1259.000000	97.569407 
1258.000000	97.574155 
1257.000000	97.577805 
1256.000000	97.577098 
1255.000000	97.570519 
1254.000000	97.561447 
1253.000000	97.555962 
1252.000000	97.556481 
1251.000000	97.558753 
1250.000000	97.556650 
1249.000000	97.549078 
1248.000000	97.540187 
1247.000000	97.533099 
1246.000000	97.526274 
1245.000000	97.517024 
1244.000000	97.505704 
1243.000000	97.494658 
1242.000000	97.485179 
1241.000000	97.477332 
1240.000000	97.470804 
1239.000000	97.463717 
1238.000000	97.452351 
1237.000000	97.434710 
1236.000000	97.413484 
1235.000000	97.393372 
1234.000000	97.376044 
1233.000000	97.359625 
1232.000000	97.342150 
1231.000000	97.322998 
1230.000000	97.301537 
1229.000000	97.276863 
1228.000000	97.248770 
1227.000000	97.216968 
1226.000000	97.179354 
1225.000000	97.132853 
1224.000000	97.076162 
1223.000000	97.010370 
1222.000000	96.937174 
1221.000000	96.858194 
1220.000000	96.776071 
1219.000000	96.693973 
1218.000000	96.612623 
1217.000000	96.528858 
1216.000000	96.437819 
1215.000000	96.336488 
1214.000000	96.226265 
1213.000000	96.113678 
1212.000000	96.007045 
1211.000000	95.909199 
1210.000000	95.813855 
1209.000000	95.712231 
1208.000000	95.603016 
1207.000000	95.492743 
1206.000000	95.386522 
1205.000000	95.282344 
1204.000000	95.175672 
1203.000000	95.065999 
1202.000000	94.956995 
1201.000000	94.852607 
1200.000000	94.754438 
1199.000000	94.660778 
1198.000000	94.566917 
1197.000000	94.468434 
1196.000000	94.365228 
1195.000000	94.261214 
1194.000000	94.160087 
1193.000000	94.062507 
1192.000000	93.966609 
1191.000000	93.868982 
1190.000000	93.765736 
1189.000000	93.655135 
1188.000000	93.539213 
1187.000000	93.421399 
1186.000000	93.303567 
1185.000000	93.186736 
1184.000000	93.072017 
1183.000000	92.957885 
1182.000000	92.839124 
1181.000000	92.712189 
1180.000000	92.579227 
1179.000000	92.442850 
1178.000000	92.300051 
1177.000000	92.146830 
1176.000000	91.986139 
1175.000000	91.824652 
1174.000000	91.663437 
1173.000000	91.499016 
1172.000000	91.332444 
1171.000000	91.169066 
1170.000000	91.009346 
1169.000000	90.848704 
1168.000000	90.687843 
1167.000000	90.535650 
1166.000000	90.401055 
1165.000000	90.290665 
1164.000000	90.215746 
1163.000000	90.191208 
1162.000000	90.222153 
1161.000000	90.296034 
1160.000000	90.389227 
1159.000000	90.476028 
1158.000000	90.532519 
1157.000000	90.541578 
1156.000000	90.499021 
1155.000000	90.412311 
1154.000000	90.293172 
1153.000000	90.154435 
1152.000000	90.011029 
1151.000000	89.875063 
1150.000000	89.747821 
1149.000000	89.622920 
1148.000000	89.497865 
1147.000000	89.375527 
1146.000000	89.254807 
1145.000000	89.129429 
1144.000000	88.997987 
1143.000000	88.866536 
1142.000000	88.738674 
1141.000000	88.611116 
1140.000000	88.481661 
1139.000000	88.353381 
1138.000000	88.228018 
1137.000000	88.102751 
1136.000000	87.976159 
1135.000000	87.850112 
1134.000000	87.723669 
1133.000000	87.592817 
1132.000000	87.458456 
1131.000000	87.326798 
1130.000000	87.199635 
1129.000000	87.071833 
1128.000000	86.940316 
1127.000000	86.807469 
1126.000000	86.674085 
1125.000000	86.537555 
1124.000000	86.398992 
1123.000000	86.263518 
1122.000000	86.131512 
1121.000000	85.998074 
1120.000000	85.862443 
1119.000000	85.728631 
1118.000000	85.596154 
1117.000000	85.461130 
1116.000000	85.327395 
1115.000000	85.204318 
1114.000000	85.091588 
1113.000000	84.978363 
1112.000000	84.859706 
1111.000000	84.741233 
1110.000000	84.625762 
1109.000000	84.509366 
1108.000000	84.392435 
1107.000000	84.280621 
1106.000000	84.172502 
1105.000000	84.059643 
1104.000000	83.941168 
1103.000000	83.825271 
1102.000000	83.713965 
1101.000000	83.601171 
1100.000000	83.487132 
1099.000000	83.380727 
1098.000000	83.284966 
1097.000000	83.193072 
1096.000000	83.101826 
1095.000000	83.014621 
1094.000000	82.929883 
1093.000000	82.841493 
1092.000000	82.753098 
1091.000000	82.676987 
1090.000000	82.616177 
1089.000000	82.561963 
1088.000000	82.510597 
1087.000000	82.466901 
1086.000000	82.430064 
1085.000000	82.392541 
1084.000000	82.355174 
1083.000000	82.326629 
1082.000000	82.305368 
1081.000000	82.279270 
1080.000000	82.246275 
1079.000000	82.218445 
1078.000000	82.201782 
1077.000000	82.188285 
1076.000000	82.171373 
1075.000000	82.152003 
1074.000000	82.125370 
1073.000000	82.078306 
1072.000000	82.004547 
1071.000000	81.907848 
1070.000000	81.787007 
1069.000000	81.633429 
1068.000000	81.447501 
1067.000000	81.242613 
1066.000000	81.029145 
1065.000000	80.809043 
1064.000000	80.588966 
1063.000000	80.381236 
1062.000000	80.186558 
1061.000000	79.992741 
1060.000000	79.795816 
1059.000000	79.606195 
1058.000000	79.429472 
1057.000000	79.258291 
1056.000000	79.088453 
1055.000000	78.925914 
1054.000000	78.771811 
1053.000000	78.616781 
1052.000000	78.456550 
1051.000000	78.296980 
1050.000000	78.137575 
1049.000000	77.967984 
1048.000000	77.786883 
1047.000000	77.605670 
1046.000000	77.429287 
1045.000000	77.251377 
1044.000000	77.069962 
1043.000000	76.889669 
1042.000000	76.707095 
1041.000000	76.512816 
1040.000000	76.310791 
1039.000000	76.117656 
1038.000000	75.940135 
1037.000000	75.771424 
1036.000000	75.611398 
1035.000000	75.470192 
1034.000000	75.349207 
1033.000000	75.239071 
1032.000000	75.139107 
1031.000000	75.058232 
1030.000000	74.994043 
1029.000000	74.932320 
1028.000000	74.870481 
1027.000000	74.820324 
1026.000000	74.784429 
1025.000000	74.751331 
1024.000000	74.716909 
1023.000000	74.688709 
1022.000000	74.665960 
1021.000000	74.637371 
1020.000000	74.601889 
1019.000000	74.569953 
1018.000000	74.541772 
1017.000000	74.506897 
1016.000000	74.467880 
1015.000000	74.440872 
1014.000000	74.428966 
1013.000000	74.417763 
1012.000000	74.401155 
1011.000000	74.388734 
1010.000000	74.383767 
1009.000000	74.377291 
1008.000000	74.368776 
1007.000000	74.369952 
1006.000000	74.383163 
1005.000000	74.397980 
1004.000000	74.413338 
1003.000000	74.440338 
1002.000000	74.478658 
1001.000000	74.513431 
1000.000000	74.541097 
999.000000	 74.575735 
998.000000	 74.623882 
997.000000	 74.675365 
996.000000	 74.725198 
995.000000	 74.783030 
994.000000	 74.853989 
993.000000	 74.930414 
992.000000	 75.008391 
991.000000	 75.092917 
990.000000	 75.181945 
989.000000	 75.265523 
988.000000	 75.345700 
987.000000	 75.437554 
986.000000	 75.546605 
985.000000	 75.665120 
984.000000	 75.793155 
983.000000	 75.941073 
982.000000	 76.106992 
981.000000	 76.274268 
980.000000	 76.437364 
979.000000	 76.609172 
978.000000	 76.797008 
977.000000	 76.992592 
976.000000	 77.191464 
975.000000	 77.401427 
974.000000	 77.624853 
973.000000	 77.852063 
972.000000	 78.078806 
971.000000	 78.312074 
970.000000	 78.553139 
969.000000	 78.793283 
968.000000	 79.031465 
967.000000	 79.277537 
966.000000	 79.532163 
965.000000	 79.781788 
964.000000	 80.019851 
963.000000	 80.256118 
962.000000	 80.499104 
961.000000	 80.744970 
960.000000	 80.988505 
959.000000	 81.229008 
958.000000	 81.460856 
957.000000	 81.674781 
956.000000	 81.873773 
955.000000	 82.072719 
954.000000	 82.277572 
953.000000	 82.479119 
952.000000	 82.670582 
951.000000	 82.855581 
950.000000	 83.035445 
949.000000	 83.204993 
948.000000	 83.365099 
947.000000	 83.523399 
946.000000	 83.678125 
945.000000	 83.817469 
944.000000	 83.940034 
943.000000	 84.060430 
942.000000	 84.188860 
941.000000	 84.319888 
940.000000	 84.447410 
939.000000	 84.575280 
938.000000	 84.706127 
937.000000	 84.833569 
936.000000	 84.953214 
935.000000	 85.070211 
934.000000	 85.190228 
933.000000	 85.313521 
932.000000	 85.441754 
931.000000	 85.578828 
930.000000	 85.721065 
929.000000	 85.858359 
928.000000	 85.988469 
927.000000	 86.118474 
926.000000	 86.249562 
925.000000	 86.373048 
924.000000	 86.484719 
923.000000	 86.590726 
922.000000	 86.696012 
921.000000	 86.799036 
920.000000	 86.900760 
919.000000	 87.006045 
918.000000	 87.112685 
917.000000	 87.211734 
916.000000	 87.302789 
915.000000	 87.397329 
914.000000	 87.503273 
913.000000	 87.617631 
912.000000	 87.737495 
911.000000	 87.866363 
910.000000	 88.005966 
909.000000	 88.153374 
908.000000	 88.309647 
907.000000	 88.480739 
906.000000	 88.667371 
905.000000	 88.863896 
904.000000	 89.067603 
903.000000	 89.278025 
902.000000	 89.487769 
901.000000	 89.687469 
900.000000	 89.880749 
899.000000	 90.081223 
898.000000	 90.293023 
897.000000	 90.506025 
896.000000	 90.710853 
895.000000	 90.906047 
894.000000	 91.090263 
893.000000	 91.261180 
892.000000	 91.423692 
891.000000	 91.585694 
890.000000	 91.742636 
889.000000	 91.878418 
888.000000	 91.984500 
887.000000	 92.067785 
886.000000	 92.138935 
885.000000	 92.204112 
884.000000	 92.268755 
883.000000	 92.335916 
882.000000	 92.398864 
881.000000	 92.449661 
880.000000	 92.497907 
879.000000	 92.565951 
878.000000	 92.661799 
877.000000	 92.772473 
876.000000	 92.888363 
875.000000	 93.017280 
874.000000	 93.168444 
873.000000	 93.339888 
872.000000	 93.529094 
871.000000	 93.739374 
870.000000	 93.966159 
869.000000	 94.190372 
868.000000	 94.394981 
867.000000	 94.578982 
866.000000	 94.749774 
865.000000	 94.912240 
864.000000	 95.071018 
863.000000	 95.233082 
862.000000	 95.399867 
861.000000	 95.563459 
860.000000	 95.716418 
859.000000	 95.859507 
858.000000	 95.996029 
857.000000	 96.125431 
856.000000	 96.246474 
855.000000	 96.360309 
854.000000	 96.466776 
853.000000	 96.563462 
852.000000	 96.650957 
851.000000	 96.733034 
850.000000	 96.810305 
849.000000	 96.881030 
848.000000	 96.949376 
847.000000	 97.024332 
846.000000	 97.107802 
845.000000	 97.191087 
844.000000	 97.264841 
843.000000	 97.325147 
842.000000	 97.369438 
841.000000	 97.395561 
840.000000	 97.406807 
839.000000	 97.409369 
838.000000	 97.403165 
837.000000	 97.384086 
836.000000	 97.357143 
835.000000	 97.337314 
834.000000	 97.333070 
833.000000	 97.337471 
832.000000	 97.339767 
831.000000	 97.337774 
830.000000	 97.335299 
829.000000	 97.336471 
828.000000	 97.348121 
827.000000	 97.379080 
826.000000	 97.429462 
825.000000	 97.486432 
824.000000	 97.535891 
823.000000	 97.572774 
822.000000	 97.598077 
821.000000	 97.614146 
820.000000	 97.624501 
819.000000	 97.628597 
818.000000	 97.613776 
817.000000	 97.560316 
816.000000	 97.457855 
815.000000	 97.312195 
814.000000	 97.134543 
813.000000	 96.927720 
812.000000	 96.681279 
811.000000	 96.372607 
810.000000	 95.973556 
809.000000	 95.466630 
808.000000	 94.859412 
807.000000	 94.178462 
806.000000	 93.449121 
805.000000	 92.689749 
804.000000	 91.925185 
803.000000	 91.190119 
802.000000	 90.512937 
801.000000	 89.910155 
800.000000	 89.402066 
799.000000	 89.016508 
798.000000	 88.768079 
797.000000	 88.647426 
796.000000	 88.635275 
795.000000	 88.710102 
794.000000	 88.839771 
793.000000	 88.987465 
792.000000	 89.133073 
791.000000	 89.272179 
790.000000	 89.391175 
789.000000	 89.462368 
788.000000	 89.467644 
787.000000	 89.408371 
786.000000	 89.287502 
785.000000	 89.100535 
784.000000	 88.850812 
783.000000	 88.557445 
782.000000	 88.243080 
781.000000	 87.931527 
780.000000	 87.661250 
779.000000	 87.477586 
778.000000	 87.400292 
777.000000	 87.416537 
776.000000	 87.512172 
775.000000	 87.687075 
774.000000	 87.930687 
773.000000	 88.207742 
772.000000	 88.484596 
771.000000	 88.753176 
770.000000	 89.017260 
769.000000	 89.271951 
768.000000	 89.508267 
767.000000	 89.722499 
766.000000	 89.909869 
765.000000	 90.063384 
764.000000	 90.189927 
763.000000	 90.313939 
762.000000	 90.453508 
761.000000	 90.603859 
760.000000	 90.753559 
759.000000	 90.904224 
758.000000	 91.063854 
757.000000	 91.232873 
756.000000	 91.407890 
755.000000	 91.589133 
754.000000	 91.773452 
753.000000	 91.947891 
752.000000	 92.099385 
751.000000	 92.225593 
750.000000	 92.332707 
749.000000	 92.431340 
748.000000	 92.536974 
747.000000	 92.661623 
746.000000	 92.799498 
745.000000	 92.933094 
744.000000	 93.059549 
743.000000	 93.198081 
742.000000	 93.363622 
741.000000	 93.545839 
740.000000	 93.723936 
739.000000	 93.890763 
738.000000	 94.051455 
737.000000	 94.206737 
736.000000	 94.348496 
735.000000	 94.468667 
734.000000	 94.565990 
733.000000	 94.646919 
732.000000	 94.722442 
731.000000	 94.799147 
730.000000	 94.870896 
729.000000	 94.924053 
728.000000	 94.955426 
727.000000	 94.978781 
726.000000	 95.011332 
725.000000	 95.063618 
724.000000	 95.141175 
723.000000	 95.242717 
722.000000	 95.354802 
721.000000	 95.460809 
720.000000	 95.558409 
719.000000	 95.655197 
718.000000	 95.747501 
717.000000	 95.822385 
716.000000	 95.880931 
715.000000	 95.941702 
714.000000	 96.016705 
713.000000	 96.099119 
712.000000	 96.181776 
711.000000	 96.269646 
710.000000	 96.364095 
709.000000	 96.453226 
708.000000	 96.527263 
707.000000	 96.589369 
706.000000	 96.636756 
705.000000	 96.648696 
704.000000	 96.608830 
703.000000	 96.521226 
702.000000	 96.390173 
701.000000	 96.195975 
700.000000	 95.907704 
699.000000	 95.519501 
698.000000	 95.064260 
697.000000	 94.605261 
696.000000	 94.223886 
695.000000	 93.992583 
694.000000	 93.940888 
693.000000	 94.043915 
692.000000	 94.247940 
691.000000	 94.505668 
690.000000	 94.780536 
689.000000	 95.037671 
688.000000	 95.253824 
687.000000	 95.431949 
686.000000	 95.592694 
685.000000	 95.748431 
684.000000	 95.893633 
683.000000	 96.019144 
682.000000	 96.123948 
681.000000	 96.217703 
680.000000	 96.315953 
679.000000	 96.430853 
678.000000	 96.553151 
677.000000	 96.654180 
676.000000	 96.725688 
675.000000	 96.785604 
674.000000	 96.847030 
673.000000	 96.905816 
672.000000	 96.957980 
671.000000	 97.032071 
670.000000	 97.182293 
669.000000	 97.448133 
668.000000	 97.679257 
667.000000	 97.676217 
666.000000	 97.555172 
665.000000	 97.471383 
664.000000	 97.438712 
663.000000	 97.452980 
662.000000	 97.501486 
661.000000	 97.550542 
660.000000	 97.580999 
659.000000	 97.604136 
658.000000	 97.628923 
657.000000	 97.637950 
656.000000	 97.625714 
655.000000	 97.606990 
654.000000	 97.583987 
653.000000	 97.544092 
652.000000	 97.499685 
651.000000	 97.491155 
650.000000	 97.530442 

