4000.000000	97.746748 
3999.000000	97.745931 
3998.000000	97.743997 
3997.000000	97.741513 
3996.000000	97.739306 
3995.000000	97.737996 
3994.000000	97.737772 
3993.000000	97.738239 
3992.000000	97.738693 
3991.000000	97.738746 
3990.000000	97.738518 
3989.000000	97.738300 
3988.000000	97.738169 
3987.000000	97.738065 
3986.000000	97.738081 
3985.000000	97.738385 
3984.000000	97.738885 
3983.000000	97.739295 
3982.000000	97.739563 
3981.000000	97.739932 
3980.000000	97.740411 
3979.000000	97.740490 
3978.000000	97.739752 
3977.000000	97.738580 
3976.000000	97.737841 
3975.000000	97.737852 
3974.000000	97.738020 
3973.000000	97.737573 
3972.000000	97.736316 
3971.000000	97.734614 
3970.000000	97.733037 
3969.000000	97.732075 
3968.000000	97.731984 
3967.000000	97.732659 
3966.000000	97.733623 
3965.000000	97.734224 
3964.000000	97.733978 
3963.000000	97.732843 
3962.000000	97.731267 
3961.000000	97.729940 
3960.000000	97.729244 
3959.000000	97.729055 
3958.000000	97.729120 
3957.000000	97.729272 
3956.000000	97.729289 
3955.000000	97.728774 
3954.000000	97.727491 
3953.000000	97.725695 
3952.000000	97.724018 
3951.000000	97.723012 
3950.000000	97.722796 
3949.000000	97.723060 
3948.000000	97.723314 
3947.000000	97.723220 
3946.000000	97.722726 
3945.000000	97.722033 
3944.000000	97.721544 
3943.000000	97.721647 
3942.000000	97.722406 
3941.000000	97.723500 
3940.000000	97.724372 
3939.000000	97.724591 
3938.000000	97.724182 
3937.000000	97.723469 
3936.000000	97.722713 
3935.000000	97.721967 
3934.000000	97.721342 
3933.000000	97.721125 
3932.000000	97.721365 
3931.000000	97.721656 
3930.000000	97.721534 
3929.000000	97.721038 
3928.000000	97.720636 
3927.000000	97.720564 
3926.000000	97.720613 
3925.000000	97.720610 
3924.000000	97.720648 
3923.000000	97.720730 
3922.000000	97.720664 
3921.000000	97.720480 
3920.000000	97.720466 
3919.000000	97.720698 
3918.000000	97.720967 
3917.000000	97.721116 
3916.000000	97.721164 
3915.000000	97.721192 
3914.000000	97.721241 
3913.000000	97.721293 
3912.000000	97.721345 
3911.000000	97.721396 
3910.000000	97.721454 
3909.000000	97.721522 
3908.000000	97.721600 
3907.000000	97.721683 
3906.000000	97.721772 
3905.000000	97.721877 
3904.000000	97.722006 
3903.000000	97.722161 
3902.000000	97.722332 
3901.000000	97.722507 
3900.000000	97.722673 
3899.000000	97.722819 
3898.000000	97.722940 
3897.000000	97.723038 
3896.000000	97.723119 
3895.000000	97.723184 
3894.000000	97.723232 
3893.000000	97.723267 
3892.000000	97.723291 
3891.000000	97.723300 
3890.000000	97.723298 
3889.000000	97.723294 
3888.000000	97.723294 
3887.000000	97.723305 
3886.000000	97.723337 
3885.000000	97.723395 
3884.000000	97.723472 
3883.000000	97.723551 
3882.000000	97.723625 
3881.000000	97.723705 
3880.000000	97.723815 
3879.000000	97.723960 
3878.000000	97.724124 
3877.000000	97.724284 
3876.000000	97.724432 
3875.000000	97.724579 
3874.000000	97.724742 
3873.000000	97.724926 
3872.000000	97.725124 
3871.000000	97.725326 
3870.000000	97.725535 
3869.000000	97.725764 
3868.000000	97.726014 
3867.000000	97.726264 
3866.000000	97.726499 
3865.000000	97.726729 
3864.000000	97.726967 
3863.000000	97.727210 
3862.000000	97.727440 
3861.000000	97.727656 
3860.000000	97.727867 
3859.000000	97.728073 
3858.000000	97.728269 
3857.000000	97.728460 
3856.000000	97.728671 
3855.000000	97.728928 
3854.000000	97.729232 
3853.000000	97.729567 
3852.000000	97.729944 
3851.000000	97.730387 
3850.000000	97.730891 
3849.000000	97.731436 
3848.000000	97.732013 
3847.000000	97.732615 
3846.000000	97.733235 
3845.000000	97.733860 
3844.000000	97.734471 
3843.000000	97.735054 
3842.000000	97.735609 
3841.000000	97.736148 
3840.000000	97.736680 
3839.000000	97.737200 
3838.000000	97.737698 
3837.000000	97.738167 
3836.000000	97.738615 
3835.000000	97.739052 
3834.000000	97.739478 
3833.000000	97.739890 
3832.000000	97.740286 
3831.000000	97.740670 
3830.000000	97.741046 
3829.000000	97.741415 
3828.000000	97.741771 
3827.000000	97.742110 
3826.000000	97.742430 
3825.000000	97.742734 
3824.000000	97.743025 
3823.000000	97.743295 
3822.000000	97.743530 
3821.000000	97.743731 
3820.000000	97.743915 
3819.000000	97.744095 
3818.000000	97.744260 
3817.000000	97.744397 
3816.000000	97.744525 
3815.000000	97.744673 
3814.000000	97.744847 
3813.000000	97.745024 
3812.000000	97.745184 
3811.000000	97.745331 
3810.000000	97.745475 
3809.000000	97.745598 
3808.000000	97.745671 
3807.000000	97.745685 
3806.000000	97.745659 
3805.000000	97.745613 
3804.000000	97.745547 
3803.000000	97.745457 
3802.000000	97.745356 
3801.000000	97.745271 
3800.000000	97.745223 
3799.000000	97.745204 
3798.000000	97.745187 
3797.000000	97.745163 
3796.000000	97.745138 
3795.000000	97.745116 
3794.000000	97.745096 
3793.000000	97.745074 
3792.000000	97.745053 
3791.000000	97.745032 
3790.000000	97.745009 
3789.000000	97.744975 
3788.000000	97.744922 
3787.000000	97.744847 
3786.000000	97.744754 
3785.000000	97.744657 
3784.000000	97.744576 
3783.000000	97.744515 
3782.000000	97.744461 
3781.000000	97.744402 
3780.000000	97.744338 
3779.000000	97.744280 
3778.000000	97.744237 
3777.000000	97.744206 
3776.000000	97.744189 
3775.000000	97.744192 
3774.000000	97.744209 
3773.000000	97.744218 
3772.000000	97.744194 
3771.000000	97.744126 
3770.000000	97.744019 
3769.000000	97.743891 
3768.000000	97.743823 
3767.000000	97.743839 
3766.000000	97.743554 
3765.000000	97.742819 
3764.000000	97.742734 
3763.000000	97.744379 
3762.000000	97.746535 
3761.000000	97.747362 
3760.000000	97.747525 
3759.000000	97.748109 
3758.000000	97.748050 
3757.000000	97.745926 
3756.000000	97.742382 
3755.000000	97.738232 
3754.000000	97.733886 
3753.000000	97.732247 
3752.000000	97.736612 
3751.000000	97.741487 
3750.000000	97.736671 
3749.000000	97.725558 
3748.000000	97.719597 
3747.000000	97.718630 
3746.000000	97.717219 
3745.000000	97.716262 
3744.000000	97.718809 
3743.000000	97.731664 
3742.000000	97.749190 
3741.000000	97.750334 
3740.000000	97.733933 
3739.000000	97.718227 
3738.000000	97.715276 
3737.000000	97.721065 
3736.000000	97.728921 
3735.000000	97.738879 
3734.000000	97.747173 
3733.000000	97.742606 
3732.000000	97.723385 
3731.000000	97.703932 
3730.000000	97.695718 
3729.000000	97.693565 
3728.000000	97.688529 
3727.000000	97.683390 
3726.000000	97.686406 
3725.000000	97.696608 
3724.000000	97.702355 
3723.000000	97.696796 
3722.000000	97.684165 
3721.000000	97.670804 
3720.000000	97.657847 
3719.000000	97.642262 
3718.000000	97.624370 
3717.000000	97.608889 
3716.000000	97.598739 
3715.000000	97.590941 
3714.000000	97.582827 
3713.000000	97.577021 
3712.000000	97.572690 
3711.000000	97.560147 
3710.000000	97.533910 
3709.000000	97.497491 
3708.000000	97.456501 
3707.000000	97.415228 
3706.000000	97.375871 
3705.000000	97.337811 
3704.000000	97.298435 
3703.000000	97.255876 
3702.000000	97.210109 
3701.000000	97.164088 
3700.000000	97.123902 
3699.000000	97.091876 
3698.000000	97.065072 
3697.000000	97.043606 
3696.000000	97.031926 
3695.000000	97.030706 
3694.000000	97.033031 
3693.000000	97.031859 
3692.000000	97.026476 
3691.000000	97.017292 
3690.000000	97.000561 
3689.000000	96.974345 
3688.000000	96.949828 
3687.000000	96.941364 
3686.000000	96.944526 
3685.000000	96.942614 
3684.000000	96.930998 
3683.000000	96.918446 
3682.000000	96.909590 
3681.000000	96.897014 
3680.000000	96.873597 
3679.000000	96.844049 
3678.000000	96.812710 
3677.000000	96.773481 
3676.000000	96.717185 
3675.000000	96.653379 
3674.000000	96.610536 
3673.000000	96.587062 
3672.000000	96.550608 
3671.000000	96.491604 
3670.000000	96.426722 
3669.000000	96.371843 
3668.000000	96.330220 
3667.000000	96.292819 
3666.000000	96.253034 
3665.000000	96.213383 
3664.000000	96.176192 
3663.000000	96.137610 
3662.000000	96.093172 
3661.000000	96.043975 
3660.000000	95.994867 
3659.000000	95.947680 
3658.000000	95.897778 
3657.000000	95.841080 
3656.000000	95.782675 
3655.000000	95.737549 
3654.000000	95.709677 
3653.000000	95.683270 
3652.000000	95.644184 
3651.000000	95.594017 
3650.000000	95.536565 
3649.000000	95.468573 
3648.000000	95.395763 
3647.000000	95.336237 
3646.000000	95.300019 
3645.000000	95.279584 
3644.000000	95.261292 
3643.000000	95.237906 
3642.000000	95.210860 
3641.000000	95.182038 
3640.000000	95.148894 
3639.000000	95.108438 
3638.000000	95.063651 
3637.000000	95.020899 
3636.000000	94.980707 
3635.000000	94.939104 
3634.000000	94.897368 
3633.000000	94.862804 
3632.000000	94.835000 
3631.000000	94.801181 
3630.000000	94.749263 
3629.000000	94.680086 
3628.000000	94.615385 
3627.000000	94.580620 
3626.000000	94.569092 
3625.000000	94.559205 
3624.000000	94.546033 
3623.000000	94.534578 
3622.000000	94.525188 
3621.000000	94.515192 
3620.000000	94.508304 
3619.000000	94.514124 
3618.000000	94.540989 
3617.000000	94.589082 
3616.000000	94.648140 
3615.000000	94.706365 
3614.000000	94.759081 
3613.000000	94.807555 
3612.000000	94.852921 
3611.000000	94.892328 
3610.000000	94.921958 
3609.000000	94.942846 
3608.000000	94.960138 
3607.000000	94.978274 
3606.000000	94.998811 
3605.000000	95.022455 
3604.000000	95.051598 
3603.000000	95.087367 
3602.000000	95.124364 
3601.000000	95.153715 
3600.000000	95.172086 
3599.000000	95.183762 
3598.000000	95.194968 
3597.000000	95.210710 
3596.000000	95.231688 
3595.000000	95.253989 
3594.000000	95.272057 
3593.000000	95.284241 
3592.000000	95.292278 
3591.000000	95.297391 
3590.000000	95.299685 
3589.000000	95.301378 
3588.000000	95.306385 
3587.000000	95.317173 
3586.000000	95.333284 
3585.000000	95.350520 
3584.000000	95.364106 
3583.000000	95.374249 
3582.000000	95.384108 
3581.000000	95.394511 
3580.000000	95.402739 
3579.000000	95.406099 
3578.000000	95.404334 
3577.000000	95.399870 
3576.000000	95.395525 
3575.000000	95.392388 
3574.000000	95.390010 
3573.000000	95.387603 
3572.000000	95.384961 
3571.000000	95.381781 
3570.000000	95.377405 
3569.000000	95.372095 
3568.000000	95.368306 
3567.000000	95.368358 
3566.000000	95.371983 
3565.000000	95.376087 
3564.000000	95.376197 
3563.000000	95.371278 
3562.000000	95.365139 
3561.000000	95.361998 
3560.000000	95.362238 
3559.000000	95.363025 
3558.000000	95.362061 
3557.000000	95.359874 
3556.000000	95.358854 
3555.000000	95.359895 
3554.000000	95.361276 
3553.000000	95.360820 
3552.000000	95.358477 
3551.000000	95.355587 
3550.000000	95.352588 
3549.000000	95.349369 
3548.000000	95.347533 
3547.000000	95.348856 
3546.000000	95.351787 
3545.000000	95.352848 
3544.000000	95.351439 
3543.000000	95.350255 
3542.000000	95.351367 
3541.000000	95.354050 
3540.000000	95.356536 
3539.000000	95.357932 
3538.000000	95.358463 
3537.000000	95.358726 
3536.000000	95.359025 
3535.000000	95.359186 
3534.000000	95.358808 
3533.000000	95.358027 
3532.000000	95.357589 
3531.000000	95.358095 
3530.000000	95.359098 
3529.000000	95.359356 
3528.000000	95.358012 
3527.000000	95.355403 
3526.000000	95.352772 
3525.000000	95.351281 
3524.000000	95.351457 
3523.000000	95.353131 
3522.000000	95.355454 
3521.000000	95.357247 
3520.000000	95.357836 
3519.000000	95.357528 
3518.000000	95.357112 
3517.000000	95.356847 
3516.000000	95.356191 
3515.000000	95.354850 
3514.000000	95.353576 
3513.000000	95.353460 
3512.000000	95.354441 
3511.000000	95.355201 
3510.000000	95.354584 
3509.000000	95.352904 
3508.000000	95.351438 
3507.000000	95.350677 
3506.000000	95.349554 
3505.000000	95.346852 
3504.000000	95.342871 
3503.000000	95.339382 
3502.000000	95.337915 
3501.000000	95.338375 
3500.000000	95.339383 
3499.000000	95.339593 
3498.000000	95.338539 
3497.000000	95.336555 
3496.000000	95.334247 
3495.000000	95.332078 
3494.000000	95.330329 
3493.000000	95.329167 
3492.000000	95.328408 
3491.000000	95.327417 
3490.000000	95.325527 
3489.000000	95.322633 
3488.000000	95.319161 
3487.000000	95.315447 
3486.000000	95.311441 
3485.000000	95.307200 
3484.000000	95.303149 
3483.000000	95.299548 
3482.000000	95.296094 
3481.000000	95.292630 
3480.000000	95.289681 
3479.000000	95.287632 
3478.000000	95.285566 
3477.000000	95.281714 
3476.000000	95.275244 
3475.000000	95.267264 
3474.000000	95.260045 
3473.000000	95.255136 
3472.000000	95.252136 
3471.000000	95.249164 
3470.000000	95.244558 
3469.000000	95.238273 
3468.000000	95.231889 
3467.000000	95.227262 
3466.000000	95.224928 
3465.000000	95.223527 
3464.000000	95.220702 
3463.000000	95.214893 
3462.000000	95.206515 
3461.000000	95.197630 
3460.000000	95.190223 
3459.000000	95.184545 
3458.000000	95.179218 
3457.000000	95.172857 
3456.000000	95.165455 
3455.000000	95.158289 
3454.000000	95.152518 
3453.000000	95.148277 
3452.000000	95.144990 
3451.000000	95.142097 
3450.000000	95.139032 
3449.000000	95.134936 
3448.000000	95.128955 
3447.000000	95.120981 
3446.000000	95.111912 
3445.000000	95.103045 
3444.000000	95.095331 
3443.000000	95.089140 
3442.000000	95.084139 
3441.000000	95.079257 
3440.000000	95.073220 
3439.000000	95.065475 
3438.000000	95.056724 
3437.000000	95.048529 
3436.000000	95.042448 
3435.000000	95.039365 
3434.000000	95.038886 
3433.000000	95.039255 
3432.000000	95.038291 
3431.000000	95.034924 
3430.000000	95.029708 
3429.000000	95.023859 
3428.000000	95.017967 
3427.000000	95.011937 
3426.000000	95.006240 
3425.000000	95.002438 
3424.000000	95.001636 
3423.000000	95.002379 
3422.000000	95.001212 
3421.000000	94.996196 
3420.000000	94.989161 
3419.000000	94.983695 
3418.000000	94.981354 
3417.000000	94.980815 
3416.000000	94.980149 
3415.000000	94.978652 
3414.000000	94.976384 
3413.000000	94.973169 
3412.000000	94.968881 
3411.000000	94.964229 
3410.000000	94.960577 
3409.000000	94.958964 
3408.000000	94.959410 
3407.000000	94.960861 
3406.000000	94.961846 
3405.000000	94.961489 
3404.000000	94.959962 
3403.000000	94.957950 
3402.000000	94.955892 
3401.000000	94.953988 
3400.000000	94.952536 
3399.000000	94.951893 
3398.000000	94.952187 
3397.000000	94.953385 
3396.000000	94.955465 
3395.000000	94.958256 
3394.000000	94.961179 
3393.000000	94.963341 
3392.000000	94.963942 
3391.000000	94.962731 
3390.000000	94.960434 
3389.000000	94.958805 
3388.000000	94.959791 
3387.000000	94.964132 
3386.000000	94.970607 
3385.000000	94.976681 
3384.000000	94.980143 
3383.000000	94.980631 
3382.000000	94.980021 
3381.000000	94.981142 
3380.000000	94.985333 
3379.000000	94.991216 
3378.000000	94.996289 
3377.000000	94.999752 
3376.000000	95.002803 
3375.000000	95.006131 
3374.000000	95.008527 
3373.000000	95.008728 
3372.000000	95.007751 
3371.000000	95.008211 
3370.000000	95.011591 
3369.000000	95.017093 
3368.000000	95.022986 
3367.000000	95.028235 
3366.000000	95.032626 
3365.000000	95.036099 
3364.000000	95.038642 
3363.000000	95.040645 
3362.000000	95.042879 
3361.000000	95.046063 
3360.000000	95.050504 
3359.000000	95.055998 
3358.000000	95.061875 
3357.000000	95.067264 
3356.000000	95.071605 
3355.000000	95.075066 
3354.000000	95.078464 
3353.000000	95.082652 
3352.000000	95.087860 
3351.000000	95.093561 
3350.000000	95.098988 
3349.000000	95.103789 
3348.000000	95.108186 
3347.000000	95.112577 
3346.000000	95.117104 
3345.000000	95.121555 
3344.000000	95.125583 
3343.000000	95.128976 
3342.000000	95.131886 
3341.000000	95.134900 
3340.000000	95.138590 
3339.000000	95.142979 
3338.000000	95.147665 
3337.000000	95.152297 
3336.000000	95.156834 
3335.000000	95.161358 
3334.000000	95.165832 
3333.000000	95.170169 
3332.000000	95.174413 
3331.000000	95.178703 
3330.000000	95.183102 
3329.000000	95.187560 
3328.000000	95.192033 
3327.000000	95.196554 
3326.000000	95.201167 
3325.000000	95.205846 
3324.000000	95.210501 
3323.000000	95.215062 
3322.000000	95.219544 
3321.000000	95.224015 
3320.000000	95.228536 
3319.000000	95.233119 
3318.000000	95.237747 
3317.000000	95.242399 
3316.000000	95.247064 
3315.000000	95.251721 
3314.000000	95.256345 
3313.000000	95.260923 
3312.000000	95.265467 
3311.000000	95.270007 
3310.000000	95.274578 
3309.000000	95.279207 
3308.000000	95.283900 
3307.000000	95.288614 
3306.000000	95.293280 
3305.000000	95.297873 
3304.000000	95.302451 
3303.000000	95.307128 
3302.000000	95.311978 
3301.000000	95.316977 
3300.000000	95.321980 
3299.000000	95.326804 
3298.000000	95.331346 
3297.000000	95.335688 
3296.000000	95.340123 
3295.000000	95.344914 
3294.000000	95.350114 
3293.000000	95.355572 
3292.000000	95.361107 
3291.000000	95.366622 
3290.000000	95.372043 
3289.000000	95.377283 
3288.000000	95.382288 
3287.000000	95.387097 
3286.000000	95.391809 
3285.000000	95.396497 
3284.000000	95.401184 
3283.000000	95.405904 
3282.000000	95.410761 
3281.000000	95.415862 
3280.000000	95.421145 
3279.000000	95.426341 
3278.000000	95.431236 
3277.000000	95.435935 
3276.000000	95.440734 
3275.000000	95.445726 
3274.000000	95.450727 
3273.000000	95.455685 
3272.000000	95.460914 
3271.000000	95.466736 
3270.000000	95.473024 
3269.000000	95.479241 
3268.000000	95.484919 
3267.000000	95.490028 
3266.000000	95.494977 
3265.000000	95.500318 
3264.000000	95.506307 
3263.000000	95.512656 
3262.000000	95.518750 
3261.000000	95.524218 
3260.000000	95.529179 
3259.000000	95.533970 
3258.000000	95.538798 
3257.000000	95.543783 
3256.000000	95.549147 
3255.000000	95.555002 
3254.000000	95.561060 
3253.000000	95.566894 
3252.000000	95.572462 
3251.000000	95.578132 
3250.000000	95.584105 
3249.000000	95.590074 
3248.000000	95.595579 
3247.000000	95.600605 
3246.000000	95.605682 
3245.000000	95.611405 
3244.000000	95.617911 
3243.000000	95.624817 
3242.000000	95.631551 
3241.000000	95.637755 
3240.000000	95.643449 
3239.000000	95.648947 
3238.000000	95.654692 
3237.000000	95.661037 
3236.000000	95.668022 
3235.000000	95.675274 
3234.000000	95.682195 
3233.000000	95.688430 
3232.000000	95.694144 
3231.000000	95.699855 
3230.000000	95.705935 
3229.000000	95.712307 
3228.000000	95.718676 
3227.000000	95.725030 
3226.000000	95.731797 
3225.000000	95.739355 
3224.000000	95.747485 
3223.000000	95.755469 
3222.000000	95.762749 
3221.000000	95.769369 
3220.000000	95.775765 
3219.000000	95.782279 
3218.000000	95.788962 
3217.000000	95.795719 
3216.000000	95.802501 
3215.000000	95.809392 
3214.000000	95.816563 
3213.000000	95.824068 
3212.000000	95.831639 
3211.000000	95.838804 
3210.000000	95.845313 
3209.000000	95.851396 
3208.000000	95.857551 
3207.000000	95.864042 
3206.000000	95.870765 
3205.000000	95.877583 
3204.000000	95.884647 
3203.000000	95.892258 
3202.000000	95.900496 
3201.000000	95.909003 
3200.000000	95.917158 
3199.000000	95.924561 
3198.000000	95.931345 
3197.000000	95.938034 
3196.000000	95.945004 
3195.000000	95.952183 
3194.000000	95.959375 
3193.000000	95.966668 
3192.000000	95.974296 
3191.000000	95.982188 
3190.000000	95.989882 
3189.000000	95.996988 
3188.000000	96.003569 
3187.000000	96.010072 
3186.000000	96.016995 
3185.000000	96.024573 
3184.000000	96.032632 
3183.000000	96.040701 
3182.000000	96.048419 
3181.000000	96.055785 
3180.000000	96.062963 
3179.000000	96.069955 
3178.000000	96.076700 
3177.000000	96.083393 
3176.000000	96.090427 
3175.000000	96.098032 
3174.000000	96.106169 
3173.000000	96.114669 
3172.000000	96.123229 
3171.000000	96.131344 
3170.000000	96.138642 
3169.000000	96.145308 
3168.000000	96.151922 
3167.000000	96.158803 
3166.000000	96.165762 
3165.000000	96.172509 
3164.000000	96.178990 
3163.000000	96.185319 
3162.000000	96.191643 
3161.000000	96.198109 
3160.000000	96.204757 
3159.000000	96.211443 
3158.000000	96.218031 
3157.000000	96.224643 
3156.000000	96.231503 
3155.000000	96.238565 
3154.000000	96.245523 
3153.000000	96.252211 
3152.000000	96.258772 
3151.000000	96.265399 
3150.000000	96.272079 
3149.000000	96.278665 
3148.000000	96.285091 
3147.000000	96.291444 
3146.000000	96.297915 
3145.000000	96.304672 
3144.000000	96.311665 
3143.000000	96.318512 
3142.000000	96.324777 
3141.000000	96.330422 
3140.000000	96.335916 
3139.000000	96.341839 
3138.000000	96.348359 
3137.000000	96.355192 
3136.000000	96.361856 
3135.000000	96.368012 
3134.000000	96.373631 
3133.000000	96.379022 
3132.000000	96.384617 
3131.000000	96.390585 
3130.000000	96.396726 
3129.000000	96.402828 
3128.000000	96.409007 
3127.000000	96.415540 
3126.000000	96.422441 
3125.000000	96.429343 
3124.000000	96.435747 
3123.000000	96.441299 
3122.000000	96.445958 
3121.000000	96.450175 
3120.000000	96.454739 
3119.000000	96.460104 
3118.000000	96.465978 
3117.000000	96.471767 
3116.000000	96.477361 
3115.000000	96.483170 
3114.000000	96.489462 
3113.000000	96.496084 
3112.000000	96.502858 
3111.000000	96.509848 
3110.000000	96.517010 
3109.000000	96.523911 
3108.000000	96.530089 
3107.000000	96.535569 
3106.000000	96.540703 
3105.000000	96.545575 
3104.000000	96.549820 
3103.000000	96.553119 
3102.000000	96.555764 
3101.000000	96.558570 
3100.000000	96.562131 
3099.000000	96.566387 
3098.000000	96.571202 
3097.000000	96.577068 
3096.000000	96.584539 
3095.000000	96.592935 
3094.000000	96.600430 
3093.000000	96.605757 
3092.000000	96.609345 
3091.000000	96.612409 
3090.000000	96.615417 
3089.000000	96.618036 
3088.000000	96.620105 
3087.000000	96.622218 
3086.000000	96.625471 
3085.000000	96.630633 
3084.000000	96.637217 
3083.000000	96.643471 
3082.000000	96.647977 
3081.000000	96.651287 
3080.000000	96.655157 
3079.000000	96.660058 
3078.000000	96.664739 
3077.000000	96.668629 
3076.000000	96.673006 
3075.000000	96.678720 
3074.000000	96.684263 
3073.000000	96.687729 
3072.000000	96.689581 
3071.000000	96.691697 
3070.000000	96.694501 
3069.000000	96.697056 
3068.000000	96.699487 
3067.000000	96.703111 
3066.000000	96.708063 
3065.000000	96.712775 
3064.000000	96.716127 
3063.000000	96.718414 
3062.000000	96.719979 
3061.000000	96.720543 
3060.000000	96.720343 
3059.000000	96.720625 
3058.000000	96.722629 
3057.000000	96.726908 
3056.000000	96.733241 
3055.000000	96.739846 
3054.000000	96.743211 
3053.000000	96.741040 
3052.000000	96.735897 
3051.000000	96.733905 
3050.000000	96.738566 
3049.000000	96.747143 
3048.000000	96.753880 
3047.000000	96.755437 
3046.000000	96.752241 
3045.000000	96.746526 
3044.000000	96.741073 
3043.000000	96.738945 
3042.000000	96.742036 
3041.000000	96.748886 
3040.000000	96.754870 
3039.000000	96.755627 
3038.000000	96.750439 
3037.000000	96.742353 
3036.000000	96.735106 
3035.000000	96.729941 
3034.000000	96.725545 
3033.000000	96.720636 
3032.000000	96.715725 
3031.000000	96.712125 
3030.000000	96.710003 
3029.000000	96.707996 
3028.000000	96.704185 
3027.000000	96.696887 
3026.000000	96.685440 
3025.000000	96.671328 
3024.000000	96.657961 
3023.000000	96.647871 
3022.000000	96.640306 
3021.000000	96.632879 
3020.000000	96.625073 
3019.000000	96.618276 
3018.000000	96.612313 
3017.000000	96.604101 
3016.000000	96.590927 
3015.000000	96.573877 
3014.000000	96.557121 
3013.000000	96.544410 
3012.000000	96.536488 
3011.000000	96.530848 
3010.000000	96.523424 
3009.000000	96.511447 
3008.000000	96.495382 
3007.000000	96.477862 
3006.000000	96.460760 
3005.000000	96.444181 
3004.000000	96.428194 
3003.000000	96.414006 
3002.000000	96.402734 
3001.000000	96.394063 
3000.000000	96.386665 
2999.000000	96.378991 
2998.000000	96.369444 
2997.000000	96.357206 
2996.000000	96.343544 
2995.000000	96.330747 
2994.000000	96.318516 
2993.000000	96.302747 
2992.000000	96.279819 
2991.000000	96.251855 
2990.000000	96.226275 
2989.000000	96.210044 
2988.000000	96.205290 
2987.000000	96.209752 
2986.000000	96.219566 
2985.000000	96.231283 
2984.000000	96.242514 
2983.000000	96.252090 
2982.000000	96.259833 
2981.000000	96.265819 
2980.000000	96.269715 
2979.000000	96.270845 
2978.000000	96.268938 
2977.000000	96.264857 
2976.000000	96.260497 
2975.000000	96.257735 
2974.000000	96.257523 
2973.000000	96.260151 
2972.000000	96.265949 
2971.000000	96.275016 
2970.000000	96.286336 
2969.000000	96.298149 
2968.000000	96.309614 
2967.000000	96.321445 
2966.000000	96.334463 
2965.000000	96.348291 
2964.000000	96.361993 
2963.000000	96.375281 
2962.000000	96.388290 
2961.000000	96.400707 
2960.000000	96.412130 
2959.000000	96.423183 
2958.000000	96.435392 
2957.000000	96.449589 
2956.000000	96.464652 
2955.000000	96.478016 
2954.000000	96.487759 
2953.000000	96.494654 
2952.000000	96.502062 
2951.000000	96.512905 
2950.000000	96.526260 
2949.000000	96.537758 
2948.000000	96.543923 
2947.000000	96.545356 
2946.000000	96.545375 
2945.000000	96.546520 
2944.000000	96.549312 
2943.000000	96.553546 
2942.000000	96.558773 
2941.000000	96.563435 
2940.000000	96.565433 
2939.000000	96.564530 
2938.000000	96.563234 
2937.000000	96.564477 
2936.000000	96.568721 
2935.000000	96.573656 
2934.000000	96.576227 
2933.000000	96.574740 
2932.000000	96.569925 
2931.000000	96.564692 
2930.000000	96.562353 
2929.000000	96.564093 
2928.000000	96.567989 
2927.000000	96.570812 
2926.000000	96.570841 
2925.000000	96.569042 
2924.000000	96.567856 
2923.000000	96.569001 
2922.000000	96.572082 
2921.000000	96.575051 
2920.000000	96.576371 
2919.000000	96.576910 
2918.000000	96.579001 
2917.000000	96.583097 
2916.000000	96.586144 
2915.000000	96.584557 
2914.000000	96.578739 
2913.000000	96.573286 
2912.000000	96.572149 
2911.000000	96.574598 
2910.000000	96.576823 
2909.000000	96.576834 
2908.000000	96.576455 
2907.000000	96.578275 
2906.000000	96.581698 
2905.000000	96.582751 
2904.000000	96.577932 
2903.000000	96.568433 
2902.000000	96.560519 
2901.000000	96.561001 
2900.000000	96.571954 
2899.000000	96.589480 
2898.000000	96.607314 
2897.000000	96.621815 
2896.000000	96.632866 
2895.000000	96.641083 
2894.000000	96.646402 
2893.000000	96.649725 
2892.000000	96.653798 
2891.000000	96.660763 
2890.000000	96.669724 
2889.000000	96.678129 
2888.000000	96.684907 
2887.000000	96.690672 
2886.000000	96.695475 
2885.000000	96.698722 
2884.000000	96.701768 
2883.000000	96.708168 
2882.000000	96.719826 
2881.000000	96.734346 
2880.000000	96.747875 
2879.000000	96.759890 
2878.000000	96.772988 
2877.000000	96.788184 
2876.000000	96.802691 
2875.000000	96.813214 
2874.000000	96.819828 
2873.000000	96.825350 
2872.000000	96.831841 
2871.000000	96.839052 
2870.000000	96.845986 
2869.000000	96.852575 
2868.000000	96.859546 
2867.000000	96.867549 
2866.000000	96.876720 
2865.000000	96.886565 
2864.000000	96.896161 
2863.000000	96.905167 
2862.000000	96.914825 
2861.000000	96.927067 
2860.000000	96.942115 
2859.000000	96.957761 
2858.000000	96.971656 
2857.000000	96.983796 
2856.000000	96.995878 
2855.000000	97.008544 
2854.000000	97.020502 
2853.000000	97.030400 
2852.000000	97.038443 
2851.000000	97.045859 
2850.000000	97.053558 
2849.000000	97.061775 
2848.000000	97.070483 
2847.000000	97.079497 
2846.000000	97.088260 
2845.000000	97.096049 
2844.000000	97.102643 
2843.000000	97.108757 
2842.000000	97.115643 
2841.000000	97.123849 
2840.000000	97.132225 
2839.000000	97.138650 
2838.000000	97.142225 
2837.000000	97.144492 
2836.000000	97.148014 
2835.000000	97.153845 
2834.000000	97.161095 
2833.000000	97.168754 
2832.000000	97.176800 
2831.000000	97.185188 
2830.000000	97.192730 
2829.000000	97.197839 
2828.000000	97.200079 
2827.000000	97.200581 
2826.000000	97.201299 
2825.000000	97.204012 
2824.000000	97.209322 
2823.000000	97.215918 
2822.000000	97.221313 
2821.000000	97.224065 
2820.000000	97.225081 
2819.000000	97.226267 
2818.000000	97.228257 
2817.000000	97.230253 
2816.000000	97.231824 
2815.000000	97.233777 
2814.000000	97.236879 
2813.000000	97.240412 
2812.000000	97.242583 
2811.000000	97.242309 
2810.000000	97.240456 
2809.000000	97.239454 
2808.000000	97.241571 
2807.000000	97.247264 
2806.000000	97.254883 
2805.000000	97.261929 
2804.000000	97.266847 
2803.000000	97.269760 
2802.000000	97.271860 
2801.000000	97.274333 
2800.000000	97.277567 
2799.000000	97.280962 
2798.000000	97.283496 
2797.000000	97.284718 
2796.000000	97.285214 
2795.000000	97.286003 
2794.000000	97.287530 
2793.000000	97.289514 
2792.000000	97.291641 
2791.000000	97.293966 
2790.000000	97.296506 
2789.000000	97.298880 
2788.000000	97.300690 
2787.000000	97.302147 
2786.000000	97.303985 
2785.000000	97.306712 
2784.000000	97.310113 
2783.000000	97.313493 
2782.000000	97.316296 
2781.000000	97.318524 
2780.000000	97.320584 
2779.000000	97.322829 
2778.000000	97.325271 
2777.000000	97.327638 
2776.000000	97.329653 
2775.000000	97.331274 
2774.000000	97.332737 
2773.000000	97.334360 
2772.000000	97.336283 
2771.000000	97.338404 
2770.000000	97.340587 
2769.000000	97.342867 
2768.000000	97.345367 
2767.000000	97.348003 
2766.000000	97.350427 
2765.000000	97.352328 
2764.000000	97.353760 
2763.000000	97.355036 
2762.000000	97.356377 
2761.000000	97.357801 
2760.000000	97.359336 
2759.000000	97.361135 
2758.000000	97.363281 
2757.000000	97.365534 
2756.000000	97.367478 
2755.000000	97.368992 
2754.000000	97.370455 
2753.000000	97.372324 
2752.000000	97.374550 
2751.000000	97.376641 
2750.000000	97.378340 
2749.000000	97.379949 
2748.000000	97.381751 
2747.000000	97.383395 
2746.000000	97.384298 
2745.000000	97.384498 
2744.000000	97.384778 
2743.000000	97.385834 
2742.000000	97.387619 
2741.000000	97.389553 
2740.000000	97.391201 
2739.000000	97.392581 
2738.000000	97.393891 
2737.000000	97.395240 
2736.000000	97.396653 
2735.000000	97.398136 
2734.000000	97.399674 
2733.000000	97.401245 
2732.000000	97.402871 
2731.000000	97.404603 
2730.000000	97.406466 
2729.000000	97.408413 
2728.000000	97.410315 
2727.000000	97.411988 
2726.000000	97.413319 
2725.000000	97.414405 
2724.000000	97.415507 
2723.000000	97.416791 
2722.000000	97.418174 
2721.000000	97.419475 
2720.000000	97.420669 
2719.000000	97.421903 
2718.000000	97.423287 
2717.000000	97.424756 
2716.000000	97.426156 
2715.000000	97.427426 
2714.000000	97.428639 
2713.000000	97.429893 
2712.000000	97.431193 
2711.000000	97.432466 
2710.000000	97.433675 
2709.000000	97.434864 
2708.000000	97.436112 
2707.000000	97.437453 
2706.000000	97.438872 
2705.000000	97.440312 
2704.000000	97.441691 
2703.000000	97.442933 
2702.000000	97.444027 
2701.000000	97.445069 
2700.000000	97.446206 
2699.000000	97.447515 
2698.000000	97.448943 
2697.000000	97.450317 
2696.000000	97.451473 
2695.000000	97.452373 
2694.000000	97.453119 
2693.000000	97.453865 
2692.000000	97.454697 
2691.000000	97.455593 
2690.000000	97.456491 
2689.000000	97.457361 
2688.000000	97.458209 
2687.000000	97.459030 
2686.000000	97.459816 
2685.000000	97.460602 
2684.000000	97.461441 
2683.000000	97.462324 
2682.000000	97.463156 
2681.000000	97.463862 
2680.000000	97.464484 
2679.000000	97.465165 
2678.000000	97.466009 
2677.000000	97.467003 
2676.000000	97.468011 
2675.000000	97.468824 
2674.000000	97.469286 
2673.000000	97.469448 
2672.000000	97.469598 
2671.000000	97.469975 
2670.000000	97.470519 
2669.000000	97.471009 
2668.000000	97.471370 
2667.000000	97.471718 
2666.000000	97.472120 
2665.000000	97.472478 
2664.000000	97.472721 
2663.000000	97.472971 
2662.000000	97.473431 
2661.000000	97.474128 
2660.000000	97.474847 
2659.000000	97.475319 
2658.000000	97.475449 
2657.000000	97.475367 
2656.000000	97.475329 
2655.000000	97.475510 
2654.000000	97.475868 
2653.000000	97.476208 
2652.000000	97.476387 
2651.000000	97.476493 
2650.000000	97.476769 
2649.000000	97.477369 
2648.000000	97.478184 
2647.000000	97.478901 
2646.000000	97.479235 
2645.000000	97.479115 
2644.000000	97.478728 
2643.000000	97.478417 
2642.000000	97.478432 
2641.000000	97.478767 
2640.000000	97.479251 
2639.000000	97.479802 
2638.000000	97.480491 
2637.000000	97.481330 
2636.000000	97.482137 
2635.000000	97.482751 
2634.000000	97.483266 
2633.000000	97.483915 
2632.000000	97.484705 
2631.000000	97.485338 
2630.000000	97.485594 
2629.000000	97.485612 
2628.000000	97.485766 
2627.000000	97.486259 
2626.000000	97.487000 
2625.000000	97.487814 
2624.000000	97.488638 
2623.000000	97.489472 
2622.000000	97.490246 
2621.000000	97.490829 
2620.000000	97.491162 
2619.000000	97.491314 
2618.000000	97.491456 
2617.000000	97.491768 
2616.000000	97.492320 
2615.000000	97.493038 
2614.000000	97.493766 
2613.000000	97.494418 
2612.000000	97.495025 
2611.000000	97.495650 
2610.000000	97.496314 
2609.000000	97.497005 
2608.000000	97.497679 
2607.000000	97.498267 
2606.000000	97.498727 
2605.000000	97.499108 
2604.000000	97.499515 
2603.000000	97.499981 
2602.000000	97.500447 
2601.000000	97.500910 
2600.000000	97.501482 
2599.000000	97.502199 
2598.000000	97.502897 
2597.000000	97.503394 
2596.000000	97.503705 
2595.000000	97.503961 
2594.000000	97.504156 
2593.000000	97.504292 
2592.000000	97.504733 
2591.000000	97.505912 
2590.000000	97.507605 
2589.000000	97.508901 
2588.000000	97.509262 
2587.000000	97.509149 
2586.000000	97.509403 
2585.000000	97.510308 
2584.000000	97.511595 
2583.000000	97.512905 
2582.000000	97.513921 
2581.000000	97.514488 
2580.000000	97.514975 
2579.000000	97.516150 
2578.000000	97.518288 
2577.000000	97.520588 
2576.000000	97.521861 
2575.000000	97.521669 
2574.000000	97.520590 
2573.000000	97.519592 
2572.000000	97.519175 
2571.000000	97.519060 
2570.000000	97.518681 
2569.000000	97.518013 
2568.000000	97.517767 
2567.000000	97.518456 
2566.000000	97.519517 
2565.000000	97.519941 
2564.000000	97.519696 
2563.000000	97.519790 
2562.000000	97.520887 
2561.000000	97.522673 
2560.000000	97.524775 
2559.000000	97.527462 
2558.000000	97.530825 
2557.000000	97.533934 
2556.000000	97.535678 
2555.000000	97.536126 
2554.000000	97.536284 
2553.000000	97.536588 
2552.000000	97.536499 
2551.000000	97.535850 
2550.000000	97.535576 
2549.000000	97.536415 
2548.000000	97.537531 
2547.000000	97.537452 
2546.000000	97.536093 
2545.000000	97.534903 
2544.000000	97.534812 
2543.000000	97.535029 
2542.000000	97.534425 
2541.000000	97.533349 
2540.000000	97.533251 
2539.000000	97.534719 
2538.000000	97.536767 
2537.000000	97.538011 
2536.000000	97.538207 
2535.000000	97.538118 
2534.000000	97.538300 
2533.000000	97.538516 
2532.000000	97.538386 
2531.000000	97.538083 
2530.000000	97.538072 
2529.000000	97.538411 
2528.000000	97.538640 
2527.000000	97.538424 
2526.000000	97.538058 
2525.000000	97.538168 
2524.000000	97.539000 
2523.000000	97.540223 
2522.000000	97.541321 
2521.000000	97.542063 
2520.000000	97.542487 
2519.000000	97.542631 
2518.000000	97.542479 
2517.000000	97.542094 
2516.000000	97.541626 
2515.000000	97.541194 
2514.000000	97.540910 
2513.000000	97.540994 
2512.000000	97.541635 
2511.000000	97.542756 
2510.000000	97.544069 
2509.000000	97.545311 
2508.000000	97.546312 
2507.000000	97.546948 
2506.000000	97.547258 
2505.000000	97.547563 
2504.000000	97.548229 
2503.000000	97.549251 
2502.000000	97.550239 
2501.000000	97.550866 
2500.000000	97.551194 
2499.000000	97.551532 
2498.000000	97.552059 
2497.000000	97.552686 
2496.000000	97.553284 
2495.000000	97.553868 
2494.000000	97.554477 
2493.000000	97.555051 
2492.000000	97.555534 
2491.000000	97.556027 
2490.000000	97.556712 
2489.000000	97.557637 
2488.000000	97.558610 
2487.000000	97.559362 
2486.000000	97.559797 
2485.000000	97.560053 
2484.000000	97.560365 
2483.000000	97.560855 
2482.000000	97.561478 
2481.000000	97.562123 
2480.000000	97.562709 
2479.000000	97.563206 
2478.000000	97.563662 
2477.000000	97.564220 
2476.000000	97.564968 
2475.000000	97.565695 
2474.000000	97.565947 
2473.000000	97.565473 
2472.000000	97.564534 
2471.000000	97.563701 
2470.000000	97.563436 
2469.000000	97.563966 
2468.000000	97.565238 
2467.000000	97.566738 
2466.000000	97.567595 
2465.000000	97.567309 
2464.000000	97.566423 
2463.000000	97.566169 
2462.000000	97.567314 
2461.000000	97.569582 
2460.000000	97.572089 
2459.000000	97.574079 
2458.000000	97.575069 
2457.000000	97.574735 
2456.000000	97.572968 
2455.000000	97.570155 
2454.000000	97.567250 
2453.000000	97.565228 
2452.000000	97.564347 
2451.000000	97.564050 
2450.000000	97.563786 
2449.000000	97.563776 
2448.000000	97.564555 
2447.000000	97.565894 
2446.000000	97.566786 
2445.000000	97.566641 
2444.000000	97.565899 
2443.000000	97.565286 
2442.000000	97.565071 
2441.000000	97.565294 
2440.000000	97.566131 
2439.000000	97.567677 
2438.000000	97.569813 
2437.000000	97.572487 
2436.000000	97.575633 
2435.000000	97.578649 
2434.000000	97.580505 
2433.000000	97.580717 
2432.000000	97.579891 
2431.000000	97.579142 
2430.000000	97.579286 
2429.000000	97.580619 
2428.000000	97.582820 
2427.000000	97.584767 
2426.000000	97.585089 
2425.000000	97.583371 
2424.000000	97.580865 
2423.000000	97.579449 
2422.000000	97.579794 
2421.000000	97.581414 
2420.000000	97.583831 
2419.000000	97.586666 
2418.000000	97.589313 
2417.000000	97.591561 
2416.000000	97.593896 
2415.000000	97.596313 
2414.000000	97.597733 
2413.000000	97.597676 
2412.000000	97.597418 
2411.000000	97.598181 
2410.000000	97.599236 
2409.000000	97.599364 
2408.000000	97.599189 
2407.000000	97.600199 
2406.000000	97.602060 
2405.000000	97.602727 
2404.000000	97.601137 
2403.000000	97.598379 
2402.000000	97.596343 
2401.000000	97.596355 
2400.000000	97.598901 
2399.000000	97.603418 
2398.000000	97.608392 
2397.000000	97.612572 
2396.000000	97.615927 
2395.000000	97.618648 
2394.000000	97.619854 
2393.000000	97.618771 
2392.000000	97.616633 
2391.000000	97.616017 
2390.000000	97.618201 
2389.000000	97.622224 
2388.000000	97.626631 
2387.000000	97.630995 
2386.000000	97.635523 
2385.000000	97.640074 
2384.000000	97.643974 
2383.000000	97.646034 
2382.000000	97.644551 
2381.000000	97.638354 
2380.000000	97.628248 
2379.000000	97.616766 
2378.000000	97.605970 
2377.000000	97.596370 
2376.000000	97.588739 
2375.000000	97.585579 
2374.000000	97.588873 
2373.000000	97.597110 
2372.000000	97.606165 
2371.000000	97.613285 
2370.000000	97.618417 
2369.000000	97.621540 
2368.000000	97.621295 
2367.000000	97.617131 
2366.000000	97.610996 
2365.000000	97.605884 
2364.000000	97.603479 
2363.000000	97.603762 
2362.000000	97.606080 
2361.000000	97.609408 
2360.000000	97.612627 
2359.000000	97.614910 
2358.000000	97.615589 
2357.000000	97.614409 
2356.000000	97.611897 
2355.000000	97.608860 
2354.000000	97.605268 
2353.000000	97.601993 
2352.000000	97.601449 
2351.000000	97.604360 
2350.000000	97.608640 
2349.000000	97.611425 
2348.000000	97.611992 
2347.000000	97.611394 
2346.000000	97.611220 
2345.000000	97.612394 
2344.000000	97.614494 
2343.000000	97.616392 
2342.000000	97.617215 
2341.000000	97.617127 
2340.000000	97.616959 
2339.000000	97.617232 
2338.000000	97.617607 
2337.000000	97.617584 
2336.000000	97.617635 
2335.000000	97.618641 
2334.000000	97.620392 
2333.000000	97.621876 
2332.000000	97.623118 
2331.000000	97.624955 
2330.000000	97.627526 
2329.000000	97.629933 
2328.000000	97.632069 
2327.000000	97.634455 
2326.000000	97.636709 
2325.000000	97.638024 
2324.000000	97.638667 
2323.000000	97.640158 
2322.000000	97.642250 
2321.000000	97.643066 
2320.000000	97.642039 
2319.000000	97.640967 
2318.000000	97.641308 
2317.000000	97.641949 
2316.000000	97.641574 
2315.000000	97.640673 
2314.000000	97.640911 
2313.000000	97.642835 
2312.000000	97.646533 
2311.000000	97.652206 
2310.000000	97.658963 
2309.000000	97.664498 
2308.000000	97.667349 
2307.000000	97.668685 
2306.000000	97.669648 
2305.000000	97.670279 
2304.000000	97.670774 
2303.000000	97.672529 
2302.000000	97.676598 
2301.000000	97.682325 
2300.000000	97.687712 
2299.000000	97.690157 
2298.000000	97.687508 
2297.000000	97.679001 
2296.000000	97.667060 
2295.000000	97.656379 
2294.000000	97.650026 
2293.000000	97.647120 
2292.000000	97.644754 
2291.000000	97.641222 
2290.000000	97.636543 
2289.000000	97.631933 
2288.000000	97.628700 
2287.000000	97.627326 
2286.000000	97.626880 
2285.000000	97.626567 
2284.000000	97.627104 
2283.000000	97.629461 
2282.000000	97.632185 
2281.000000	97.632124 
2280.000000	97.627995 
2279.000000	97.621673 
2278.000000	97.615875 
2277.000000	97.612249 
2276.000000	97.611912 
2275.000000	97.615277 
2274.000000	97.620766 
2273.000000	97.625511 
2272.000000	97.628275 
2271.000000	97.630034 
2270.000000	97.631668 
2269.000000	97.633007 
2268.000000	97.634222 
2267.000000	97.635953 
2266.000000	97.637744 
2265.000000	97.638341 
2264.000000	97.637699 
2263.000000	97.636761 
2262.000000	97.635353 
2261.000000	97.632410 
2260.000000	97.628277 
2259.000000	97.624776 
2258.000000	97.622796 
2257.000000	97.621790 
2256.000000	97.621665 
2255.000000	97.623170 
2254.000000	97.625990 
2253.000000	97.628061 
2252.000000	97.627782 
2251.000000	97.625576 
2250.000000	97.622715 
2249.000000	97.619847 
2248.000000	97.617353 
2247.000000	97.616085 
2246.000000	97.616516 
2245.000000	97.617830 
2244.000000	97.618570 
2243.000000	97.618130 
2242.000000	97.617009 
2241.000000	97.616066 
2240.000000	97.615840 
2239.000000	97.616357 
2238.000000	97.617225 
2237.000000	97.617916 
2236.000000	97.618219 
2235.000000	97.618332 
2234.000000	97.618496 
2233.000000	97.618745 
2232.000000	97.618994 
2231.000000	97.619184 
2230.000000	97.619249 
2229.000000	97.619099 
2228.000000	97.618779 
2227.000000	97.618527 
2226.000000	97.618523 
2225.000000	97.618675 
2224.000000	97.618734 
2223.000000	97.618622 
2222.000000	97.618481 
2221.000000	97.618483 
2220.000000	97.618633 
2219.000000	97.618832 
2218.000000	97.619010 
2217.000000	97.619183 
2216.000000	97.619402 
2215.000000	97.619670 
2214.000000	97.619932 
2213.000000	97.620138 
2212.000000	97.620300 
2211.000000	97.620488 
2210.000000	97.620753 
2209.000000	97.621083 
2208.000000	97.621429 
2207.000000	97.621755 
2206.000000	97.622064 
2205.000000	97.622384 
2204.000000	97.622740 
2203.000000	97.623144 
2202.000000	97.623560 
2201.000000	97.623889 
2200.000000	97.624029 
2199.000000	97.623966 
2198.000000	97.623755 
2197.000000	97.623488 
2196.000000	97.623279 
2195.000000	97.623205 
2194.000000	97.623275 
2193.000000	97.623520 
2192.000000	97.624079 
2191.000000	97.624967 
2190.000000	97.625835 
2189.000000	97.626296 
2188.000000	97.626474 
2187.000000	97.626836 
2186.000000	97.627389 
2185.000000	97.627560 
2184.000000	97.627179 
2183.000000	97.627116 
2182.000000	97.628290 
2181.000000	97.630523 
2180.000000	97.632534 
2179.000000	97.633377 
2178.000000	97.633161 
2177.000000	97.632695 
2176.000000	97.632782 
2175.000000	97.633746 
2174.000000	97.635266 
2173.000000	97.636651 
2172.000000	97.637728 
2171.000000	97.639108 
2170.000000	97.641081 
2169.000000	97.642782 
2168.000000	97.643327 
2167.000000	97.643301 
2166.000000	97.643953 
2165.000000	97.645076 
2164.000000	97.645000 
2163.000000	97.643112 
2162.000000	97.641427 
2161.000000	97.642868 
2160.000000	97.648525 
2159.000000	97.656954 
2158.000000	97.665644 
2157.000000	97.673042 
2156.000000	97.678613 
2155.000000	97.681521 
2154.000000	97.680756 
2153.000000	97.677199 
2152.000000	97.674185 
2151.000000	97.674100 
2150.000000	97.675448 
2149.000000	97.675176 
2148.000000	97.673324 
2147.000000	97.673000 
2146.000000	97.675705 
2145.000000	97.679494 
2144.000000	97.682414 
2143.000000	97.684941 
2142.000000	97.687698 
2141.000000	97.689483 
2140.000000	97.689597 
2139.000000	97.690128 
2138.000000	97.693603 
2137.000000	97.699298 
2136.000000	97.703570 
2135.000000	97.703290 
2134.000000	97.697846 
2133.000000	97.689443 
2132.000000	97.682287 
2131.000000	97.679549 
2130.000000	97.680578 
2129.000000	97.681951 
2128.000000	97.681584 
2127.000000	97.680648 
2126.000000	97.680983 
2125.000000	97.682386 
2124.000000	97.683478 
2123.000000	97.683672 
2122.000000	97.682899 
2121.000000	97.680576 
2120.000000	97.676307 
2119.000000	97.670965 
2118.000000	97.666122 
2117.000000	97.662800 
2116.000000	97.661076 
2115.000000	97.660094 
2114.000000	97.658086 
2113.000000	97.653804 
2112.000000	97.648725 
2111.000000	97.646397 
2110.000000	97.648590 
2109.000000	97.653310 
2108.000000	97.657042 
2107.000000	97.658136 
2106.000000	97.657179 
2105.000000	97.655536 
2104.000000	97.654742 
2103.000000	97.655802 
2102.000000	97.657698 
2101.000000	97.657749 
2100.000000	97.654837 
2099.000000	97.651445 
2098.000000	97.651120 
2097.000000	97.654519 
2096.000000	97.659235 
2095.000000	97.662662 
2094.000000	97.664101 
2093.000000	97.664242 
2092.000000	97.663964 
2091.000000	97.663936 
2090.000000	97.664581 
2089.000000	97.666049 
2088.000000	97.668203 
2087.000000	97.670473 
2086.000000	97.671738 
2085.000000	97.670988 
2084.000000	97.668505 
2083.000000	97.665961 
2082.000000	97.664945 
2081.000000	97.665764 
2080.000000	97.667941 
2079.000000	97.670964 
2078.000000	97.673904 
2077.000000	97.675202 
2076.000000	97.674103 
2075.000000	97.671900 
2074.000000	97.670669 
2073.000000	97.670761 
2072.000000	97.670650 
2071.000000	97.669172 
2070.000000	97.666964 
2069.000000	97.665581 
2068.000000	97.666038 
2067.000000	97.668314 
2066.000000	97.671382 
2065.000000	97.673344 
2064.000000	97.672636 
2063.000000	97.669656 
2062.000000	97.666846 
2061.000000	97.666830 
2060.000000	97.670532 
2059.000000	97.677080 
2058.000000	97.684438 
2057.000000	97.690145 
2056.000000	97.692398 
2055.000000	97.690791 
2054.000000	97.686617 
2053.000000	97.682381 
2052.000000	97.680312 
2051.000000	97.680717 
2050.000000	97.681909 
2049.000000	97.682151 
2048.000000	97.681791 
2047.000000	97.682660 
2046.000000	97.685411 
2045.000000	97.688789 
2044.000000	97.691656 
2043.000000	97.694387 
2042.000000	97.697745 
2041.000000	97.701659 
2040.000000	97.705853 
2039.000000	97.710603 
2038.000000	97.715937 
2037.000000	97.720875 
2036.000000	97.724411 
2035.000000	97.726739 
2034.000000	97.729082 
2033.000000	97.732772 
2032.000000	97.738288 
2031.000000	97.744097 
2030.000000	97.746667 
2029.000000	97.743404 
2028.000000	97.735822 
2027.000000	97.728570 
2026.000000	97.724723 
2025.000000	97.723964 
2024.000000	97.725463 
2023.000000	97.730208 
2022.000000	97.739150 
2021.000000	97.750098 
2020.000000	97.758206 
2019.000000	97.759721 
2018.000000	97.754331 
2017.000000	97.745303 
2016.000000	97.737762 
2015.000000	97.734760 
2014.000000	97.734743 
2013.000000	97.733568 
2012.000000	97.729654 
2011.000000	97.726187 
2010.000000	97.727038 
2009.000000	97.731873 
2008.000000	97.736777 
2007.000000	97.739025 
2006.000000	97.739367 
2005.000000	97.739557 
2004.000000	97.739856 
2003.000000	97.739710 
2002.000000	97.739330 
2001.000000	97.739300 
2000.000000	97.739096 
1999.000000	97.736897 
1998.000000	97.731367 
1997.000000	97.723442 
1996.000000	97.716086 
1995.000000	97.711956 
1994.000000	97.711490 
1993.000000	97.713118 
1992.000000	97.714784 
1991.000000	97.715553 
1990.000000	97.715871 
1989.000000	97.716590 
1988.000000	97.717854 
1987.000000	97.718688 
1986.000000	97.717845 
1985.000000	97.715268 
1984.000000	97.712391 
1983.000000	97.710705 
1982.000000	97.710302 
1981.000000	97.710352 
1980.000000	97.710524 
1979.000000	97.711107 
1978.000000	97.711964 
1977.000000	97.712346 
1976.000000	97.711833 
1975.000000	97.710790 
1974.000000	97.709882 
1973.000000	97.709524 
1972.000000	97.709746 
1971.000000	97.710296 
1970.000000	97.710720 
1969.000000	97.710565 
1968.000000	97.709719 
1967.000000	97.708497 
1966.000000	97.707459 
1965.000000	97.706934 
1964.000000	97.706883 
1963.000000	97.707076 
1962.000000	97.707246 
1961.000000	97.707174 
1960.000000	97.706701 
1959.000000	97.705792 
1958.000000	97.704626 
1957.000000	97.703533 
1956.000000	97.702718 
1955.000000	97.702124 
1954.000000	97.701540 
1953.000000	97.700807 
1952.000000	97.699918 
1951.000000	97.698945 
1950.000000	97.697944 
1949.000000	97.696958 
1948.000000	97.696025 
1947.000000	97.695143 
1946.000000	97.694216 
1945.000000	97.693123 
1944.000000	97.691843 
1943.000000	97.690491 
1942.000000	97.689163 
1941.000000	97.687845 
1940.000000	97.686500 
1939.000000	97.685121 
1938.000000	97.683681 
1937.000000	97.682194 
1936.000000	97.680833 
1935.000000	97.679767 
1934.000000	97.678868 
1933.000000	97.677820 
1932.000000	97.676595 
1931.000000	97.675485 
1930.000000	97.674547 
1929.000000	97.673400 
1928.000000	97.671881 
1927.000000	97.670342 
1926.000000	97.669000 
1925.000000	97.667480 
1924.000000	97.665502 
1923.000000	97.663438 
1922.000000	97.661633 
1921.000000	97.659810 
1920.000000	97.657813 
1919.000000	97.656104 
1918.000000	97.654913 
1917.000000	97.653643 
1916.000000	97.651783 
1915.000000	97.649790 
1914.000000	97.648361 
1913.000000	97.647289 
1912.000000	97.645821 
1911.000000	97.644011 
1910.000000	97.642561 
1909.000000	97.641709 
1908.000000	97.641203 
1907.000000	97.640808 
1906.000000	97.640130 
1905.000000	97.638338 
1904.000000	97.635105 
1903.000000	97.631562 
1902.000000	97.629216 
1901.000000	97.628162 
1900.000000	97.627445 
1899.000000	97.626525 
1898.000000	97.625534 
1897.000000	97.624386 
1896.000000	97.622682 
1895.000000	97.620423 
1894.000000	97.617787 
1893.000000	97.614609 
1892.000000	97.610996 
1891.000000	97.608008 
1890.000000	97.606691 
1889.000000	97.606743 
1888.000000	97.607381 
1887.000000	97.608648 
1886.000000	97.610437 
1885.000000	97.611309 
1884.000000	97.609756 
1883.000000	97.606294 
1882.000000	97.603197 
1881.000000	97.602208 
1880.000000	97.603315 
1879.000000	97.604957 
1878.000000	97.605228 
1877.000000	97.603778 
1876.000000	97.602564 
1875.000000	97.603878 
1874.000000	97.607354 
1873.000000	97.609873 
1872.000000	97.609333 
1871.000000	97.606922 
1870.000000	97.604865 
1869.000000	97.603317 
1868.000000	97.601998 
1867.000000	97.602693 
1866.000000	97.605986 
1865.000000	97.608982 
1864.000000	97.609256 
1863.000000	97.608429 
1862.000000	97.609659 
1861.000000	97.613157 
1860.000000	97.616858 
1859.000000	97.620259 
1858.000000	97.624249 
1857.000000	97.628365 
1856.000000	97.631483 
1855.000000	97.634248 
1854.000000	97.637757 
1853.000000	97.641022 
1852.000000	97.642991 
1851.000000	97.644716 
1850.000000	97.647494 
1849.000000	97.650513 
1848.000000	97.652104 
1847.000000	97.652395 
1846.000000	97.652827 
1845.000000	97.653987 
1844.000000	97.655484 
1843.000000	97.657871 
1842.000000	97.661393 
1841.000000	97.664478 
1840.000000	97.666504 
1839.000000	97.668854 
1838.000000	97.672210 
1837.000000	97.674610 
1836.000000	97.674297 
1835.000000	97.672942 
1834.000000	97.673237 
1833.000000	97.675001 
1832.000000	97.676135 
1831.000000	97.675655 
1830.000000	97.674412 
1829.000000	97.673771 
1828.000000	97.674365 
1827.000000	97.676262 
1826.000000	97.679567 
1825.000000	97.683518 
1824.000000	97.686257 
1823.000000	97.687125 
1822.000000	97.687008 
1821.000000	97.686512 
1820.000000	97.685617 
1819.000000	97.684895 
1818.000000	97.685666 
1817.000000	97.687751 
1816.000000	97.689087 
1815.000000	97.688768 
1814.000000	97.688202 
1813.000000	97.688878 
1812.000000	97.690088 
1811.000000	97.690264 
1810.000000	97.689481 
1809.000000	97.688672 
1808.000000	97.688232 
1807.000000	97.688336 
1806.000000	97.689029 
1805.000000	97.689545 
1804.000000	97.688959 
1803.000000	97.687807 
1802.000000	97.687549 
1801.000000	97.688452 
1800.000000	97.689026 
1799.000000	97.688600 
1798.000000	97.688364 
1797.000000	97.688779 
1796.000000	97.688929 
1795.000000	97.688481 
1794.000000	97.688437 
1793.000000	97.689373 
1792.000000	97.690195 
1791.000000	97.690843 
1790.000000	97.692551 
1789.000000	97.694867 
1788.000000	97.696613 
1787.000000	97.698042 
1786.000000	97.700255 
1785.000000	97.702695 
1784.000000	97.703382 
1783.000000	97.702027 
1782.000000	97.700253 
1781.000000	97.700222 
1780.000000	97.702658 
1779.000000	97.706418 
1778.000000	97.710159 
1777.000000	97.713159 
1776.000000	97.715465 
1775.000000	97.717106 
1774.000000	97.717838 
1773.000000	97.717580 
1772.000000	97.716000 
1771.000000	97.713725 
1770.000000	97.712791 
1769.000000	97.714476 
1768.000000	97.718776 
1767.000000	97.723860 
1766.000000	97.727119 
1765.000000	97.727831 
1764.000000	97.726913 
1763.000000	97.725750 
1762.000000	97.725042 
1761.000000	97.725088 
1760.000000	97.725805 
1759.000000	97.726652 
1758.000000	97.727573 
1757.000000	97.729350 
1756.000000	97.732009 
1755.000000	97.732999 
1754.000000	97.729516 
1753.000000	97.721998 
1752.000000	97.714828 
1751.000000	97.711598 
1750.000000	97.711754 
1749.000000	97.712864 
1748.000000	97.713543 
1747.000000	97.712854 
1746.000000	97.709751 
1745.000000	97.706003 
1744.000000	97.704741 
1743.000000	97.705895 
1742.000000	97.706282 
1741.000000	97.703921 
1740.000000	97.699792 
1739.000000	97.696501 
1738.000000	97.694653 
1737.000000	97.691935 
1736.000000	97.687521 
1735.000000	97.685648 
1734.000000	97.683661 
1733.000000	97.675433 
1732.000000	97.666358 
1731.000000	97.663298 
1730.000000	97.667604 
1729.000000	97.674802 
1728.000000	97.677417 
1727.000000	97.672678 
1726.000000	97.663462 
1725.000000	97.655117 
1724.000000	97.650065 
1723.000000	97.647325 
1722.000000	97.644411 
1721.000000	97.637682 
1720.000000	97.625140 
1719.000000	97.610496 
1718.000000	97.599744 
1717.000000	97.589949 
1716.000000	97.575551 
1715.000000	97.561485 
1714.000000	97.554557 
1713.000000	97.552492 
1712.000000	97.548552 
1711.000000	97.541219 
1710.000000	97.532982 
1709.000000	97.522839 
1708.000000	97.507606 
1707.000000	97.489116 
1706.000000	97.474156 
1705.000000	97.463027 
1704.000000	97.449233 
1703.000000	97.429940 
1702.000000	97.409644 
1701.000000	97.395333 
1700.000000	97.381838 
1699.000000	97.366453 
1698.000000	97.355153 
1697.000000	97.345200 
1696.000000	97.333158 
1695.000000	97.321344 
1694.000000	97.312393 
1693.000000	97.303021 
1692.000000	97.288330 
1691.000000	97.269599 
1690.000000	97.251030 
1689.000000	97.235129 
1688.000000	97.221589 
1687.000000	97.207718 
1686.000000	97.191659 
1685.000000	97.172265 
1684.000000	97.146681 
1683.000000	97.121822 
1682.000000	97.105452 
1681.000000	97.093506 
1680.000000	97.083734 
1679.000000	97.075544 
1678.000000	97.064976 
1677.000000	97.049156 
1676.000000	97.029321 
1675.000000	97.007877 
1674.000000	96.985940 
1673.000000	96.965531 
1672.000000	96.947041 
1671.000000	96.930130 
1670.000000	96.911557 
1669.000000	96.889093 
1668.000000	96.870992 
1667.000000	96.862686 
1666.000000	96.857744 
1665.000000	96.848039 
1664.000000	96.831528 
1663.000000	96.811750 
1662.000000	96.791179 
1661.000000	96.771161 
1660.000000	96.754189 
1659.000000	96.740648 
1658.000000	96.727085 
1657.000000	96.710267 
1656.000000	96.691818 
1655.000000	96.673614 
1654.000000	96.653416 
1653.000000	96.610412 
1652.000000	96.563242 
1651.000000	96.548081 
1650.000000	96.546179 
1649.000000	96.538432 
1648.000000	96.526086 
1647.000000	96.511014 
1646.000000	96.496332 
1645.000000	96.486535 
1644.000000	96.482261 
1643.000000	96.480847 
1642.000000	96.480539 
1641.000000	96.479170 
1640.000000	96.475999 
1639.000000	96.472310 
1638.000000	96.468262 
1637.000000	96.461666 
1636.000000	96.447961 
1635.000000	96.429795 
1634.000000	96.422169 
1633.000000	96.428531 
1632.000000	96.439430 
1631.000000	96.450881 
1630.000000	96.461424 
1629.000000	96.468614 
1628.000000	96.473639 
1627.000000	96.482071 
1626.000000	96.495509 
1625.000000	96.510270 
1624.000000	96.524995 
1623.000000	96.541704 
1622.000000	96.560979 
1621.000000	96.581391 
1620.000000	96.602390 
1619.000000	96.624554 
1618.000000	96.647383 
1617.000000	96.663880 
1616.000000	96.673581 
1615.000000	96.688335 
1614.000000	96.710576 
1613.000000	96.732356 
1612.000000	96.750469 
1611.000000	96.766550 
1610.000000	96.781215 
1609.000000	96.795899 
1608.000000	96.815117 
1607.000000	96.839678 
1606.000000	96.862391 
1605.000000	96.878786 
1604.000000	96.893397 
1603.000000	96.910245 
1602.000000	96.927375 
1601.000000	96.942970 
1600.000000	96.959373 
1599.000000	96.977120 
1598.000000	96.992069 
1597.000000	97.002143 
1596.000000	97.011220 
1595.000000	97.023567 
1594.000000	97.037647 
1593.000000	97.049546 
1592.000000	97.059066 
1591.000000	97.068301 
1590.000000	97.077619 
1589.000000	97.087018 
1588.000000	97.098217 
1587.000000	97.111737 
1586.000000	97.124303 
1585.000000	97.132972 
1584.000000	97.140550 
1583.000000	97.150385 
1582.000000	97.160671 
1581.000000	97.169030 
1580.000000	97.177087 
1579.000000	97.186794 
1578.000000	97.197678 
1577.000000	97.208888 
1576.000000	97.219165 
1575.000000	97.228812 
1574.000000	97.238400 
1573.000000	97.247330 
1572.000000	97.256403 
1571.000000	97.267161 
1570.000000	97.276975 
1569.000000	97.283061 
1568.000000	97.289225 
1567.000000	97.297795 
1566.000000	97.306606 
1565.000000	97.314438 
1564.000000	97.322729 
1563.000000	97.330361 
1562.000000	97.335817 
1561.000000	97.338866 
1560.000000	97.348058 
1559.000000	97.360433 
1558.000000	97.365103 
1557.000000	97.369327 
1556.000000	97.377911 
1555.000000	97.388522 
1554.000000	97.399202 
1553.000000	97.407662 
1552.000000	97.414175 
1551.000000	97.420269 
1550.000000	97.427555 
1549.000000	97.435523 
1548.000000	97.442478 
1547.000000	97.447717 
1546.000000	97.451572 
1545.000000	97.455175 
1544.000000	97.459771 
1543.000000	97.466093 
1542.000000	97.474264 
1541.000000	97.482585 
1540.000000	97.486495 
1539.000000	97.486874 
1538.000000	97.489139 
1537.000000	97.492755 
1536.000000	97.495229 
1535.000000	97.497750 
1534.000000	97.502142 
1533.000000	97.507926 
1532.000000	97.513452 
1531.000000	97.517932 
1530.000000	97.520938 
1529.000000	97.522205 
1528.000000	97.522434 
1527.000000	97.523600 
1526.000000	97.526764 
1525.000000	97.530333 
1524.000000	97.532298 
1523.000000	97.533189 
1522.000000	97.535251 
1521.000000	97.538200 
1520.000000	97.539487 
1519.000000	97.538186 
1518.000000	97.535864 
1517.000000	97.535461 
1516.000000	97.538240 
1515.000000	97.542858 
1514.000000	97.547530 
1513.000000	97.551005 
1512.000000	97.551744 
1511.000000	97.548407 
1510.000000	97.542464 
1509.000000	97.537363 
1508.000000	97.538123 
1507.000000	97.545131 
1506.000000	97.550841 
1505.000000	97.552032 
1504.000000	97.550961 
1503.000000	97.547789 
1502.000000	97.543680 
1501.000000	97.540125 
1500.000000	97.536772 
1499.000000	97.532790 
1498.000000	97.529468 
1497.000000	97.528945 
1496.000000	97.530103 
1495.000000	97.532364 
1494.000000	97.536503 
1493.000000	97.540921 
1492.000000	97.542928 
1491.000000	97.542486 
1490.000000	97.541955 
1489.000000	97.541299 
1488.000000	97.537583 
1487.000000	97.531874 
1486.000000	97.527174 
1485.000000	97.521608 
1484.000000	97.513642 
1483.000000	97.506169 
1482.000000	97.503250 
1481.000000	97.503434 
1480.000000	97.500378 
1479.000000	97.491755 
1478.000000	97.481617 
1477.000000	97.473627 
1476.000000	97.466043 
1475.000000	97.456669 
1474.000000	97.447027 
1473.000000	97.440164 
1472.000000	97.436507 
1471.000000	97.435054 
1470.000000	97.434162 
1469.000000	97.430035 
1468.000000	97.419830 
1467.000000	97.405350 
1466.000000	97.392444 
1465.000000	97.385384 
1464.000000	97.382487 
1463.000000	97.377880 
1462.000000	97.367432 
1461.000000	97.350334 
1460.000000	97.328774 
1459.000000	97.306360 
1458.000000	97.288028 
1457.000000	97.275734 
1456.000000	97.266681 
1455.000000	97.257195 
1454.000000	97.244730 
1453.000000	97.231128 
1452.000000	97.219861 
1451.000000	97.211277 
1450.000000	97.205089 
1449.000000	97.202490 
1448.000000	97.202549 
1447.000000	97.201696 
1446.000000	97.196864 
1445.000000	97.188920 
1444.000000	97.180272 
1443.000000	97.170759 
1442.000000	97.159541 
1441.000000	97.146700 
1440.000000	97.131633 
1439.000000	97.112288 
1438.000000	97.091353 
1437.000000	97.076789 
1436.000000	97.071149 
1435.000000	97.068217 
1434.000000	97.063670 
1433.000000	97.058356 
1432.000000	97.054306 
1431.000000	97.051255 
1430.000000	97.048777 
1429.000000	97.048471 
1428.000000	97.049032 
1427.000000	97.047049 
1426.000000	97.041985 
1425.000000	97.039404 
1424.000000	97.043018 
1423.000000	97.045672 
1422.000000	97.039533 
1421.000000	97.027304 
1420.000000	97.018175 
1419.000000	97.013925 
1418.000000	97.010194 
1417.000000	97.007632 
1416.000000	97.007847 
1415.000000	97.007942 
1414.000000	97.003471 
1413.000000	96.994324 
1412.000000	96.985321 
1411.000000	96.979865 
1410.000000	96.977869 
1409.000000	96.978399 
1408.000000	96.980536 
1407.000000	96.984522 
1406.000000	96.992124 
1405.000000	97.006763 
1404.000000	97.028948 
1403.000000	97.051816 
1402.000000	97.069035 
1401.000000	97.083231 
1400.000000	97.102146 
1399.000000	97.125939 
1398.000000	97.144059 
1397.000000	97.148061 
1396.000000	97.141467 
1395.000000	97.137664 
1394.000000	97.148818 
1393.000000	97.176508 
1392.000000	97.211882 
1391.000000	97.243197 
1390.000000	97.263813 
1389.000000	97.274540 
1388.000000	97.280296 
1387.000000	97.284862 
1386.000000	97.289107 
1385.000000	97.294209 
1384.000000	97.302563 
1383.000000	97.314358 
1382.000000	97.326822 
1381.000000	97.337453 
1380.000000	97.347045 
1379.000000	97.358064 
1378.000000	97.370891 
1377.000000	97.383592 
1376.000000	97.394855 
1375.000000	97.405626 
1374.000000	97.417909 
1373.000000	97.433218 
1372.000000	97.451078 
1371.000000	97.469303 
1370.000000	97.485620 
1369.000000	97.499612 
1368.000000	97.512491 
1367.000000	97.524270 
1366.000000	97.533501 
1365.000000	97.539969 
1364.000000	97.545768 
1363.000000	97.553126 
1362.000000	97.562270 
1361.000000	97.572782 
1360.000000	97.585480 
1359.000000	97.600858 
1358.000000	97.617013 
1357.000000	97.631001 
1356.000000	97.641640 
1355.000000	97.649816 
1354.000000	97.657098 
1353.000000	97.664960 
1352.000000	97.673889 
1351.000000	97.683535 
1350.000000	97.692428 
1349.000000	97.699247 
1348.000000	97.704575 
1347.000000	97.710019 
1346.000000	97.716269 
1345.000000	97.722051 
1344.000000	97.724960 
1343.000000	97.723424 
1342.000000	97.718478 
1341.000000	97.713855 
1340.000000	97.713394 
1339.000000	97.717547 
1338.000000	97.723686 
1337.000000	97.729798 
1336.000000	97.735517 
1335.000000	97.740364 
1334.000000	97.743585 
1333.000000	97.745524 
1332.000000	97.747268 
1331.000000	97.748856 
1330.000000	97.749268 
1329.000000	97.748481 
1328.000000	97.747987 
1327.000000	97.748948 
1326.000000	97.750724 
1325.000000	97.751799 
1324.000000	97.751072 
1323.000000	97.747832 
1322.000000	97.742316 
1321.000000	97.736507 
1320.000000	97.732965 
1319.000000	97.732518 
1318.000000	97.734120 
1317.000000	97.736626 
1316.000000	97.739095 
1315.000000	97.739957 
1314.000000	97.738342 
1313.000000	97.736377 
1312.000000	97.737622 
1311.000000	97.742458 
1310.000000	97.747236 
1309.000000	97.748835 
1308.000000	97.748069 
1307.000000	97.747879 
1306.000000	97.749490 
1305.000000	97.751910 
1304.000000	97.753924 
1303.000000	97.754638 
1302.000000	97.753161 
1301.000000	97.749422 
1300.000000	97.745251 
1299.000000	97.743452 
1298.000000	97.745258 
1297.000000	97.748923 
1296.000000	97.751171 
1295.000000	97.750297 
1294.000000	97.747833 
1293.000000	97.746844 
1292.000000	97.748399 
1291.000000	97.750460 
1290.000000	97.750762 
1289.000000	97.749567 
1288.000000	97.748421 
1287.000000	97.747366 
1286.000000	97.745249 
1285.000000	97.742377 
1284.000000	97.740864 
1283.000000	97.741919 
1282.000000	97.744115 
1281.000000	97.744889 
1280.000000	97.743115 
1279.000000	97.739932 
1278.000000	97.737938 
1277.000000	97.739549 
1276.000000	97.744810 
1275.000000	97.750669 
1274.000000	97.753596 
1273.000000	97.753114 
1272.000000	97.751621 
1271.000000	97.750851 
1270.000000	97.750201 
1269.000000	97.748806 
1268.000000	97.747196 
1267.000000	97.745796 
1266.000000	97.743724 
1265.000000	97.740653 
1264.000000	97.738490 
1263.000000	97.739413 
1262.000000	97.742881 
1261.000000	97.746224 
1260.000000	97.748205 
1259.000000	97.750300 
1258.000000	97.753855 
1257.000000	97.757176 
1256.000000	97.756760 
1255.000000	97.751703 
1254.000000	97.745791 
1253.000000	97.743562 
1252.000000	97.744491 
1251.000000	97.743366 
1250.000000	97.737530 
1249.000000	97.731593 
1248.000000	97.732639 
1247.000000	97.741658 
1246.000000	97.752006 
1245.000000	97.755949 
1244.000000	97.750976 
1243.000000	97.741016 
1242.000000	97.734039 
1241.000000	97.737238 
1240.000000	97.750897 
1239.000000	97.766466 
1238.000000	97.773544 
1237.000000	97.769413 
1236.000000	97.759599 
1235.000000	97.749729 
1234.000000	97.740368 
1233.000000	97.730167 
1232.000000	97.719613 
1231.000000	97.709305 
1230.000000	97.697818 
1229.000000	97.683938 
1228.000000	97.668563 
1227.000000	97.651844 
1226.000000	97.630628 
1225.000000	97.601627 
1224.000000	97.565666 
1223.000000	97.526030 
1222.000000	97.483553 
1221.000000	97.435941 
1220.000000	97.381469 
1219.000000	97.320893 
1218.000000	97.255809 
1217.000000	97.186919 
1216.000000	97.113751 
1215.000000	97.034751 
1214.000000	96.948564 
1213.000000	96.856996 
1212.000000	96.765253 
1211.000000	96.676480 
1210.000000	96.586982 
1209.000000	96.490227 
1208.000000	96.385144 
1207.000000	96.277068 
1206.000000	96.170473 
1205.000000	96.064394 
1204.000000	95.955770 
1203.000000	95.843907 
1202.000000	95.730537 
1201.000000	95.617884 
1200.000000	95.507503 
1199.000000	95.399104 
1198.000000	95.290253 
1197.000000	95.179168 
1196.000000	95.067436 
1195.000000	94.957725 
1194.000000	94.849540 
1193.000000	94.739905 
1192.000000	94.627401 
1191.000000	94.512546 
1190.000000	94.395165 
1189.000000	94.274909 
1188.000000	94.153618 
1187.000000	94.033558 
1186.000000	93.913952 
1185.000000	93.792769 
1184.000000	93.670756 
1183.000000	93.549592 
1182.000000	93.427463 
1181.000000	93.301204 
1180.000000	93.171482 
1179.000000	93.040357 
1178.000000	92.904926 
1177.000000	92.759697 
1176.000000	92.604717 
1175.000000	92.444961 
1174.000000	92.281996 
1173.000000	92.113157 
1172.000000	91.938887 
1171.000000	91.763038 
1170.000000	91.585011 
1169.000000	91.399961 
1168.000000	91.209295 
1167.000000	91.024288 
1166.000000	90.858121 
1165.000000	90.722189 
1164.000000	90.631063 
1163.000000	90.600020 
1162.000000	90.631233 
1161.000000	90.707071 
1160.000000	90.799041 
1159.000000	90.878632 
1158.000000	90.921640 
1157.000000	90.913050 
1156.000000	90.852530 
1155.000000	90.750865 
1154.000000	90.619694 
1153.000000	90.468509 
1152.000000	90.309158 
1151.000000	90.153202 
1150.000000	90.002363 
1149.000000	89.849774 
1148.000000	89.692702 
1147.000000	89.535781 
1146.000000	89.380194 
1145.000000	89.219423 
1144.000000	89.049206 
1143.000000	88.873173 
1142.000000	88.695283 
1141.000000	88.514762 
1140.000000	88.331501 
1139.000000	88.148127 
1138.000000	87.963625 
1137.000000	87.772900 
1136.000000	87.575131 
1135.000000	87.374566 
1134.000000	87.171488 
1133.000000	86.961492 
1132.000000	86.745178 
1131.000000	86.528298 
1130.000000	86.310329 
1129.000000	86.083719 
1128.000000	85.846977 
1127.000000	85.607433 
1126.000000	85.368139 
1125.000000	85.123336 
1124.000000	84.870205 
1123.000000	84.613813 
1122.000000	84.357279 
1121.000000	84.098627 
1120.000000	83.840408 
1119.000000	83.590174 
1118.000000	83.348516 
1117.000000	83.109655 
1116.000000	82.876111 
1115.000000	82.658477 
1114.000000	82.457945 
1113.000000	82.264012 
1112.000000	82.072172 
1111.000000	81.887532 
1110.000000	81.708053 
1109.000000	81.521800 
1108.000000	81.324713 
1107.000000	81.125084 
1106.000000	80.926693 
1105.000000	80.723836 
1104.000000	80.516531 
1103.000000	80.313222 
1102.000000	80.114245 
1101.000000	79.910036 
1100.000000	79.699674 
1099.000000	79.494260 
1098.000000	79.297813 
1097.000000	79.102474 
1096.000000	78.905933 
1095.000000	78.714620 
1094.000000	78.526074 
1093.000000	78.328191 
1092.000000	78.121067 
1091.000000	77.920364 
1090.000000	77.734137 
1089.000000	77.555050 
1088.000000	77.378913 
1087.000000	77.210372 
1086.000000	77.046530 
1085.000000	76.876491 
1084.000000	76.701750 
1083.000000	76.535808 
1082.000000	76.379552 
1081.000000	76.219037 
1080.000000	76.051664 
1079.000000	75.890939 
1078.000000	75.739841 
1077.000000	75.582909 
1076.000000	75.410813 
1075.000000	75.229430 
1074.000000	75.038922 
1073.000000	74.827201 
1072.000000	74.589280 
1071.000000	74.328805 
1070.000000	74.035380 
1069.000000	73.687348 
1068.000000	73.286408 
1067.000000	72.866408 
1066.000000	72.458356 
1065.000000	72.067153 
1064.000000	71.689007 
1063.000000	71.324148 
1062.000000	70.961601 
1061.000000	70.578252 
1060.000000	70.167405 
1059.000000	69.748233 
1058.000000	69.337307 
1057.000000	68.930667 
1056.000000	68.520394 
1055.000000	68.104806 
1054.000000	67.674557 
1053.000000	67.213665 
1052.000000	66.724341 
1051.000000	66.226732 
1050.000000	65.725479 
1049.000000	65.204943 
1048.000000	64.664807 
1047.000000	64.126948 
1046.000000	63.599733 
1045.000000	63.068515 
1044.000000	62.527297 
1043.000000	61.988064 
1042.000000	61.452854 
1041.000000	60.907934 
1040.000000	60.353800 
1039.000000	59.811159 
1038.000000	59.289451 
1037.000000	58.779324 
1036.000000	58.281992 
1035.000000	57.813626 
1034.000000	57.374341 
1033.000000	56.945985 
1032.000000	56.526341 
1031.000000	56.131600 
1030.000000	55.761244 
1029.000000	55.398491 
1028.000000	55.050444 
1027.000000	54.746642 
1026.000000	54.489271 
1025.000000	54.244587 
1024.000000	53.992898 
1023.000000	53.747455 
1022.000000	53.514626 
1021.000000	53.277413 
1020.000000	53.030019 
1019.000000	52.788772 
1018.000000	52.556804 
1017.000000	52.316339 
1016.000000	52.066483 
1015.000000	51.829462 
1014.000000	51.608751 
1013.000000	51.380577 
1012.000000	51.137843 
1011.000000	50.903022 
1010.000000	50.686454 
1009.000000	50.471809 
1008.000000	50.254473 
1007.000000	50.054902 
1006.000000	49.881986 
1005.000000	49.721521 
1004.000000	49.571298 
1003.000000	49.448562 
1002.000000	49.352627 
1001.000000	49.260135 
1000.000000	49.167889 
999.000000	 49.100341 
998.000000	 49.064134 
997.000000	 49.035593 
996.000000	 49.003706 
995.000000	 48.985178 
994.000000	 48.986061 
993.000000	 48.989324 
992.000000	 48.991700 
991.000000	 49.012360 
990.000000	 49.053434 
989.000000	 49.092102 
988.000000	 49.123569 
987.000000	 49.172301 
986.000000	 49.249390 
985.000000	 49.338720 
984.000000	 49.436016 
983.000000	 49.561077 
982.000000	 49.719383 
981.000000	 49.891286 
980.000000	 50.071021 
979.000000	 50.277732 
978.000000	 50.516729 
977.000000	 50.769277 
976.000000	 51.031939 
975.000000	 51.326833 
974.000000	 51.661069 
973.000000	 52.014209 
972.000000	 52.377150 
971.000000	 52.765839 
970.000000	 53.184982 
969.000000	 53.615223 
968.000000	 54.047404 
967.000000	 54.493933 
966.000000	 54.956310 
965.000000	 55.417233 
964.000000	 55.874365 
963.000000	 56.346232 
962.000000	 56.835002 
961.000000	 57.318224 
960.000000	 57.786564 
959.000000	 58.255158 
958.000000	 58.728755 
957.000000	 59.190114 
956.000000	 59.632482 
955.000000	 60.070249 
954.000000	 60.508157 
953.000000	 60.931842 
952.000000	 61.336873 
951.000000	 61.734978 
950.000000	 62.124089 
949.000000	 62.484566 
948.000000	 62.812550 
947.000000	 63.125063 
946.000000	 63.425087 
945.000000	 63.693931 
944.000000	 63.926367 
943.000000	 64.141590 
942.000000	 64.350890 
941.000000	 64.545132 
940.000000	 64.722981 
939.000000	 64.900446 
938.000000	 65.082957 
937.000000	 65.257862 
936.000000	 65.423805 
935.000000	 65.598224 
934.000000	 65.787288 
933.000000	 65.977799 
932.000000	 66.166610 
931.000000	 66.367801 
930.000000	 66.582441 
929.000000	 66.791207 
928.000000	 66.985463 
927.000000	 67.176645 
926.000000	 67.367269 
925.000000	 67.541933 
924.000000	 67.694866 
923.000000	 67.837649 
922.000000	 67.972483 
921.000000	 68.086723 
920.000000	 68.180688 
919.000000	 68.271333 
918.000000	 68.361292 
917.000000	 68.434350 
916.000000	 68.489925 
915.000000	 68.553187 
914.000000	 68.643561 
913.000000	 68.762380 
912.000000	 68.917757 
911.000000	 69.130006 
910.000000	 69.403983 
909.000000	 69.726087 
908.000000	 70.095422 
907.000000	 70.527156 
906.000000	 71.019300 
905.000000	 71.548117 
904.000000	 72.102341 
903.000000	 72.690457 
902.000000	 73.309443 
901.000000	 73.938867 
900.000000	 74.571032 
899.000000	 75.215441 
898.000000	 75.868301 
897.000000	 76.508158 
896.000000	 77.125258 
895.000000	 77.725584 
894.000000	 78.304532 
893.000000	 78.848146 
892.000000	 79.362931 
891.000000	 79.872659 
890.000000	 80.381076 
889.000000	 80.867300 
888.000000	 81.321844 
887.000000	 81.757581 
886.000000	 82.181800 
885.000000	 82.587642 
884.000000	 82.977285 
883.000000	 83.363057 
882.000000	 83.741508 
881.000000	 84.098425 
880.000000	 84.444752 
879.000000	 84.813741 
878.000000	 85.214257 
877.000000	 85.620112 
876.000000	 86.014120 
875.000000	 86.408279 
874.000000	 86.811296 
873.000000	 87.211540 
872.000000	 87.604877 
871.000000	 88.007259 
870.000000	 88.425957 
869.000000	 88.845110 
868.000000	 89.251064 
867.000000	 89.647750 
866.000000	 90.038486 
865.000000	 90.416083 
864.000000	 90.779450 
863.000000	 91.138283 
862.000000	 91.493392 
861.000000	 91.832508 
860.000000	 92.152023 
859.000000	 92.462657 
858.000000	 92.767418 
857.000000	 93.053642 
856.000000	 93.313079 
855.000000	 93.550708 
854.000000	 93.768241 
853.000000	 93.958309 
852.000000	 94.121582 
851.000000	 94.271602 
850.000000	 94.415971 
849.000000	 94.548619 
848.000000	 94.664450 
847.000000	 94.763793 
846.000000	 94.839401 
845.000000	 94.878987 
844.000000	 94.885131 
843.000000	 94.873104 
842.000000	 94.844250 
841.000000	 94.781274 
840.000000	 94.674783 
839.000000	 94.534296 
838.000000	 94.368494 
837.000000	 94.176801 
836.000000	 93.968732 
835.000000	 93.770176 
834.000000	 93.598744 
833.000000	 93.450235 
832.000000	 93.319126 
831.000000	 93.214465 
830.000000	 93.145865 
829.000000	 93.112141 
828.000000	 93.114498 
827.000000	 93.162881 
826.000000	 93.258203 
825.000000	 93.385099 
824.000000	 93.529703 
823.000000	 93.685576 
822.000000	 93.839699 
821.000000	 93.977279 
820.000000	 94.102395 
819.000000	 94.229047 
818.000000	 94.350231 
817.000000	 94.438391 
816.000000	 94.477663 
815.000000	 94.473967 
814.000000	 94.430650 
813.000000	 94.335294 
812.000000	 94.174363 
811.000000	 93.938284 
810.000000	 93.605330 
809.000000	 93.142971 
808.000000	 92.537253 
807.000000	 91.806701 
806.000000	 90.981828 
805.000000	 90.089791 
804.000000	 89.166960 
803.000000	 88.264149 
802.000000	 87.426302 
801.000000	 86.685823 
800.000000	 86.083377 
799.000000	 85.667589 
798.000000	 85.459747 
797.000000	 85.440633 
796.000000	 85.578885 
795.000000	 85.845307 
794.000000	 86.194753 
793.000000	 86.568599 
792.000000	 86.928707 
791.000000	 87.264659 
790.000000	 87.562253 
789.000000	 87.792305 
788.000000	 87.936066 
787.000000	 87.993428 
786.000000	 87.958365 
785.000000	 87.813343 
784.000000	 87.558741 
783.000000	 87.226063 
782.000000	 86.856036 
781.000000	 86.488359 
780.000000	 86.178043 
779.000000	 85.988862 
778.000000	 85.953761 
777.000000	 86.062813 
776.000000	 86.295538 
775.000000	 86.635827 
774.000000	 87.048365 
773.000000	 87.475465 
772.000000	 87.874487 
771.000000	 88.235714 
770.000000	 88.555503 
769.000000	 88.818593 
768.000000	 89.016730 
767.000000	 89.159000 
766.000000	 89.252743 
765.000000	 89.297487 
764.000000	 89.306972 
763.000000	 89.312019 
762.000000	 89.329344 
761.000000	 89.349852 
760.000000	 89.367358 
759.000000	 89.394036 
758.000000	 89.436959 
757.000000	 89.485831 
756.000000	 89.537834 
755.000000	 89.610078 
754.000000	 89.712100 
753.000000	 89.826879 
752.000000	 89.932808 
751.000000	 90.026913 
750.000000	 90.117332 
749.000000	 90.212099 
748.000000	 90.324145 
747.000000	 90.467020 
746.000000	 90.636205 
745.000000	 90.814412 
744.000000	 91.002420 
743.000000	 91.221629 
742.000000	 91.478814 
741.000000	 91.753409 
740.000000	 92.027752 
739.000000	 92.304605 
738.000000	 92.585838 
737.000000	 92.858719 
736.000000	 93.113864 
735.000000	 93.354057 
734.000000	 93.576664 
733.000000	 93.769984 
732.000000	 93.933262 
731.000000	 94.076648 
730.000000	 94.197110 
729.000000	 94.281883 
728.000000	 94.338184 
727.000000	 94.393067 
726.000000	 94.462381 
725.000000	 94.543781 
724.000000	 94.641228 
723.000000	 94.766898 
722.000000	 94.914270 
721.000000	 95.058963 
720.000000	 95.194185 
719.000000	 95.337166 
718.000000	 95.491797 
717.000000	 95.636404 
716.000000	 95.758199 
715.000000	 95.866994 
714.000000	 95.964684 
713.000000	 96.032970 
712.000000	 96.064325 
711.000000	 96.076970 
710.000000	 96.084343 
709.000000	 96.081030 
708.000000	 96.063068 
707.000000	 96.036376 
706.000000	 95.998342 
705.000000	 95.932350 
704.000000	 95.830275 
703.000000	 95.698514 
702.000000	 95.528753 
701.000000	 95.289546 
700.000000	 94.962914 
699.000000	 94.564429 
698.000000	 94.126640 
697.000000	 93.691872 
696.000000	 93.326560 
695.000000	 93.108574 
694.000000	 93.072576 
693.000000	 93.187980 
692.000000	 93.398982 
691.000000	 93.657762 
690.000000	 93.921653 
689.000000	 94.154202 
688.000000	 94.347369 
687.000000	 94.519553 
686.000000	 94.675391 
685.000000	 94.800112 
684.000000	 94.899445 
683.000000	 95.001037 
682.000000	 95.111803 
681.000000	 95.212972 
680.000000	 95.303870 
679.000000	 95.407867 
678.000000	 95.528110 
677.000000	 95.645993 
676.000000	 95.757909 
675.000000	 95.883315 
674.000000	 96.024235 
673.000000	 96.148649 
672.000000	 96.225584 
671.000000	 96.240136 
670.000000	 96.177694 
669.000000	 96.036424 
668.000000	 95.969824 
667.000000	 96.198268 
666.000000	 96.588124 
665.000000	 96.903853 
664.000000	 97.106536 
663.000000	 97.238736 
662.000000	 97.346262 
661.000000	 97.447421 
660.000000	 97.543052 
659.000000	 97.637572 
658.000000	 97.726591 
657.000000	 97.791156 
656.000000	 97.813867 
655.000000	 97.800243 
654.000000	 97.767604 
653.000000	 97.724163 
652.000000	 97.681244 
651.000000	 97.671128 
650.000000	 97.715108 

