4000.000000	95.966954 
3999.000000	95.966898 
3998.000000	95.966830 
3997.000000	95.966783 
3996.000000	95.966786 
3995.000000	95.966872 
3994.000000	95.967057 
3993.000000	95.967284 
3992.000000	95.967435 
3991.000000	95.967410 
3990.000000	95.967232 
3989.000000	95.967023 
3988.000000	95.966862 
3987.000000	95.966729 
3986.000000	95.966604 
3985.000000	95.966548 
3984.000000	95.966629 
3983.000000	95.966782 
3982.000000	95.966887 
3981.000000	95.966948 
3980.000000	95.966996 
3979.000000	95.966839 
3978.000000	95.966205 
3977.000000	95.965115 
3976.000000	95.964034 
3975.000000	95.963403 
3974.000000	95.963230 
3973.000000	95.963203 
3972.000000	95.962970 
3971.000000	95.962362 
3970.000000	95.961466 
3969.000000	95.960611 
3968.000000	95.960123 
3967.000000	95.960055 
3966.000000	95.960174 
3965.000000	95.960131 
3964.000000	95.959645 
3963.000000	95.958623 
3962.000000	95.957254 
3961.000000	95.955977 
3960.000000	95.955107 
3959.000000	95.954607 
3958.000000	95.954258 
3957.000000	95.953988 
3956.000000	95.953785 
3955.000000	95.953488 
3954.000000	95.952900 
3953.000000	95.952021 
3952.000000	95.951036 
3951.000000	95.950017 
3950.000000	95.948844 
3949.000000	95.947402 
3948.000000	95.945808 
3947.000000	95.944441 
3946.000000	95.943560 
3945.000000	95.942932 
3944.000000	95.942047 
3943.000000	95.940919 
3942.000000	95.940196 
3941.000000	95.940261 
3940.000000	95.940683 
3939.000000	95.940746 
3938.000000	95.940328 
3937.000000	95.940079 
3936.000000	95.940413 
3935.000000	95.940696 
3934.000000	95.939939 
3933.000000	95.938009 
3932.000000	95.935840 
3931.000000	95.934232 
3930.000000	95.933214 
3929.000000	95.932769 
3928.000000	95.933091 
3927.000000	95.933845 
3926.000000	95.933906 
3925.000000	95.932884 
3924.000000	95.931700 
3923.000000	95.931055 
3922.000000	95.930573 
3921.000000	95.929840 
3920.000000	95.929160 
3919.000000	95.928927 
3918.000000	95.928890 
3917.000000	95.928628 
3916.000000	95.928171 
3915.000000	95.927761 
3914.000000	95.927413 
3913.000000	95.927022 
3912.000000	95.926564 
3911.000000	95.926063 
3910.000000	95.925526 
3909.000000	95.924978 
3908.000000	95.924451 
3907.000000	95.923897 
3906.000000	95.923293 
3905.000000	95.922643 
3904.000000	95.921965 
3903.000000	95.921279 
3902.000000	95.920598 
3901.000000	95.919924 
3900.000000	95.919250 
3899.000000	95.918579 
3898.000000	95.917916 
3897.000000	95.917261 
3896.000000	95.916604 
3895.000000	95.915942 
3894.000000	95.915280 
3893.000000	95.914628 
3892.000000	95.913986 
3891.000000	95.913349 
3890.000000	95.912719 
3889.000000	95.912099 
3888.000000	95.911483 
3887.000000	95.910859 
3886.000000	95.910228 
3885.000000	95.909606 
3884.000000	95.908999 
3883.000000	95.908395 
3882.000000	95.907775 
3881.000000	95.907142 
3880.000000	95.906527 
3879.000000	95.905954 
3878.000000	95.905423 
3877.000000	95.904913 
3876.000000	95.904403 
3875.000000	95.903887 
3874.000000	95.903374 
3873.000000	95.902864 
3872.000000	95.902343 
3871.000000	95.901793 
3870.000000	95.901225 
3869.000000	95.900674 
3868.000000	95.900159 
3867.000000	95.899663 
3866.000000	95.899170 
3865.000000	95.898692 
3864.000000	95.898249 
3863.000000	95.897839 
3862.000000	95.897438 
3861.000000	95.897035 
3860.000000	95.896641 
3859.000000	95.896263 
3858.000000	95.895902 
3857.000000	95.895559 
3856.000000	95.895234 
3855.000000	95.894923 
3854.000000	95.894624 
3853.000000	95.894344 
3852.000000	95.894084 
3851.000000	95.893832 
3850.000000	95.893582 
3849.000000	95.893331 
3848.000000	95.893075 
3847.000000	95.892810 
3846.000000	95.892524 
3845.000000	95.892210 
3844.000000	95.891862 
3843.000000	95.891483 
3842.000000	95.891086 
3841.000000	95.890693 
3840.000000	95.890318 
3839.000000	95.889964 
3838.000000	95.889620 
3837.000000	95.889272 
3836.000000	95.888913 
3835.000000	95.888551 
3834.000000	95.888197 
3833.000000	95.887863 
3832.000000	95.887558 
3831.000000	95.887287 
3830.000000	95.887053 
3829.000000	95.886859 
3828.000000	95.886700 
3827.000000	95.886563 
3826.000000	95.886432 
3825.000000	95.886310 
3824.000000	95.886205 
3823.000000	95.886113 
3822.000000	95.886027 
3821.000000	95.885962 
3820.000000	95.885952 
3819.000000	95.886009 
3818.000000	95.886107 
3817.000000	95.886206 
3816.000000	95.886291 
3815.000000	95.886367 
3814.000000	95.886433 
3813.000000	95.886474 
3812.000000	95.886489 
3811.000000	95.886501 
3810.000000	95.886532 
3809.000000	95.886584 
3808.000000	95.886641 
3807.000000	95.886693 
3806.000000	95.886754 
3805.000000	95.886843 
3804.000000	95.886963 
3803.000000	95.887108 
3802.000000	95.887281 
3801.000000	95.887499 
3800.000000	95.887759 
3799.000000	95.888030 
3798.000000	95.888278 
3797.000000	95.888495 
3796.000000	95.888686 
3795.000000	95.888843 
3794.000000	95.888940 
3793.000000	95.888958 
3792.000000	95.888891 
3791.000000	95.888737 
3790.000000	95.888488 
3789.000000	95.888142 
3788.000000	95.887709 
3787.000000	95.887197 
3786.000000	95.886615 
3785.000000	95.885983 
3784.000000	95.885317 
3783.000000	95.884622 
3782.000000	95.883884 
3781.000000	95.883096 
3780.000000	95.882268 
3779.000000	95.881435 
3778.000000	95.880618 
3777.000000	95.879721 
3776.000000	95.878607 
3775.000000	95.877258 
3774.000000	95.875832 
3773.000000	95.874554 
3772.000000	95.873458 
3771.000000	95.872321 
3770.000000	95.871054 
3769.000000	95.870042 
3768.000000	95.869542 
3767.000000	95.868998 
3766.000000	95.867546 
3765.000000	95.865214 
3764.000000	95.863311 
3763.000000	95.862684 
3762.000000	95.862107 
3761.000000	95.859976 
3760.000000	95.857300 
3759.000000	95.856151 
3758.000000	95.854651 
3757.000000	95.849912 
3756.000000	95.843112 
3755.000000	95.836835 
3754.000000	95.830324 
3753.000000	95.822130 
3752.000000	95.816859 
3751.000000	95.818154 
3750.000000	95.817964 
3749.000000	95.810155 
3748.000000	95.804184 
3747.000000	95.810021 
3746.000000	95.818796 
3745.000000	95.816859 
3744.000000	95.814354 
3743.000000	95.821444 
3742.000000	95.826313 
3741.000000	95.817691 
3740.000000	95.801551 
3739.000000	95.794925 
3738.000000	95.799926 
3737.000000	95.798952 
3736.000000	95.785168 
3735.000000	95.776362 
3734.000000	95.785356 
3733.000000	95.799189 
3732.000000	95.803064 
3731.000000	95.799248 
3730.000000	95.796038 
3729.000000	95.793276 
3728.000000	95.784161 
3727.000000	95.769434 
3726.000000	95.760825 
3725.000000	95.763117 
3724.000000	95.767255 
3723.000000	95.765584 
3722.000000	95.761095 
3721.000000	95.758254 
3720.000000	95.755006 
3719.000000	95.747074 
3718.000000	95.732197 
3717.000000	95.713999 
3716.000000	95.698146 
3715.000000	95.683083 
3714.000000	95.661569 
3713.000000	95.632869 
3712.000000	95.608128 
3711.000000	95.595607 
3710.000000	95.588454 
3709.000000	95.576034 
3708.000000	95.553727 
3707.000000	95.523393 
3706.000000	95.490511 
3705.000000	95.459085 
3704.000000	95.428950 
3703.000000	95.397535 
3702.000000	95.363369 
3701.000000	95.327124 
3700.000000	95.291731 
3699.000000	95.260477 
3698.000000	95.233132 
3697.000000	95.209033 
3696.000000	95.192364 
3695.000000	95.184248 
3694.000000	95.178262 
3693.000000	95.171118 
3692.000000	95.170134 
3691.000000	95.183227 
3690.000000	95.203408 
3689.000000	95.215722 
3688.000000	95.214986 
3687.000000	95.207479 
3686.000000	95.196903 
3685.000000	95.178974 
3684.000000	95.153221 
3683.000000	95.129609 
3682.000000	95.113554 
3681.000000	95.093256 
3680.000000	95.058447 
3679.000000	95.019143 
3678.000000	94.989005 
3677.000000	94.954199 
3676.000000	94.898662 
3675.000000	94.839662 
3674.000000	94.797343 
3673.000000	94.768365 
3672.000000	94.734395 
3671.000000	94.684869 
3670.000000	94.636895 
3669.000000	94.605217 
3668.000000	94.575136 
3667.000000	94.532642 
3666.000000	94.483168 
3665.000000	94.437335 
3664.000000	94.397137 
3663.000000	94.355777 
3662.000000	94.305377 
3661.000000	94.245685 
3660.000000	94.184846 
3659.000000	94.129041 
3658.000000	94.074488 
3657.000000	94.011066 
3656.000000	93.939285 
3655.000000	93.870649 
3654.000000	93.813281 
3653.000000	93.763583 
3652.000000	93.709000 
3651.000000	93.643467 
3650.000000	93.577042 
3649.000000	93.517215 
3648.000000	93.459177 
3647.000000	93.403443 
3646.000000	93.357256 
3645.000000	93.321212 
3644.000000	93.287588 
3643.000000	93.250259 
3642.000000	93.210414 
3641.000000	93.172596 
3640.000000	93.135294 
3639.000000	93.092474 
3638.000000	93.043874 
3637.000000	92.994304 
3636.000000	92.943324 
3635.000000	92.883984 
3634.000000	92.819088 
3633.000000	92.765284 
3632.000000	92.732928 
3631.000000	92.705611 
3630.000000	92.654944 
3629.000000	92.587779 
3628.000000	92.535041 
3627.000000	92.501687 
3626.000000	92.473782 
3625.000000	92.445739 
3624.000000	92.424464 
3623.000000	92.419308 
3622.000000	92.428648 
3621.000000	92.439961 
3620.000000	92.444862 
3619.000000	92.446811 
3618.000000	92.451922 
3617.000000	92.465289 
3616.000000	92.492285 
3615.000000	92.531956 
3614.000000	92.577281 
3613.000000	92.622396 
3612.000000	92.664643 
3611.000000	92.701067 
3610.000000	92.728308 
3609.000000	92.748051 
3608.000000	92.767718 
3607.000000	92.792169 
3606.000000	92.819335 
3605.000000	92.847091 
3604.000000	92.876626 
3603.000000	92.908134 
3602.000000	92.937423 
3601.000000	92.958836 
3600.000000	92.972366 
3599.000000	92.981577 
3598.000000	92.989276 
3597.000000	92.997990 
3596.000000	93.010898 
3595.000000	93.027376 
3594.000000	93.044306 
3593.000000	93.059368 
3592.000000	93.073693 
3591.000000	93.089338 
3590.000000	93.102601 
3589.000000	93.106009 
3588.000000	93.099839 
3587.000000	93.093975 
3586.000000	93.094892 
3585.000000	93.101271 
3584.000000	93.110402 
3583.000000	93.120563 
3582.000000	93.130097 
3581.000000	93.136402 
3580.000000	93.138148 
3579.000000	93.136541 
3578.000000	93.134942 
3577.000000	93.136724 
3576.000000	93.143019 
3575.000000	93.151697 
3574.000000	93.158750 
3573.000000	93.161975 
3572.000000	93.162287 
3571.000000	93.162168 
3570.000000	93.160680 
3569.000000	93.152374 
3568.000000	93.135501 
3567.000000	93.117496 
3566.000000	93.105447 
3565.000000	93.099026 
3564.000000	93.095684 
3563.000000	93.094360 
3562.000000	93.094278 
3561.000000	93.094019 
3560.000000	93.092528 
3559.000000	93.090449 
3558.000000	93.089205 
3557.000000	93.089750 
3556.000000	93.092126 
3555.000000	93.095621 
3554.000000	93.098875 
3553.000000	93.101199 
3552.000000	93.103630 
3551.000000	93.107621 
3550.000000	93.113029 
3549.000000	93.117862 
3548.000000	93.119957 
3547.000000	93.118374 
3546.000000	93.113503 
3545.000000	93.107170 
3544.000000	93.102536 
3543.000000	93.102118 
3542.000000	93.105610 
3541.000000	93.110832 
3540.000000	93.116102 
3539.000000	93.120756 
3538.000000	93.124034 
3537.000000	93.125335 
3536.000000	93.125352 
3535.000000	93.125231 
3534.000000	93.125220 
3533.000000	93.124897 
3532.000000	93.124852 
3531.000000	93.126318 
3530.000000	93.128813 
3529.000000	93.129507 
3528.000000	93.125970 
3527.000000	93.118714 
3526.000000	93.110576 
3525.000000	93.104402 
3524.000000	93.101738 
3523.000000	93.102803 
3522.000000	93.106213 
3521.000000	93.109457 
3520.000000	93.110719 
3519.000000	93.110176 
3518.000000	93.109404 
3517.000000	93.109513 
3516.000000	93.110272 
3515.000000	93.111031 
3514.000000	93.112062 
3513.000000	93.114011 
3512.000000	93.116318 
3511.000000	93.117195 
3510.000000	93.115531 
3509.000000	93.112395 
3508.000000	93.110339 
3507.000000	93.111046 
3506.000000	93.113668 
3505.000000	93.115490 
3504.000000	93.114489 
3503.000000	93.111066 
3502.000000	93.107372 
3501.000000	93.105318 
3500.000000	93.105227 
3499.000000	93.105779 
3498.000000	93.104938 
3497.000000	93.101440 
3496.000000	93.095702 
3495.000000	93.089523 
3494.000000	93.084932 
3493.000000	93.082887 
3492.000000	93.082512 
3491.000000	93.081642 
3490.000000	93.078567 
3489.000000	93.073140 
3488.000000	93.066219 
3487.000000	93.058462 
3486.000000	93.050260 
3485.000000	93.042719 
3484.000000	93.037501 
3483.000000	93.035128 
3482.000000	93.034178 
3481.000000	93.032600 
3480.000000	93.029593 
3479.000000	93.025628 
3478.000000	93.021128 
3477.000000	93.016030 
3476.000000	93.010435 
3475.000000	93.004941 
3474.000000	93.000156 
3473.000000	92.996378 
3472.000000	92.993597 
3471.000000	92.991376 
3470.000000	92.988859 
3469.000000	92.985258 
3468.000000	92.980554 
3467.000000	92.975776 
3466.000000	92.972231 
3465.000000	92.970293 
3464.000000	92.968888 
3463.000000	92.966166 
3462.000000	92.960768 
3461.000000	92.952640 
3460.000000	92.942970 
3459.000000	92.933244 
3458.000000	92.924162 
3457.000000	92.915361 
3456.000000	92.906297 
3455.000000	92.897390 
3454.000000	92.890124 
3453.000000	92.885719 
3452.000000	92.884038 
3451.000000	92.883405 
3450.000000	92.881300 
3449.000000	92.875659 
3448.000000	92.866076 
3447.000000	92.853990 
3446.000000	92.841261 
3445.000000	92.828899 
3444.000000	92.817540 
3443.000000	92.808405 
3442.000000	92.802606 
3441.000000	92.799423 
3440.000000	92.796124 
3439.000000	92.790089 
3438.000000	92.780879 
3437.000000	92.770146 
3436.000000	92.760272 
3435.000000	92.753225 
3434.000000	92.749815 
3433.000000	92.748983 
3432.000000	92.748129 
3431.000000	92.744770 
3430.000000	92.738124 
3429.000000	92.729232 
3428.000000	92.719832 
3427.000000	92.711448 
3426.000000	92.705367 
3425.000000	92.702719 
3424.000000	92.703564 
3423.000000	92.705696 
3422.000000	92.705363 
3421.000000	92.700310 
3420.000000	92.691883 
3419.000000	92.683616 
3418.000000	92.677819 
3417.000000	92.674121 
3416.000000	92.671065 
3415.000000	92.668008 
3414.000000	92.665108 
3413.000000	92.662327 
3412.000000	92.659234 
3411.000000	92.655722 
3410.000000	92.652411 
3409.000000	92.650209 
3408.000000	92.649357 
3407.000000	92.648879 
3406.000000	92.647362 
3405.000000	92.644591 
3404.000000	92.641824 
3403.000000	92.639928 
3402.000000	92.638110 
3401.000000	92.635279 
3400.000000	92.632018 
3399.000000	92.629845 
3398.000000	92.628893 
3397.000000	92.627699 
3396.000000	92.625332 
3395.000000	92.622615 
3394.000000	92.620830 
3393.000000	92.620277 
3392.000000	92.620600 
3391.000000	92.621732 
3390.000000	92.623761 
3389.000000	92.626307 
3388.000000	92.628876 
3387.000000	92.631719 
3386.000000	92.635500 
3385.000000	92.639798 
3384.000000	92.642679 
3383.000000	92.642658 
3382.000000	92.641043 
3381.000000	92.641090 
3380.000000	92.644304 
3379.000000	92.648561 
3378.000000	92.650956 
3377.000000	92.651975 
3376.000000	92.654818 
3375.000000	92.660588 
3374.000000	92.666105 
3373.000000	92.667589 
3372.000000	92.665308 
3371.000000	92.663306 
3370.000000	92.664906 
3369.000000	92.669759 
3368.000000	92.675234 
3367.000000	92.679502 
3366.000000	92.682733 
3365.000000	92.685895 
3364.000000	92.689262 
3363.000000	92.692071 
3362.000000	92.693224 
3361.000000	92.692313 
3360.000000	92.690204 
3359.000000	92.688701 
3358.000000	92.689544 
3357.000000	92.693608 
3356.000000	92.700756 
3355.000000	92.710045 
3354.000000	92.720146 
3353.000000	92.729901 
3352.000000	92.738612 
3351.000000	92.745831 
3350.000000	92.751176 
3349.000000	92.754790 
3348.000000	92.757929 
3347.000000	92.762443 
3346.000000	92.769107 
3345.000000	92.776579 
3344.000000	92.782494 
3343.000000	92.785644 
3342.000000	92.786995 
3341.000000	92.788713 
3340.000000	92.792312 
3339.000000	92.797691 
3338.000000	92.803580 
3337.000000	92.808578 
3336.000000	92.811994 
3335.000000	92.814130 
3334.000000	92.815927 
3333.000000	92.818135 
3332.000000	92.820724 
3331.000000	92.823155 
3330.000000	92.825185 
3329.000000	92.827253 
3328.000000	92.830111 
3327.000000	92.834220 
3326.000000	92.839476 
3325.000000	92.845346 
3324.000000	92.851121 
3323.000000	92.856231 
3322.000000	92.860631 
3321.000000	92.864828 
3320.000000	92.869396 
3319.000000	92.874581 
3318.000000	92.880367 
3317.000000	92.886673 
3316.000000	92.893337 
3315.000000	92.900006 
3314.000000	92.906261 
3313.000000	92.911822 
3312.000000	92.916600 
3311.000000	92.920722 
3310.000000	92.924580 
3309.000000	92.928612 
3308.000000	92.932835 
3307.000000	92.936795 
3306.000000	92.940190 
3305.000000	92.943389 
3304.000000	92.947113 
3303.000000	92.951790 
3302.000000	92.957393 
3301.000000	92.963590 
3300.000000	92.969632 
3299.000000	92.974404 
3298.000000	92.977192 
3297.000000	92.978572 
3296.000000	92.980299 
3295.000000	92.983742 
3294.000000	92.988741 
3293.000000	92.994101 
3292.000000	92.998894 
3291.000000	93.003172 
3290.000000	93.007437 
3289.000000	93.011887 
3288.000000	93.016449 
3287.000000	93.021182 
3286.000000	93.026293 
3285.000000	93.031817 
3284.000000	93.037522 
3283.000000	93.043248 
3282.000000	93.049192 
3281.000000	93.055560 
3280.000000	93.061916 
3279.000000	93.067298 
3278.000000	93.071235 
3277.000000	93.074414 
3276.000000	93.078108 
3275.000000	93.082785 
3274.000000	93.087712 
3273.000000	93.092035 
3272.000000	93.095778 
3271.000000	93.099612 
3270.000000	93.103961 
3269.000000	93.108575 
3268.000000	93.112901 
3267.000000	93.116748 
3266.000000	93.120665 
3265.000000	93.125716 
3264.000000	93.132507 
3263.000000	93.140299 
3262.000000	93.147482 
3261.000000	93.153180 
3260.000000	93.157858 
3259.000000	93.162241 
3258.000000	93.166279 
3257.000000	93.169792 
3256.000000	93.173515 
3255.000000	93.178348 
3254.000000	93.183783 
3253.000000	93.188396 
3252.000000	93.192140 
3251.000000	93.196912 
3250.000000	93.204106 
3249.000000	93.212379 
3248.000000	93.218808 
3247.000000	93.222262 
3246.000000	93.224839 
3245.000000	93.229719 
3244.000000	93.237938 
3243.000000	93.247556 
3242.000000	93.255683 
3241.000000	93.260893 
3240.000000	93.263779 
3239.000000	93.266012 
3238.000000	93.269341 
3237.000000	93.275016 
3236.000000	93.283267 
3235.000000	93.292936 
3234.000000	93.301839 
3233.000000	93.307930 
3232.000000	93.310407 
3231.000000	93.310070 
3230.000000	93.309103 
3229.000000	93.310365 
3228.000000	93.316283 
3227.000000	93.327985 
3226.000000	93.345110 
3225.000000	93.366145 
3224.000000	93.388634 
3223.000000	93.409459 
3222.000000	93.426074 
3221.000000	93.438069 
3220.000000	93.447210 
3219.000000	93.455553 
3218.000000	93.463599 
3217.000000	93.470573 
3216.000000	93.476277 
3215.000000	93.482201 
3214.000000	93.490356 
3213.000000	93.500964 
3212.000000	93.511589 
3211.000000	93.518742 
3210.000000	93.520375 
3209.000000	93.517115 
3208.000000	93.511613 
3207.000000	93.506833 
3206.000000	93.504525 
3205.000000	93.504751 
3204.000000	93.506532 
3203.000000	93.508995 
3202.000000	93.511987 
3201.000000	93.515643 
3200.000000	93.519858 
3199.000000	93.524762 
3198.000000	93.531341 
3197.000000	93.540747 
3196.000000	93.552905 
3195.000000	93.566430 
3194.000000	93.580144 
3193.000000	93.594252 
3192.000000	93.609861 
3191.000000	93.627572 
3190.000000	93.646452 
3189.000000	93.664003 
3188.000000	93.677613 
3187.000000	93.687028 
3186.000000	93.695349 
3185.000000	93.706389 
3184.000000	93.720658 
3183.000000	93.735034 
3182.000000	93.746377 
3181.000000	93.754082 
3180.000000	93.759101 
3179.000000	93.762325 
3178.000000	93.764919 
3177.000000	93.768709 
3176.000000	93.774674 
3175.000000	93.781741 
3174.000000	93.788229 
3173.000000	93.793872 
3172.000000	93.799309 
3171.000000	93.804256 
3170.000000	93.807725 
3169.000000	93.809915 
3168.000000	93.812595 
3167.000000	93.817461 
3166.000000	93.825010 
3165.000000	93.834973 
3164.000000	93.846808 
3163.000000	93.859664 
3162.000000	93.872561 
3161.000000	93.884923 
3160.000000	93.896587 
3159.000000	93.907337 
3158.000000	93.917005 
3157.000000	93.926092 
3156.000000	93.935660 
3155.000000	93.946295 
3154.000000	93.957467 
3153.000000	93.968069 
3152.000000	93.977306 
3151.000000	93.984851 
3150.000000	93.990483 
3149.000000	93.994057 
3148.000000	93.996111 
3147.000000	93.998409 
3146.000000	94.003392 
3145.000000	94.012516 
3144.000000	94.024888 
3143.000000	94.037564 
3142.000000	94.047714 
3141.000000	94.054692 
3140.000000	94.059937 
3139.000000	94.065287 
3138.000000	94.071552 
3137.000000	94.078367 
3136.000000	94.084942 
3135.000000	94.090925 
3134.000000	94.096814 
3133.000000	94.103466 
3132.000000	94.111128 
3131.000000	94.119269 
3130.000000	94.127480 
3129.000000	94.136131 
3128.000000	94.145891 
3127.000000	94.157043 
3126.000000	94.169460 
3125.000000	94.182665 
3124.000000	94.195492 
3123.000000	94.206226 
3122.000000	94.213875 
3121.000000	94.219339 
3120.000000	94.224851 
3119.000000	94.232036 
3118.000000	94.240882 
3117.000000	94.250349 
3116.000000	94.259247 
3115.000000	94.266687 
3114.000000	94.272561 
3113.000000	94.277907 
3112.000000	94.284223 
3111.000000	94.291993 
3110.000000	94.300135 
3109.000000	94.307144 
3108.000000	94.312705 
3107.000000	94.318080 
3106.000000	94.324818 
3105.000000	94.332970 
3104.000000	94.340705 
3103.000000	94.345945 
3102.000000	94.348578 
3101.000000	94.350851 
3100.000000	94.355119 
3099.000000	94.361736 
3098.000000	94.369664 
3097.000000	94.378422 
3096.000000	94.388309 
3095.000000	94.398933 
3094.000000	94.408943 
3093.000000	94.417505 
3092.000000	94.425041 
3091.000000	94.432284 
3090.000000	94.439463 
3089.000000	94.446622 
3088.000000	94.453884 
3087.000000	94.461269 
3086.000000	94.468987 
3085.000000	94.477769 
3084.000000	94.487819 
3083.000000	94.497622 
3082.000000	94.505283 
3081.000000	94.511105 
3080.000000	94.517148 
3079.000000	94.524000 
3078.000000	94.530025 
3077.000000	94.534442 
3076.000000	94.538857 
3075.000000	94.544482 
3074.000000	94.549775 
3073.000000	94.552808 
3072.000000	94.554500 
3071.000000	94.557389 
3070.000000	94.562006 
3069.000000	94.566682 
3068.000000	94.570503 
3067.000000	94.574331 
3066.000000	94.578752 
3065.000000	94.582905 
3064.000000	94.585900 
3063.000000	94.588113 
3062.000000	94.590599 
3061.000000	94.594186 
3060.000000	94.599413 
3059.000000	94.606489 
3058.000000	94.614976 
3057.000000	94.623911 
3056.000000	94.632280 
3055.000000	94.639138 
3054.000000	94.643750 
3053.000000	94.646428 
3052.000000	94.649112 
3051.000000	94.654072 
3050.000000	94.661779 
3049.000000	94.670575 
3048.000000	94.678352 
3047.000000	94.684207 
3046.000000	94.688466 
3045.000000	94.692015 
3044.000000	94.695927 
3043.000000	94.701080 
3042.000000	94.707551 
3041.000000	94.714433 
3040.000000	94.720522 
3039.000000	94.725252 
3038.000000	94.728881 
3037.000000	94.731957 
3036.000000	94.734755 
3035.000000	94.737212 
3034.000000	94.739395 
3033.000000	94.741821 
3032.000000	94.745125 
3031.000000	94.749483 
3030.000000	94.754570 
3029.000000	94.760007 
3028.000000	94.765516 
3027.000000	94.770609 
3026.000000	94.774590 
3025.000000	94.777189 
3024.000000	94.779045 
3023.000000	94.781294 
3022.000000	94.784632 
3021.000000	94.789013 
3020.000000	94.794035 
3019.000000	94.799240 
3018.000000	94.804138 
3017.000000	94.808288 
3016.000000	94.811559 
3015.000000	94.814236 
3014.000000	94.816922 
3013.000000	94.820299 
3012.000000	94.824742 
3011.000000	94.829884 
3010.000000	94.834681 
3009.000000	94.838309 
3008.000000	94.840836 
3007.000000	94.842928 
3006.000000	94.845028 
3005.000000	94.847167 
3004.000000	94.849503 
3003.000000	94.852457 
3002.000000	94.856262 
3001.000000	94.860728 
3000.000000	94.865456 
2999.000000	94.870011 
2998.000000	94.873985 
2997.000000	94.877239 
2996.000000	94.880110 
2995.000000	94.883107 
2994.000000	94.886291 
2993.000000	94.889320 
2992.000000	94.892097 
2991.000000	94.894890 
2990.000000	94.897719 
2989.000000	94.900197 
2988.000000	94.902307 
2987.000000	94.904753 
2986.000000	94.908118 
2985.000000	94.912170 
2984.000000	94.916382 
2983.000000	94.920717 
2982.000000	94.925442 
2981.000000	94.930485 
2980.000000	94.935380 
2979.000000	94.939579 
2978.000000	94.942687 
2977.000000	94.944830 
2976.000000	94.946981 
2975.000000	94.950360 
2974.000000	94.955221 
2973.000000	94.960666 
2972.000000	94.965842 
2971.000000	94.970754 
2970.000000	94.975629 
2969.000000	94.980336 
2968.000000	94.984954 
2967.000000	94.990019 
2966.000000	94.995436 
2965.000000	94.999923 
2964.000000	95.002467 
2963.000000	95.003848 
2962.000000	95.006019 
2961.000000	95.009949 
2960.000000	95.014991 
2959.000000	95.020152 
2958.000000	95.025138 
2957.000000	95.030055 
2956.000000	95.034921 
2955.000000	95.039733 
2954.000000	95.044369 
2953.000000	95.048314 
2952.000000	95.051233 
2951.000000	95.053851 
2950.000000	95.057276 
2949.000000	95.061390 
2948.000000	95.064900 
2947.000000	95.067167 
2946.000000	95.069095 
2945.000000	95.071823 
2944.000000	95.075381 
2943.000000	95.079172 
2942.000000	95.083005 
2941.000000	95.086909 
2940.000000	95.090478 
2939.000000	95.093236 
2938.000000	95.095372 
2937.000000	95.097471 
2936.000000	95.099725 
2935.000000	95.101982 
2934.000000	95.104339 
2933.000000	95.107066 
2932.000000	95.110143 
2931.000000	95.113489 
2930.000000	95.117503 
2929.000000	95.122736 
2928.000000	95.129004 
2927.000000	95.135315 
2926.000000	95.140773 
2925.000000	95.145284 
2924.000000	95.149455 
2923.000000	95.154058 
2922.000000	95.159267 
2921.000000	95.164107 
2920.000000	95.167138 
2919.000000	95.168197 
2918.000000	95.168964 
2917.000000	95.170984 
2916.000000	95.173476 
2915.000000	95.174446 
2914.000000	95.173813 
2913.000000	95.173991 
2912.000000	95.176776 
2911.000000	95.180751 
2910.000000	95.182910 
2909.000000	95.182327 
2908.000000	95.181127 
2907.000000	95.181857 
2906.000000	95.184838 
2905.000000	95.188502 
2904.000000	95.191329 
2903.000000	95.193348 
2902.000000	95.195713 
2901.000000	95.199275 
2900.000000	95.203966 
2899.000000	95.208920 
2898.000000	95.213449 
2897.000000	95.217582 
2896.000000	95.221499 
2895.000000	95.224784 
2894.000000	95.226890 
2893.000000	95.228264 
2892.000000	95.230248 
2891.000000	95.233524 
2890.000000	95.237378 
2889.000000	95.240976 
2888.000000	95.244746 
2887.000000	95.249556 
2886.000000	95.254921 
2885.000000	95.259178 
2884.000000	95.261659 
2883.000000	95.263568 
2882.000000	95.266262 
2881.000000	95.269408 
2880.000000	95.271803 
2879.000000	95.273455 
2878.000000	95.275783 
2877.000000	95.279746 
2876.000000	95.284608 
2875.000000	95.288812 
2874.000000	95.291596 
2873.000000	95.293374 
2872.000000	95.294975 
2871.000000	95.296937 
2870.000000	95.299369 
2869.000000	95.302029 
2868.000000	95.304484 
2867.000000	95.306458 
2866.000000	95.308063 
2865.000000	95.309549 
2864.000000	95.311058 
2863.000000	95.312907 
2862.000000	95.315819 
2861.000000	95.320261 
2860.000000	95.325548 
2859.000000	95.330294 
2858.000000	95.334070 
2857.000000	95.337978 
2856.000000	95.343193 
2855.000000	95.349242 
2854.000000	95.354300 
2853.000000	95.357154 
2852.000000	95.358260 
2851.000000	95.359022 
2850.000000	95.360388 
2849.000000	95.362296 
2848.000000	95.364202 
2847.000000	95.365707 
2846.000000	95.366757 
2845.000000	95.367559 
2844.000000	95.368523 
2843.000000	95.370212 
2842.000000	95.373080 
2841.000000	95.376921 
2840.000000	95.380596 
2839.000000	95.382734 
2838.000000	95.383012 
2837.000000	95.382607 
2836.000000	95.383127 
2835.000000	95.385128 
2834.000000	95.387972 
2833.000000	95.390889 
2832.000000	95.393729 
2831.000000	95.396559 
2830.000000	95.399111 
2829.000000	95.401026 
2828.000000	95.402467 
2827.000000	95.404182 
2826.000000	95.406963 
2825.000000	95.411087 
2824.000000	95.416079 
2823.000000	95.420844 
2822.000000	95.424345 
2821.000000	95.426389 
2820.000000	95.427764 
2819.000000	95.429542 
2818.000000	95.432183 
2817.000000	95.435417 
2816.000000	95.438834 
2815.000000	95.442293 
2814.000000	95.445723 
2813.000000	95.448818 
2812.000000	95.451203 
2811.000000	95.452861 
2810.000000	95.454235 
2809.000000	95.455852 
2808.000000	95.457908 
2807.000000	95.460263 
2806.000000	95.462721 
2805.000000	95.465193 
2804.000000	95.467594 
2803.000000	95.469755 
2802.000000	95.471607 
2801.000000	95.473445 
2800.000000	95.475781 
2799.000000	95.478818 
2798.000000	95.482172 
2797.000000	95.485182 
2796.000000	95.487548 
2795.000000	95.489524 
2794.000000	95.491596 
2793.000000	95.494035 
2792.000000	95.496779 
2791.000000	95.499602 
2790.000000	95.502295 
2789.000000	95.504741 
2788.000000	95.506968 
2787.000000	95.509175 
2786.000000	95.511650 
2785.000000	95.514573 
2784.000000	95.517858 
2783.000000	95.521160 
2782.000000	95.524066 
2781.000000	95.526392 
2780.000000	95.528360 
2779.000000	95.530473 
2778.000000	95.533078 
2777.000000	95.536008 
2776.000000	95.538712 
2775.000000	95.540814 
2774.000000	95.542428 
2773.000000	95.543869 
2772.000000	95.545200 
2771.000000	95.546319 
2770.000000	95.547436 
2769.000000	95.549141 
2768.000000	95.551770 
2767.000000	95.554884 
2766.000000	95.557598 
2765.000000	95.559492 
2764.000000	95.560910 
2763.000000	95.562353 
2762.000000	95.563848 
2761.000000	95.565158 
2760.000000	95.566450 
2759.000000	95.568393 
2758.000000	95.571403 
2757.000000	95.574911 
2756.000000	95.577621 
2755.000000	95.578805 
2754.000000	95.579199 
2753.000000	95.580432 
2752.000000	95.583331 
2751.000000	95.587140 
2750.000000	95.590581 
2749.000000	95.593317 
2748.000000	95.595746 
2747.000000	95.597660 
2746.000000	95.598156 
2745.000000	95.597039 
2744.000000	95.595506 
2743.000000	95.594987 
2742.000000	95.595701 
2741.000000	95.596799 
2740.000000	95.597490 
2739.000000	95.597647 
2738.000000	95.597631 
2737.000000	95.597991 
2736.000000	95.599193 
2735.000000	95.601206 
2734.000000	95.603370 
2733.000000	95.605021 
2732.000000	95.606179 
2731.000000	95.607399 
2730.000000	95.609066 
2729.000000	95.611089 
2728.000000	95.613154 
2727.000000	95.614998 
2726.000000	95.616469 
2725.000000	95.617601 
2724.000000	95.618655 
2723.000000	95.619887 
2722.000000	95.621260 
2721.000000	95.622568 
2720.000000	95.623825 
2719.000000	95.625284 
2718.000000	95.627026 
2717.000000	95.628771 
2716.000000	95.630169 
2715.000000	95.631188 
2714.000000	95.632186 
2713.000000	95.633559 
2712.000000	95.635245 
2711.000000	95.636699 
2710.000000	95.637537 
2709.000000	95.638123 
2708.000000	95.639252 
2707.000000	95.641301 
2706.000000	95.643915 
2705.000000	95.646443 
2704.000000	95.648432 
2703.000000	95.649619 
2702.000000	95.649893 
2701.000000	95.649676 
2700.000000	95.650089 
2699.000000	95.652164 
2698.000000	95.655725 
2697.000000	95.659240 
2696.000000	95.661103 
2695.000000	95.661061 
2694.000000	95.660362 
2693.000000	95.660563 
2692.000000	95.662103 
2691.000000	95.663978 
2690.000000	95.664758 
2689.000000	95.663899 
2688.000000	95.662118 
2687.000000	95.660722 
2686.000000	95.660777 
2685.000000	95.662717 
2684.000000	95.666102 
2683.000000	95.669493 
2682.000000	95.671170 
2681.000000	95.670572 
2680.000000	95.668971 
2679.000000	95.668456 
2678.000000	95.670257 
2677.000000	95.674173 
2676.000000	95.679034 
2675.000000	95.683228 
2674.000000	95.685284 
2673.000000	95.684790 
2672.000000	95.682778 
2671.000000	95.680560 
2670.000000	95.678352 
2669.000000	95.675694 
2668.000000	95.672795 
2667.000000	95.670219 
2666.000000	95.667255 
2665.000000	95.662129 
2664.000000	95.654655 
2663.000000	95.647573 
2662.000000	95.644015 
2661.000000	95.644042 
2660.000000	95.644716 
2659.000000	95.643408 
2658.000000	95.640201 
2657.000000	95.636904 
2656.000000	95.634627 
2655.000000	95.632863 
2654.000000	95.630527 
2653.000000	95.627421 
2652.000000	95.624684 
2651.000000	95.623901 
2650.000000	95.625630 
2649.000000	95.628791 
2648.000000	95.631685 
2647.000000	95.633397 
2646.000000	95.633837 
2645.000000	95.632850 
2644.000000	95.630324 
2643.000000	95.627259 
2642.000000	95.625614 
2641.000000	95.626391 
2640.000000	95.628572 
2639.000000	95.630560 
2638.000000	95.632158 
2637.000000	95.634237 
2636.000000	95.636928 
2635.000000	95.639199 
2634.000000	95.640131 
2633.000000	95.639650 
2632.000000	95.637886 
2631.000000	95.634924 
2630.000000	95.631499 
2629.000000	95.628955 
2628.000000	95.627964 
2627.000000	95.627801 
2626.000000	95.627372 
2625.000000	95.626610 
2624.000000	95.626375 
2623.000000	95.627230 
2622.000000	95.628777 
2621.000000	95.630017 
2620.000000	95.630077 
2619.000000	95.628792 
2618.000000	95.626999 
2617.000000	95.626096 
2616.000000	95.626800 
2615.000000	95.628425 
2614.000000	95.629619 
2613.000000	95.629829 
2612.000000	95.629722 
2611.000000	95.630219 
2610.000000	95.631540 
2609.000000	95.633240 
2608.000000	95.634784 
2607.000000	95.635957 
2606.000000	95.636875 
2605.000000	95.637697 
2604.000000	95.638362 
2603.000000	95.638715 
2602.000000	95.638931 
2601.000000	95.639528 
2600.000000	95.640736 
2599.000000	95.642093 
2598.000000	95.642969 
2597.000000	95.643311 
2596.000000	95.643543 
2595.000000	95.643883 
2594.000000	95.644152 
2593.000000	95.644412 
2592.000000	95.645258 
2591.000000	95.647025 
2590.000000	95.649184 
2589.000000	95.650815 
2588.000000	95.651749 
2587.000000	95.652666 
2586.000000	95.654161 
2585.000000	95.656106 
2584.000000	95.657975 
2583.000000	95.659423 
2582.000000	95.660409 
2581.000000	95.661036 
2580.000000	95.661544 
2579.000000	95.662283 
2578.000000	95.663510 
2577.000000	95.665173 
2576.000000	95.666897 
2575.000000	95.668109 
2574.000000	95.668333 
2573.000000	95.667697 
2572.000000	95.667087 
2571.000000	95.667317 
2570.000000	95.668179 
2569.000000	95.668742 
2568.000000	95.668674 
2567.000000	95.668717 
2566.000000	95.669664 
2565.000000	95.671399 
2564.000000	95.673148 
2563.000000	95.674185 
2562.000000	95.674117 
2561.000000	95.673180 
2560.000000	95.672633 
2559.000000	95.674135 
2558.000000	95.678036 
2557.000000	95.682760 
2556.000000	95.686461 
2555.000000	95.688749 
2554.000000	95.690101 
2553.000000	95.690274 
2552.000000	95.688701 
2551.000000	95.686371 
2550.000000	95.685651 
2549.000000	95.687309 
2548.000000	95.688955 
2547.000000	95.687660 
2546.000000	95.683629 
2545.000000	95.680038 
2544.000000	95.679068 
2543.000000	95.679525 
2542.000000	95.678923 
2541.000000	95.676939 
2540.000000	95.675532 
2539.000000	95.676027 
2538.000000	95.677615 
2537.000000	95.678928 
2536.000000	95.680039 
2535.000000	95.682076 
2534.000000	95.685462 
2533.000000	95.689328 
2532.000000	95.692497 
2531.000000	95.694584 
2530.000000	95.696140 
2529.000000	95.697931 
2528.000000	95.700176 
2527.000000	95.702458 
2526.000000	95.704315 
2525.000000	95.705718 
2524.000000	95.706805 
2523.000000	95.707468 
2522.000000	95.707642 
2521.000000	95.707885 
2520.000000	95.709103 
2519.000000	95.711476 
2518.000000	95.713959 
2517.000000	95.715128 
2516.000000	95.714417 
2515.000000	95.712422 
2514.000000	95.710379 
2513.000000	95.709490 
2512.000000	95.710400 
2511.000000	95.712936 
2510.000000	95.716126 
2509.000000	95.718714 
2508.000000	95.719839 
2507.000000	95.719322 
2506.000000	95.717857 
2505.000000	95.717035 
2504.000000	95.718476 
2503.000000	95.722302 
2502.000000	95.726541 
2501.000000	95.728754 
2500.000000	95.728282 
2499.000000	95.726437 
2498.000000	95.724903 
2497.000000	95.724585 
2496.000000	95.726032 
2495.000000	95.729696 
2494.000000	95.734960 
2493.000000	95.739718 
2492.000000	95.742091 
2491.000000	95.742382 
2490.000000	95.742594 
2489.000000	95.743835 
2488.000000	95.744859 
2487.000000	95.743606 
2486.000000	95.739705 
2485.000000	95.734981 
2484.000000	95.731410 
2483.000000	95.729005 
2482.000000	95.726197 
2481.000000	95.721983 
2480.000000	95.717022 
2479.000000	95.712683 
2478.000000	95.709943 
2477.000000	95.709329 
2476.000000	95.710489 
2475.000000	95.711155 
2474.000000	95.708116 
2473.000000	95.700936 
2472.000000	95.693867 
2471.000000	95.692153 
2470.000000	95.696979 
2469.000000	95.705362 
2468.000000	95.714245 
2467.000000	95.722850 
2466.000000	95.730756 
2465.000000	95.736234 
2464.000000	95.738044 
2463.000000	95.737542 
2462.000000	95.737618 
2461.000000	95.739961 
2460.000000	95.744046 
2459.000000	95.748132 
2458.000000	95.750375 
2457.000000	95.749479 
2456.000000	95.745299 
2455.000000	95.739163 
2454.000000	95.733221 
2453.000000	95.728920 
2452.000000	95.726066 
2451.000000	95.723612 
2450.000000	95.721399 
2449.000000	95.720516 
2448.000000	95.721364 
2447.000000	95.721968 
2446.000000	95.719549 
2445.000000	95.713984 
2444.000000	95.708426 
2443.000000	95.705816 
2442.000000	95.705926 
2441.000000	95.706679 
2440.000000	95.707294 
2439.000000	95.709000 
2438.000000	95.713280 
2437.000000	95.720479 
2436.000000	95.729671 
2435.000000	95.738888 
2434.000000	95.745850 
2433.000000	95.749322 
2432.000000	95.749945 
2431.000000	95.749805 
2430.000000	95.751484 
2429.000000	95.756995 
2428.000000	95.766230 
2427.000000	95.775943 
2426.000000	95.781785 
2425.000000	95.782194 
2424.000000	95.779494 
2423.000000	95.776971 
2422.000000	95.775876 
2421.000000	95.776050 
2420.000000	95.777718 
2419.000000	95.781046 
2418.000000	95.785036 
2417.000000	95.788427 
2416.000000	95.791238 
2415.000000	95.794139 
2414.000000	95.796698 
2413.000000	95.797756 
2412.000000	95.797305 
2411.000000	95.796346 
2410.000000	95.795326 
2409.000000	95.794457 
2408.000000	95.794975 
2407.000000	95.798171 
2406.000000	95.803024 
2405.000000	95.806393 
2404.000000	95.806059 
2403.000000	95.802727 
2402.000000	95.799121 
2401.000000	95.798047 
2400.000000	95.800970 
2399.000000	95.807177 
2398.000000	95.814264 
2397.000000	95.820358 
2396.000000	95.825330 
2395.000000	95.829133 
2394.000000	95.830315 
2393.000000	95.828076 
2392.000000	95.824851 
2391.000000	95.824426 
2390.000000	95.827146 
2389.000000	95.829141 
2388.000000	95.826696 
2387.000000	95.819677 
2386.000000	95.810658 
2385.000000	95.802624 
2384.000000	95.798141 
2383.000000	95.799063 
2382.000000	95.806077 
2381.000000	95.818983 
2380.000000	95.837579 
2379.000000	95.861080 
2378.000000	95.886037 
2377.000000	95.906071 
2376.000000	95.915260 
2375.000000	95.911554 
2374.000000	95.896794 
2373.000000	95.875097 
2372.000000	95.852146 
2371.000000	95.834409 
2370.000000	95.826033 
2369.000000	95.825787 
2368.000000	95.828040 
2367.000000	95.827984 
2366.000000	95.825534 
2365.000000	95.823126 
2364.000000	95.821197 
2363.000000	95.818151 
2362.000000	95.813432 
2361.000000	95.808695 
2360.000000	95.804839 
2359.000000	95.800492 
2358.000000	95.796404 
2357.000000	95.796382 
2356.000000	95.802241 
2355.000000	95.810742 
2354.000000	95.816737 
2353.000000	95.815709 
2352.000000	95.804864 
2351.000000	95.785636 
2350.000000	95.764628 
2349.000000	95.749858 
2348.000000	95.745844 
2347.000000	95.750425 
2346.000000	95.754830 
2345.000000	95.751407 
2344.000000	95.741039 
2343.000000	95.730687 
2342.000000	95.726058 
2341.000000	95.728137 
2340.000000	95.733138 
2339.000000	95.735397 
2338.000000	95.732620 
2337.000000	95.727204 
2336.000000	95.722790 
2335.000000	95.720524 
2334.000000	95.719054 
2333.000000	95.716231 
2332.000000	95.710552 
2331.000000	95.702252 
2330.000000	95.691391 
2329.000000	95.675513 
2328.000000	95.652473 
2327.000000	95.624911 
2326.000000	95.599557 
2325.000000	95.582272 
2324.000000	95.575287 
2323.000000	95.578523 
2322.000000	95.588109 
2321.000000	95.597406 
2320.000000	95.601353 
2319.000000	95.601733 
2318.000000	95.603004 
2317.000000	95.606868 
2316.000000	95.611197 
2315.000000	95.613773 
2314.000000	95.613179 
2313.000000	95.608199 
2312.000000	95.598577 
2311.000000	95.586696 
2310.000000	95.575918 
2309.000000	95.567288 
2308.000000	95.560672 
2307.000000	95.557396 
2306.000000	95.558791 
2305.000000	95.562018 
2304.000000	95.562539 
2303.000000	95.560425 
2302.000000	95.560138 
2301.000000	95.563809 
2300.000000	95.568649 
2299.000000	95.571027 
2298.000000	95.570036 
2297.000000	95.567201 
2296.000000	95.564334 
2295.000000	95.563322 
2294.000000	95.565241 
2293.000000	95.569633 
2292.000000	95.574792 
2291.000000	95.579756 
2290.000000	95.584238 
2289.000000	95.587405 
2288.000000	95.588094 
2287.000000	95.586518 
2286.000000	95.584470 
2285.000000	95.583616 
2284.000000	95.584644 
2283.000000	95.587587 
2282.000000	95.591918 
2281.000000	95.596343 
2280.000000	95.599673 
2279.000000	95.601610 
2278.000000	95.602602 
2277.000000	95.603303 
2276.000000	95.604341 
2275.000000	95.606192 
2274.000000	95.608946 
2273.000000	95.612448 
2272.000000	95.616658 
2271.000000	95.621331 
2270.000000	95.625375 
2269.000000	95.627628 
2268.000000	95.628463 
2267.000000	95.629627 
2266.000000	95.632102 
2265.000000	95.635167 
2264.000000	95.637748 
2263.000000	95.639414 
2262.000000	95.639737 
2261.000000	95.638089 
2260.000000	95.634904 
2259.000000	95.631982 
2258.000000	95.630842 
2257.000000	95.631588 
2256.000000	95.633919 
2255.000000	95.637921 
2254.000000	95.643001 
2253.000000	95.647064 
2252.000000	95.648190 
2251.000000	95.646464 
2250.000000	95.643360 
2249.000000	95.640206 
2248.000000	95.637931 
2247.000000	95.637342 
2246.000000	95.638419 
2245.000000	95.639672 
2244.000000	95.639363 
2243.000000	95.637287 
2242.000000	95.634793 
2241.000000	95.633308 
2240.000000	95.633127 
2239.000000	95.633738 
2238.000000	95.634399 
2237.000000	95.634598 
2236.000000	95.634365 
2235.000000	95.634157 
2234.000000	95.634291 
2233.000000	95.634592 
2232.000000	95.634719 
2231.000000	95.634571 
2230.000000	95.634184 
2229.000000	95.633546 
2228.000000	95.632734 
2227.000000	95.631978 
2226.000000	95.631397 
2225.000000	95.630864 
2224.000000	95.630214 
2223.000000	95.629459 
2222.000000	95.628716 
2221.000000	95.628038 
2220.000000	95.627390 
2219.000000	95.626741 
2218.000000	95.626099 
2217.000000	95.625482 
2216.000000	95.624895 
2215.000000	95.624328 
2214.000000	95.623748 
2213.000000	95.623118 
2212.000000	95.622423 
2211.000000	95.621678 
2210.000000	95.620903 
2209.000000	95.620114 
2208.000000	95.619422 
2207.000000	95.618815 
2206.000000	95.617996 
2205.000000	95.617050 
2204.000000	95.616965 
2203.000000	95.619312 
2202.000000	95.624866 
2201.000000	95.630791 
2200.000000	95.630342 
2199.000000	95.618902 
2198.000000	95.600451 
2197.000000	95.585269 
2196.000000	95.580090 
2195.000000	95.583236 
2194.000000	95.589378 
2193.000000	95.596537 
2192.000000	95.605843 
2191.000000	95.615607 
2190.000000	95.619846 
2189.000000	95.614866 
2188.000000	95.605078 
2187.000000	95.598491 
2186.000000	95.596756 
2185.000000	95.594111 
2184.000000	95.587970 
2183.000000	95.585676 
2182.000000	95.595467 
2181.000000	95.613356 
2180.000000	95.625451 
2179.000000	95.623811 
2178.000000	95.614417 
2177.000000	95.608974 
2176.000000	95.613006 
2175.000000	95.622644 
2174.000000	95.629037 
2173.000000	95.624712 
2172.000000	95.609385 
2171.000000	95.591044 
2170.000000	95.578426 
2169.000000	95.571499 
2168.000000	95.562589 
2167.000000	95.547733 
2166.000000	95.532118 
2165.000000	95.521797 
2164.000000	95.515452 
2163.000000	95.510195 
2162.000000	95.513077 
2161.000000	95.539846 
2160.000000	95.600098 
2159.000000	95.685002 
2158.000000	95.769871 
2157.000000	95.831480 
2156.000000	95.862947 
2155.000000	95.872119 
2154.000000	95.870990 
2153.000000	95.868063 
2152.000000	95.866378 
2151.000000	95.864081 
2150.000000	95.856733 
2149.000000	95.842864 
2148.000000	95.829117 
2147.000000	95.826633 
2146.000000	95.839526 
2145.000000	95.859111 
2144.000000	95.872448 
2143.000000	95.874603 
2142.000000	95.869472 
2141.000000	95.861910 
2140.000000	95.854228 
2139.000000	95.849768 
2138.000000	95.854441 
2137.000000	95.871879 
2136.000000	95.898306 
2135.000000	95.923343 
2134.000000	95.936076 
2133.000000	95.932462 
2132.000000	95.919200 
2131.000000	95.909151 
2130.000000	95.910065 
2129.000000	95.917921 
2128.000000	95.922973 
2127.000000	95.921039 
2126.000000	95.915845 
2125.000000	95.911263 
2124.000000	95.905663 
2123.000000	95.895633 
2122.000000	95.881991 
2121.000000	95.869159 
2120.000000	95.859558 
2119.000000	95.851137 
2118.000000	95.840912 
2117.000000	95.829466 
2116.000000	95.820372 
2115.000000	95.815238 
2114.000000	95.811001 
2113.000000	95.803648 
2112.000000	95.794296 
2111.000000	95.788493 
2110.000000	95.788766 
2109.000000	95.791080 
2108.000000	95.790655 
2107.000000	95.788461 
2106.000000	95.788519 
2105.000000	95.791257 
2104.000000	95.793703 
2103.000000	95.794563 
2102.000000	95.794292 
2101.000000	95.791102 
2100.000000	95.782824 
2099.000000	95.773671 
2098.000000	95.773525 
2097.000000	95.787704 
2096.000000	95.810852 
2095.000000	95.832948 
2094.000000	95.848431 
2093.000000	95.856681 
2092.000000	95.858002 
2091.000000	95.853825 
2090.000000	95.848995 
2089.000000	95.848837 
2088.000000	95.852976 
2087.000000	95.855233 
2086.000000	95.850696 
2085.000000	95.840872 
2084.000000	95.831328 
2083.000000	95.825515 
2082.000000	95.822377 
2081.000000	95.819607 
2080.000000	95.817303 
2079.000000	95.817170 
2078.000000	95.818801 
2077.000000	95.818661 
2076.000000	95.813838 
2075.000000	95.805840 
2074.000000	95.799073 
2073.000000	95.795988 
2072.000000	95.795260 
2071.000000	95.794751 
2070.000000	95.794551 
2069.000000	95.795941 
2068.000000	95.798582 
2067.000000	95.800345 
2066.000000	95.799568 
2065.000000	95.796223 
2064.000000	95.790947 
2063.000000	95.784443 
2062.000000	95.778701 
2061.000000	95.777130 
2060.000000	95.781695 
2059.000000	95.790659 
2058.000000	95.799874 
2057.000000	95.806447 
2056.000000	95.809873 
2055.000000	95.809356 
2054.000000	95.802747 
2053.000000	95.790019 
2052.000000	95.776380 
2051.000000	95.768712 
2050.000000	95.769277 
2049.000000	95.774843 
2048.000000	95.781191 
2047.000000	95.786961 
2046.000000	95.792100 
2045.000000	95.795614 
2044.000000	95.796899 
2043.000000	95.797173 
2042.000000	95.797887 
2041.000000	95.799207 
2040.000000	95.801402 
2039.000000	95.806071 
2038.000000	95.814059 
2037.000000	95.823386 
2036.000000	95.831101 
2035.000000	95.836373 
2034.000000	95.840216 
2033.000000	95.843174 
2032.000000	95.844881 
2031.000000	95.844961 
2030.000000	95.842855 
2029.000000	95.837987 
2028.000000	95.831421 
2027.000000	95.825967 
2026.000000	95.823222 
2025.000000	95.822140 
2024.000000	95.822158 
2023.000000	95.825987 
2022.000000	95.836747 
2021.000000	95.852544 
2020.000000	95.866012 
2019.000000	95.870804 
2018.000000	95.866469 
2017.000000	95.857895 
2016.000000	95.851163 
2015.000000	95.849069 
2014.000000	95.849579 
2013.000000	95.847946 
2012.000000	95.842091 
2011.000000	95.836144 
2010.000000	95.836434 
2009.000000	95.843824 
2008.000000	95.852362 
2007.000000	95.856251 
2006.000000	95.855623 
2005.000000	95.854325 
2004.000000	95.855406 
2003.000000	95.860108 
2002.000000	95.868164 
2001.000000	95.875917 
2000.000000	95.876873 
1999.000000	95.867078 
1998.000000	95.849288 
1997.000000	95.831309 
1996.000000	95.819645 
1995.000000	95.815585 
1994.000000	95.816334 
1993.000000	95.817634 
1992.000000	95.816009 
1991.000000	95.811119 
1990.000000	95.806591 
1989.000000	95.806864 
1988.000000	95.812245 
1987.000000	95.817618 
1986.000000	95.817127 
1985.000000	95.809877 
1984.000000	95.799879 
1983.000000	95.790739 
1982.000000	95.782762 
1981.000000	95.776215 
1980.000000	95.775640 
1979.000000	95.787181 
1978.000000	95.810806 
1977.000000	95.837699 
1976.000000	95.857173 
1975.000000	95.865618 
1974.000000	95.866786 
1973.000000	95.866539 
1972.000000	95.868720 
1971.000000	95.873666 
1970.000000	95.878590 
1969.000000	95.879661 
1968.000000	95.874957 
1967.000000	95.866236 
1966.000000	95.858036 
1965.000000	95.854665 
1964.000000	95.858039 
1963.000000	95.867738 
1962.000000	95.881844 
1961.000000	95.896916 
1960.000000	95.907944 
1959.000000	95.910708 
1958.000000	95.905855 
1957.000000	95.899888 
1956.000000	95.899272 
1955.000000	95.903348 
1954.000000	95.905859 
1953.000000	95.903423 
1952.000000	95.898932 
1951.000000	95.896264 
1950.000000	95.895940 
1949.000000	95.897276 
1948.000000	95.901277 
1947.000000	95.908297 
1946.000000	95.914917 
1945.000000	95.916647 
1944.000000	95.912567 
1943.000000	95.905034 
1942.000000	95.896406 
1941.000000	95.888222 
1940.000000	95.882546 
1939.000000	95.880892 
1938.000000	95.882310 
1937.000000	95.884728 
1936.000000	95.887566 
1935.000000	95.890884 
1934.000000	95.892968 
1933.000000	95.892196 
1932.000000	95.890573 
1931.000000	95.891990 
1930.000000	95.896935 
1929.000000	95.901419 
1928.000000	95.902730 
1927.000000	95.902158 
1926.000000	95.901133 
1925.000000	95.898296 
1924.000000	95.892200 
1923.000000	95.885104 
1922.000000	95.880319 
1921.000000	95.877681 
1920.000000	95.875282 
1919.000000	95.873046 
1918.000000	95.871861 
1917.000000	95.870443 
1916.000000	95.866631 
1915.000000	95.861208 
1914.000000	95.856579 
1913.000000	95.853521 
1912.000000	95.851032 
1911.000000	95.848704 
1910.000000	95.847358 
1909.000000	95.847053 
1908.000000	95.846752 
1907.000000	95.845227 
1906.000000	95.841510 
1905.000000	95.835071 
1904.000000	95.826710 
1903.000000	95.819533 
1902.000000	95.816286 
1901.000000	95.816202 
1900.000000	95.816433 
1899.000000	95.815576 
1898.000000	95.814242 
1897.000000	95.812878 
1896.000000	95.810595 
1895.000000	95.806716 
1894.000000	95.801655 
1893.000000	95.796308 
1892.000000	95.791913 
1891.000000	95.789682 
1890.000000	95.789163 
1889.000000	95.787853 
1888.000000	95.784469 
1887.000000	95.781456 
1886.000000	95.781351 
1885.000000	95.782667 
1884.000000	95.781608 
1883.000000	95.777379 
1882.000000	95.772995 
1881.000000	95.770975 
1880.000000	95.771060 
1879.000000	95.771390 
1878.000000	95.770250 
1877.000000	95.767621 
1876.000000	95.765469 
1875.000000	95.766203 
1874.000000	95.770278 
1873.000000	95.775363 
1872.000000	95.778990 
1871.000000	95.780898 
1870.000000	95.781350 
1869.000000	95.779393 
1868.000000	95.775074 
1867.000000	95.771745 
1866.000000	95.772009 
1865.000000	95.773616 
1864.000000	95.773081 
1863.000000	95.771285 
1862.000000	95.771749 
1861.000000	95.774715 
1860.000000	95.777453 
1859.000000	95.779730 
1858.000000	95.783983 
1857.000000	95.790243 
1856.000000	95.795894 
1855.000000	95.799988 
1854.000000	95.803543 
1853.000000	95.805755 
1852.000000	95.805590 
1851.000000	95.804973 
1850.000000	95.806272 
1849.000000	95.809168 
1848.000000	95.811784 
1847.000000	95.814420 
1846.000000	95.818721 
1845.000000	95.823700 
1844.000000	95.826190 
1843.000000	95.825686 
1842.000000	95.825079 
1841.000000	95.826190 
1840.000000	95.828969 
1839.000000	95.832916 
1838.000000	95.837237 
1837.000000	95.840082 
1836.000000	95.840062 
1835.000000	95.838822 
1834.000000	95.839108 
1833.000000	95.841235 
1832.000000	95.843764 
1831.000000	95.845389 
1830.000000	95.845781 
1829.000000	95.845405 
1828.000000	95.844693 
1827.000000	95.844254 
1826.000000	95.844331 
1825.000000	95.844528 
1824.000000	95.843996 
1823.000000	95.842572 
1822.000000	95.841518 
1821.000000	95.841970 
1820.000000	95.843842 
1819.000000	95.846436 
1818.000000	95.849738 
1817.000000	95.853254 
1816.000000	95.854939 
1815.000000	95.854548 
1814.000000	95.854714 
1813.000000	95.857669 
1812.000000	95.861688 
1811.000000	95.862602 
1810.000000	95.859908 
1809.000000	95.856596 
1808.000000	95.854318 
1807.000000	95.852997 
1806.000000	95.852938 
1805.000000	95.854209 
1804.000000	95.855098 
1803.000000	95.854250 
1802.000000	95.852095 
1801.000000	95.850360 
1800.000000	95.849769 
1799.000000	95.849875 
1798.000000	95.851069 
1797.000000	95.852100 
1796.000000	95.850467 
1795.000000	95.847265 
1794.000000	95.846461 
1793.000000	95.849230 
1792.000000	95.851224 
1791.000000	95.849160 
1790.000000	95.846996 
1789.000000	95.848997 
1788.000000	95.854131 
1787.000000	95.858802 
1786.000000	95.861177 
1785.000000	95.861711 
1784.000000	95.861324 
1783.000000	95.862153 
1782.000000	95.864747 
1781.000000	95.867511 
1780.000000	95.869695 
1779.000000	95.872616 
1778.000000	95.879005 
1777.000000	95.887802 
1776.000000	95.894921 
1775.000000	95.898452 
1774.000000	95.900222 
1773.000000	95.904229 
1772.000000	95.911786 
1771.000000	95.917730 
1770.000000	95.918601 
1769.000000	95.916427 
1768.000000	95.914050 
1767.000000	95.913134 
1766.000000	95.913934 
1765.000000	95.916234 
1764.000000	95.918764 
1763.000000	95.918888 
1762.000000	95.915348 
1761.000000	95.911578 
1760.000000	95.911257 
1759.000000	95.913819 
1758.000000	95.916233 
1757.000000	95.916099 
1756.000000	95.915192 
1755.000000	95.914639 
1754.000000	95.911932 
1753.000000	95.904735 
1752.000000	95.895471 
1751.000000	95.890582 
1750.000000	95.893421 
1749.000000	95.900397 
1748.000000	95.906223 
1747.000000	95.909878 
1746.000000	95.911687 
1745.000000	95.912483 
1744.000000	95.913044 
1743.000000	95.912287 
1742.000000	95.909528 
1741.000000	95.907140 
1740.000000	95.907483 
1739.000000	95.909306 
1738.000000	95.909396 
1737.000000	95.906728 
1736.000000	95.902117 
1735.000000	95.895196 
1734.000000	95.886431 
1733.000000	95.876787 
1732.000000	95.870830 
1731.000000	95.872532 
1730.000000	95.879350 
1729.000000	95.883617 
1728.000000	95.881208 
1727.000000	95.875047 
1726.000000	95.868854 
1725.000000	95.863774 
1724.000000	95.857837 
1723.000000	95.849701 
1722.000000	95.842157 
1721.000000	95.836319 
1720.000000	95.829511 
1719.000000	95.819241 
1718.000000	95.809987 
1717.000000	95.806843 
1716.000000	95.802596 
1715.000000	95.793013 
1714.000000	95.784341 
1713.000000	95.779615 
1712.000000	95.774459 
1711.000000	95.767060 
1710.000000	95.759631 
1709.000000	95.751998 
1708.000000	95.742390 
1707.000000	95.732438 
1706.000000	95.726106 
1705.000000	95.720806 
1704.000000	95.707297 
1703.000000	95.685145 
1702.000000	95.662932 
1701.000000	95.646821 
1700.000000	95.632444 
1699.000000	95.610298 
1698.000000	95.590605 
1697.000000	95.580582 
1696.000000	95.572239 
1695.000000	95.557826 
1694.000000	95.540555 
1693.000000	95.525286 
1692.000000	95.510358 
1691.000000	95.494124 
1690.000000	95.477569 
1689.000000	95.460485 
1688.000000	95.442343 
1687.000000	95.424256 
1686.000000	95.409826 
1685.000000	95.401398 
1684.000000	95.392576 
1683.000000	95.375509 
1682.000000	95.354665 
1681.000000	95.334631 
1680.000000	95.318267 
1679.000000	95.306299 
1678.000000	95.295467 
1677.000000	95.282016 
1676.000000	95.266058 
1675.000000	95.250237 
1674.000000	95.232130 
1673.000000	95.212271 
1672.000000	95.195506 
1671.000000	95.183632 
1670.000000	95.172327 
1669.000000	95.154020 
1668.000000	95.131539 
1667.000000	95.113427 
1666.000000	95.099688 
1665.000000	95.086726 
1664.000000	95.072951 
1663.000000	95.058546 
1662.000000	95.039801 
1661.000000	95.012847 
1660.000000	94.985426 
1659.000000	94.966590 
1658.000000	94.954363 
1657.000000	94.940039 
1656.000000	94.919071 
1655.000000	94.892840 
1654.000000	94.863089 
1653.000000	94.836033 
1652.000000	94.808043 
1651.000000	94.792591 
1650.000000	94.790111 
1649.000000	94.788432 
1648.000000	94.778903 
1647.000000	94.763374 
1646.000000	94.748081 
1645.000000	94.736374 
1644.000000	94.728323 
1643.000000	94.722950 
1642.000000	94.720090 
1641.000000	94.718211 
1640.000000	94.716703 
1639.000000	94.714363 
1638.000000	94.711929 
1637.000000	94.710452 
1636.000000	94.709178 
1635.000000	94.705409 
1634.000000	94.699604 
1633.000000	94.697117 
1632.000000	94.697434 
1631.000000	94.701132 
1630.000000	94.710724 
1629.000000	94.724793 
1628.000000	94.738224 
1627.000000	94.749405 
1626.000000	94.760391 
1625.000000	94.774400 
1624.000000	94.795433 
1623.000000	94.824213 
1622.000000	94.852787 
1621.000000	94.872269 
1620.000000	94.884585 
1619.000000	94.897587 
1618.000000	94.918046 
1617.000000	94.945075 
1616.000000	94.971559 
1615.000000	94.995382 
1614.000000	95.017819 
1613.000000	95.036968 
1612.000000	95.052651 
1611.000000	95.069100 
1610.000000	95.088056 
1609.000000	95.107472 
1608.000000	95.128214 
1607.000000	95.152782 
1606.000000	95.177512 
1605.000000	95.197593 
1604.000000	95.216248 
1603.000000	95.237454 
1602.000000	95.258680 
1601.000000	95.275941 
1600.000000	95.290405 
1599.000000	95.305396 
1598.000000	95.320291 
1597.000000	95.333393 
1596.000000	95.346035 
1595.000000	95.360577 
1594.000000	95.376328 
1593.000000	95.390668 
1592.000000	95.403438 
1591.000000	95.416565 
1590.000000	95.430233 
1589.000000	95.443011 
1588.000000	95.455501 
1587.000000	95.469484 
1586.000000	95.484234 
1585.000000	95.496648 
1584.000000	95.507667 
1583.000000	95.520332 
1582.000000	95.532398 
1581.000000	95.539829 
1580.000000	95.543731 
1579.000000	95.548184 
1578.000000	95.555422 
1577.000000	95.567234 
1576.000000	95.583721 
1575.000000	95.600102 
1574.000000	95.611933 
1573.000000	95.620279 
1572.000000	95.630247 
1571.000000	95.645671 
1570.000000	95.662248 
1569.000000	95.669782 
1568.000000	95.670151 
1567.000000	95.672856 
1566.000000	95.679259 
1565.000000	95.684935 
1564.000000	95.688712 
1563.000000	95.689811 
1562.000000	95.688314 
1561.000000	95.684357 
1560.000000	95.689512 
1559.000000	95.709834 
1558.000000	95.720741 
1557.000000	95.716753 
1556.000000	95.714789 
1555.000000	95.719399 
1554.000000	95.726509 
1553.000000	95.733359 
1552.000000	95.740233 
1551.000000	95.744085 
1550.000000	95.742872 
1549.000000	95.739654 
1548.000000	95.739317 
1547.000000	95.742972 
1546.000000	95.745560 
1545.000000	95.742405 
1544.000000	95.735617 
1543.000000	95.729638 
1542.000000	95.727078 
1541.000000	95.728813 
1540.000000	95.729554 
1539.000000	95.724026 
1538.000000	95.715229 
1537.000000	95.707503 
1536.000000	95.701264 
1535.000000	95.698597 
1534.000000	95.700274 
1533.000000	95.701356 
1532.000000	95.696319 
1531.000000	95.686687 
1530.000000	95.677974 
1529.000000	95.671718 
1528.000000	95.665021 
1527.000000	95.656837 
1526.000000	95.649115 
1525.000000	95.643324 
1524.000000	95.639189 
1523.000000	95.635888 
1522.000000	95.632456 
1521.000000	95.625995 
1520.000000	95.615323 
1519.000000	95.604392 
1518.000000	95.595884 
1517.000000	95.589010 
1516.000000	95.581725 
1515.000000	95.574619 
1514.000000	95.570126 
1513.000000	95.568274 
1512.000000	95.564926 
1511.000000	95.555352 
1510.000000	95.539962 
1509.000000	95.522661 
1508.000000	95.508395 
1507.000000	95.499955 
1506.000000	95.494697 
1505.000000	95.487145 
1504.000000	95.477689 
1503.000000	95.467137 
1502.000000	95.455723 
1501.000000	95.444932 
1500.000000	95.436028 
1499.000000	95.427846 
1498.000000	95.417995 
1497.000000	95.407125 
1496.000000	95.396917 
1495.000000	95.388368 
1494.000000	95.382713 
1493.000000	95.380273 
1492.000000	95.379199 
1491.000000	95.376000 
1490.000000	95.368138 
1489.000000	95.356491 
1488.000000	95.342731 
1487.000000	95.328549 
1486.000000	95.316449 
1485.000000	95.304755 
1484.000000	95.291557 
1483.000000	95.278677 
1482.000000	95.268161 
1481.000000	95.259440 
1480.000000	95.249441 
1479.000000	95.237630 
1478.000000	95.226405 
1477.000000	95.216939 
1476.000000	95.205915 
1475.000000	95.190903 
1474.000000	95.175246 
1473.000000	95.164121 
1472.000000	95.156637 
1471.000000	95.146347 
1470.000000	95.132516 
1469.000000	95.118259 
1468.000000	95.103733 
1467.000000	95.088176 
1466.000000	95.073870 
1465.000000	95.063619 
1464.000000	95.055951 
1463.000000	95.044633 
1462.000000	95.028163 
1461.000000	95.010781 
1460.000000	94.996113 
1459.000000	94.982455 
1458.000000	94.964034 
1457.000000	94.942186 
1456.000000	94.924814 
1455.000000	94.912445 
1454.000000	94.898711 
1453.000000	94.882354 
1452.000000	94.868675 
1451.000000	94.861155 
1450.000000	94.859084 
1449.000000	94.861174 
1448.000000	94.862883 
1447.000000	94.858025 
1446.000000	94.844414 
1445.000000	94.827760 
1444.000000	94.816136 
1443.000000	94.809006 
1442.000000	94.802248 
1441.000000	94.795302 
1440.000000	94.789602 
1439.000000	94.781736 
1438.000000	94.766730 
1437.000000	94.748300 
1436.000000	94.736360 
1435.000000	94.731244 
1434.000000	94.727880 
1433.000000	94.726579 
1432.000000	94.729509 
1431.000000	94.734778 
1430.000000	94.737936 
1429.000000	94.740217 
1428.000000	94.745272 
1427.000000	94.754312 
1426.000000	94.765288 
1425.000000	94.776896 
1424.000000	94.790985 
1423.000000	94.803519 
1422.000000	94.810228 
1421.000000	94.816431 
1420.000000	94.830418 
1419.000000	94.846246 
1418.000000	94.851624 
1417.000000	94.854394 
1416.000000	94.870050 
1415.000000	94.898096 
1414.000000	94.925505 
1413.000000	94.943719 
1412.000000	94.956497 
1411.000000	94.969478 
1410.000000	94.983250 
1409.000000	94.999168 
1408.000000	95.018847 
1407.000000	95.040638 
1406.000000	95.061212 
1405.000000	95.081527 
1404.000000	95.106028 
1403.000000	95.130826 
1402.000000	95.149118 
1401.000000	95.164427 
1400.000000	95.187454 
1399.000000	95.221136 
1398.000000	95.256159 
1397.000000	95.286372 
1396.000000	95.315153 
1395.000000	95.345300 
1394.000000	95.371285 
1393.000000	95.390134 
1392.000000	95.408945 
1391.000000	95.432064 
1390.000000	95.455493 
1389.000000	95.473850 
1388.000000	95.486454 
1387.000000	95.497238 
1386.000000	95.510243 
1385.000000	95.527292 
1384.000000	95.548341 
1383.000000	95.569753 
1382.000000	95.586918 
1381.000000	95.599142 
1380.000000	95.608858 
1379.000000	95.618711 
1378.000000	95.630128 
1377.000000	95.643569 
1376.000000	95.658168 
1375.000000	95.671768 
1374.000000	95.682450 
1373.000000	95.691876 
1372.000000	95.703628 
1371.000000	95.719126 
1370.000000	95.735765 
1369.000000	95.749535 
1368.000000	95.760705 
1367.000000	95.771607 
1366.000000	95.782568 
1365.000000	95.792202 
1364.000000	95.798515 
1363.000000	95.800887 
1362.000000	95.802327 
1361.000000	95.807374 
1360.000000	95.817456 
1359.000000	95.830120 
1358.000000	95.841609 
1357.000000	95.850062 
1356.000000	95.856543 
1355.000000	95.862812 
1354.000000	95.869414 
1353.000000	95.877116 
1352.000000	95.885948 
1351.000000	95.896094 
1350.000000	95.907222 
1349.000000	95.916340 
1348.000000	95.920988 
1347.000000	95.921983 
1346.000000	95.923111 
1345.000000	95.927412 
1344.000000	95.934409 
1343.000000	95.941592 
1342.000000	95.947344 
1341.000000	95.951126 
1340.000000	95.952232 
1339.000000	95.950550 
1338.000000	95.948008 
1337.000000	95.947751 
1336.000000	95.950752 
1335.000000	95.954417 
1334.000000	95.956098 
1333.000000	95.956637 
1332.000000	95.958711 
1331.000000	95.963249 
1330.000000	95.968474 
1329.000000	95.972184 
1328.000000	95.973556 
1327.000000	95.973619 
1326.000000	95.973877 
1325.000000	95.974506 
1324.000000	95.974645 
1323.000000	95.972811 
1322.000000	95.968387 
1321.000000	95.963187 
1320.000000	95.960449 
1319.000000	95.961747 
1318.000000	95.965919 
1317.000000	95.971046 
1316.000000	95.975412 
1315.000000	95.976729 
1314.000000	95.973228 
1313.000000	95.966708 
1312.000000	95.961747 
1311.000000	95.960772 
1310.000000	95.961878 
1309.000000	95.962748 
1308.000000	95.963782 
1307.000000	95.966491 
1306.000000	95.970300 
1305.000000	95.972994 
1304.000000	95.973947 
1303.000000	95.974074 
1302.000000	95.973893 
1301.000000	95.973262 
1300.000000	95.972582 
1299.000000	95.972525 
1298.000000	95.972731 
1297.000000	95.971794 
1296.000000	95.968794 
1295.000000	95.964848 
1294.000000	95.962690 
1293.000000	95.964557 
1292.000000	95.969801 
1291.000000	95.974739 
1290.000000	95.975996 
1289.000000	95.973699 
1288.000000	95.970250 
1287.000000	95.966607 
1286.000000	95.961775 
1285.000000	95.956132 
1284.000000	95.952595 
1283.000000	95.952937 
1282.000000	95.954948 
1281.000000	95.954731 
1280.000000	95.951134 
1279.000000	95.946831 
1278.000000	95.945777 
1277.000000	95.950245 
1276.000000	95.959141 
1275.000000	95.968601 
1274.000000	95.974921 
1273.000000	95.977478 
1272.000000	95.978012 
1271.000000	95.977170 
1270.000000	95.973687 
1269.000000	95.967354 
1268.000000	95.960687 
1267.000000	95.956002 
1266.000000	95.952741 
1265.000000	95.949809 
1264.000000	95.948598 
1263.000000	95.951079 
1262.000000	95.956258 
1261.000000	95.961052 
1260.000000	95.964640 
1259.000000	95.969349 
1258.000000	95.976376 
1257.000000	95.982780 
1256.000000	95.984104 
1255.000000	95.979932 
1254.000000	95.975776 
1253.000000	95.977704 
1252.000000	95.984676 
1251.000000	95.988510 
1250.000000	95.983201 
1249.000000	95.972367 
1248.000000	95.964942 
1247.000000	95.964551 
1246.000000	95.966826 
1245.000000	95.967168 
1244.000000	95.966331 
1243.000000	95.966896 
1242.000000	95.968670 
1241.000000	95.970362 
1240.000000	95.972479 
1239.000000	95.975485 
1238.000000	95.977591 
1237.000000	95.977263 
1236.000000	95.975765 
1235.000000	95.974377 
1234.000000	95.971079 
1233.000000	95.963177 
1232.000000	95.951707 
1231.000000	95.940022 
1230.000000	95.928974 
1229.000000	95.916264 
1228.000000	95.899554 
1227.000000	95.877477 
1226.000000	95.848355 
1225.000000	95.810831 
1224.000000	95.765930 
1223.000000	95.716538 
1222.000000	95.664646 
1221.000000	95.610144 
1220.000000	95.551651 
1219.000000	95.487150 
1218.000000	95.414814 
1217.000000	95.335040 
1216.000000	95.250541 
1215.000000	95.162918 
1214.000000	95.071102 
1213.000000	94.975560 
1212.000000	94.881119 
1211.000000	94.790950 
1210.000000	94.699603 
1209.000000	94.597856 
1208.000000	94.484457 
1207.000000	94.368045 
1206.000000	94.256657 
1205.000000	94.149665 
1204.000000	94.041347 
1203.000000	93.927996 
1202.000000	93.809673 
1201.000000	93.688324 
1200.000000	93.566351 
1199.000000	93.445182 
1198.000000	93.324027 
1197.000000	93.201581 
1196.000000	93.078459 
1195.000000	92.955774 
1194.000000	92.832482 
1193.000000	92.707081 
1192.000000	92.580743 
1191.000000	92.455046 
1190.000000	92.327848 
1189.000000	92.195525 
1188.000000	92.058152 
1187.000000	91.918144 
1186.000000	91.775256 
1185.000000	91.627932 
1184.000000	91.478134 
1183.000000	91.329056 
1182.000000	91.179035 
1181.000000	91.023754 
1180.000000	90.863699 
1179.000000	90.702911 
1178.000000	90.540648 
1177.000000	90.371322 
1176.000000	90.192913 
1175.000000	90.008641 
1174.000000	89.820031 
1173.000000	89.625405 
1172.000000	89.425931 
1171.000000	89.225683 
1170.000000	89.024847 
1169.000000	88.820592 
1168.000000	88.616073 
1167.000000	88.421641 
1166.000000	88.247296 
1165.000000	88.102509 
1164.000000	88.002850 
1163.000000	87.964732 
1162.000000	87.989321 
1161.000000	88.058467 
1160.000000	88.146930 
1159.000000	88.230578 
1158.000000	88.284780 
1157.000000	88.288936 
1156.000000	88.237879 
1155.000000	88.142180 
1154.000000	88.015538 
1153.000000	87.867803 
1152.000000	87.709229 
1151.000000	87.550474 
1150.000000	87.394808 
1149.000000	87.238759 
1148.000000	87.082537 
1147.000000	86.930728 
1146.000000	86.781299 
1145.000000	86.624827 
1144.000000	86.457939 
1143.000000	86.287755 
1142.000000	86.120028 
1141.000000	85.952718 
1140.000000	85.784286 
1139.000000	85.617705 
1138.000000	85.452434 
1137.000000	85.282367 
1136.000000	85.105551 
1135.000000	84.926804 
1134.000000	84.748011 
1133.000000	84.565564 
1132.000000	84.379618 
1131.000000	84.195129 
1130.000000	84.011197 
1129.000000	83.820486 
1128.000000	83.621850 
1127.000000	83.422250 
1126.000000	83.223797 
1125.000000	83.020929 
1124.000000	82.813095 
1123.000000	82.607386 
1122.000000	82.405235 
1121.000000	82.199788 
1120.000000	81.990561 
1119.000000	81.787312 
1118.000000	81.594888 
1117.000000	81.407809 
1116.000000	81.223822 
1115.000000	81.049130 
1114.000000	80.886055 
1113.000000	80.729107 
1112.000000	80.576422 
1111.000000	80.430504 
1110.000000	80.285330 
1109.000000	80.129149 
1108.000000	79.962459 
1107.000000	79.796658 
1106.000000	79.633360 
1105.000000	79.462738 
1104.000000	79.284150 
1103.000000	79.109146 
1102.000000	78.940055 
1101.000000	78.766280 
1100.000000	78.585545 
1099.000000	78.410081 
1098.000000	78.246861 
1097.000000	78.088696 
1096.000000	77.929879 
1095.000000	77.771959 
1094.000000	77.611139 
1093.000000	77.439906 
1092.000000	77.265425 
1091.000000	77.106340 
1090.000000	76.966670 
1089.000000	76.831972 
1088.000000	76.694224 
1087.000000	76.559527 
1086.000000	76.428511 
1085.000000	76.291898 
1084.000000	76.149981 
1083.000000	76.014328 
1082.000000	75.885534 
1081.000000	75.751165 
1080.000000	75.609655 
1079.000000	75.473051 
1078.000000	75.341410 
1077.000000	75.197863 
1076.000000	75.034156 
1075.000000	74.857698 
1074.000000	74.668811 
1073.000000	74.455150 
1072.000000	74.213724 
1071.000000	73.954189 
1070.000000	73.674999 
1069.000000	73.360839 
1068.000000	73.010094 
1067.000000	72.641362 
1066.000000	72.267082 
1065.000000	71.884532 
1064.000000	71.497993 
1063.000000	71.122361 
1062.000000	70.756819 
1061.000000	70.381672 
1060.000000	69.989824 
1059.000000	69.595725 
1058.000000	69.206215 
1057.000000	68.809411 
1056.000000	68.400045 
1055.000000	67.987808 
1054.000000	67.572005 
1053.000000	67.136207 
1052.000000	66.678485 
1051.000000	66.217568 
1050.000000	65.757279 
1049.000000	65.278013 
1048.000000	64.775963 
1047.000000	64.274944 
1046.000000	63.787964 
1045.000000	63.301388 
1044.000000	62.805660 
1043.000000	62.308634 
1042.000000	61.810515 
1041.000000	61.298500 
1040.000000	60.776979 
1039.000000	60.271906 
1038.000000	59.794124 
1037.000000	59.328503 
1036.000000	58.868141 
1035.000000	58.427293 
1034.000000	58.011608 
1033.000000	57.609297 
1032.000000	57.221087 
1031.000000	56.864912 
1030.000000	56.541689 
1029.000000	56.231024 
1028.000000	55.929580 
1027.000000	55.657829 
1026.000000	55.419425 
1025.000000	55.190590 
1024.000000	54.959514 
1023.000000	54.739665 
1022.000000	54.534005 
1021.000000	54.323665 
1020.000000	54.102891 
1019.000000	53.888619 
1018.000000	53.684906 
1017.000000	53.474154 
1016.000000	53.253021 
1015.000000	53.040265 
1014.000000	52.839807 
1013.000000	52.633502 
1012.000000	52.419415 
1011.000000	52.218913 
1010.000000	52.036638 
1009.000000	51.852748 
1008.000000	51.664751 
1007.000000	51.497637 
1006.000000	51.361744 
1005.000000	51.239508 
1004.000000	51.123883 
1003.000000	51.030422 
1002.000000	50.960820 
1001.000000	50.894861 
1000.000000	50.829853 
999.000000	 50.788344 
998.000000	 50.775024 
997.000000	 50.765532 
996.000000	 50.749830 
995.000000	 50.747698 
994.000000	 50.769081 
993.000000	 50.797764 
992.000000	 50.825891 
991.000000	 50.866382 
990.000000	 50.919708 
989.000000	 50.967255 
988.000000	 51.009504 
987.000000	 51.072422 
986.000000	 51.164473 
985.000000	 51.265559 
984.000000	 51.369122 
983.000000	 51.495904 
982.000000	 51.653881 
981.000000	 51.824096 
980.000000	 51.999163 
979.000000	 52.197559 
978.000000	 52.426213 
977.000000	 52.666533 
976.000000	 52.910894 
975.000000	 53.176728 
974.000000	 53.471034 
973.000000	 53.776380 
972.000000	 54.084865 
971.000000	 54.411622 
970.000000	 54.761917 
969.000000	 55.118379 
968.000000	 55.472608 
967.000000	 55.837387 
966.000000	 56.217147 
965.000000	 56.598401 
964.000000	 56.978489 
963.000000	 57.371096 
962.000000	 57.774141 
961.000000	 58.164945 
960.000000	 58.536754 
959.000000	 58.908568 
958.000000	 59.290135 
957.000000	 59.668199 
956.000000	 60.035228 
955.000000	 60.400174 
954.000000	 60.762831 
953.000000	 61.108739 
952.000000	 61.437106 
951.000000	 61.763100 
950.000000	 62.085841 
949.000000	 62.385210 
948.000000	 62.656619 
947.000000	 62.917108 
946.000000	 63.170868 
945.000000	 63.401149 
944.000000	 63.603996 
943.000000	 63.798125 
942.000000	 63.993044 
941.000000	 64.178097 
940.000000	 64.351132 
939.000000	 64.526519 
938.000000	 64.706347 
937.000000	 64.874773 
936.000000	 65.029630 
935.000000	 65.188938 
934.000000	 65.358153 
933.000000	 65.522655 
932.000000	 65.680901 
931.000000	 65.851906 
930.000000	 66.039423 
929.000000	 66.220740 
928.000000	 66.382505 
927.000000	 66.537478 
926.000000	 66.695309 
925.000000	 66.846622 
924.000000	 66.986726 
923.000000	 67.125253 
922.000000	 67.261096 
921.000000	 67.376745 
920.000000	 67.468662 
919.000000	 67.555482 
918.000000	 67.646005 
917.000000	 67.727312 
916.000000	 67.795171 
915.000000	 67.868575 
914.000000	 67.963798 
913.000000	 68.081525 
912.000000	 68.228690 
911.000000	 68.423896 
910.000000	 68.670520 
909.000000	 68.952296 
908.000000	 69.264947 
907.000000	 69.624020 
906.000000	 70.032896 
905.000000	 70.471785 
904.000000	 70.926822 
903.000000	 71.402704 
902.000000	 71.899761 
901.000000	 72.406488 
900.000000	 72.920623 
899.000000	 73.449820 
898.000000	 73.986256 
897.000000	 74.507649 
896.000000	 75.007014 
895.000000	 75.494627 
894.000000	 75.969411 
893.000000	 76.417665 
892.000000	 76.842018 
891.000000	 77.261164 
890.000000	 77.676841 
889.000000	 78.070333 
888.000000	 78.435632 
887.000000	 78.786592 
886.000000	 79.127208 
885.000000	 79.445294 
884.000000	 79.741376 
883.000000	 80.033332 
882.000000	 80.325555 
881.000000	 80.604362 
880.000000	 80.872085 
879.000000	 81.154175 
878.000000	 81.462499 
877.000000	 81.782109 
876.000000	 82.104084 
875.000000	 82.440537 
874.000000	 82.798005 
873.000000	 83.167932 
872.000000	 83.552904 
871.000000	 83.970121 
870.000000	 84.417638 
869.000000	 84.866399 
868.000000	 85.296263 
867.000000	 85.713549 
866.000000	 86.125351 
865.000000	 86.523813 
864.000000	 86.906008 
863.000000	 87.284131 
862.000000	 87.662974 
861.000000	 88.027705 
860.000000	 88.366055 
859.000000	 88.685565 
858.000000	 88.999261 
857.000000	 89.308960 
856.000000	 89.609925 
855.000000	 89.897568 
854.000000	 90.164501 
853.000000	 90.405588 
852.000000	 90.629233 
851.000000	 90.849100 
850.000000	 91.063489 
849.000000	 91.258998 
848.000000	 91.433732 
847.000000	 91.597116 
846.000000	 91.746144 
845.000000	 91.863541 
844.000000	 91.943323 
843.000000	 91.998245 
842.000000	 92.037656 
841.000000	 92.056135 
840.000000	 92.046984 
839.000000	 92.008456 
838.000000	 91.935863 
837.000000	 91.829383 
836.000000	 91.712711 
835.000000	 91.620821 
834.000000	 91.562161 
833.000000	 91.514035 
832.000000	 91.461609 
831.000000	 91.418745 
830.000000	 91.402940 
829.000000	 91.414597 
828.000000	 91.453224 
827.000000	 91.529601 
826.000000	 91.645258 
825.000000	 91.780622 
824.000000	 91.918860 
823.000000	 92.061757 
822.000000	 92.210976 
821.000000	 92.355780 
820.000000	 92.488184 
819.000000	 92.608028 
818.000000	 92.705925 
817.000000	 92.761330 
816.000000	 92.764312 
815.000000	 92.722532 
814.000000	 92.640599 
813.000000	 92.507186 
812.000000	 92.306496 
811.000000	 92.025333 
810.000000	 91.643891 
809.000000	 91.138758 
808.000000	 90.505524 
807.000000	 89.765981 
806.000000	 88.947351 
805.000000	 88.069991 
804.000000	 87.162125 
803.000000	 86.266858 
802.000000	 85.423569 
801.000000	 84.660228 
800.000000	 84.011239 
799.000000	 83.518038 
798.000000	 83.198887 
797.000000	 83.037858 
796.000000	 83.009505 
795.000000	 83.089636 
794.000000	 83.238537 
793.000000	 83.406693 
792.000000	 83.569632 
791.000000	 83.732897 
790.000000	 83.895399 
789.000000	 84.032260 
788.000000	 84.118906 
787.000000	 84.145408 
786.000000	 84.099666 
785.000000	 83.962503 
784.000000	 83.731051 
783.000000	 83.429008 
782.000000	 83.089080 
781.000000	 82.745535 
780.000000	 82.444823 
779.000000	 82.234353 
778.000000	 82.131390 
777.000000	 82.125363 
776.000000	 82.212787 
775.000000	 82.400942 
774.000000	 82.673430 
773.000000	 82.984562 
772.000000	 83.297077 
771.000000	 83.599196 
770.000000	 83.881017 
769.000000	 84.124801 
768.000000	 84.325644 
767.000000	 84.493643 
766.000000	 84.628687 
765.000000	 84.720372 
764.000000	 84.779093 
763.000000	 84.838501 
762.000000	 84.918341 
761.000000	 85.010644 
760.000000	 85.108794 
759.000000	 85.221303 
758.000000	 85.348686 
757.000000	 85.476490 
756.000000	 85.602338 
755.000000	 85.743023 
754.000000	 85.904075 
753.000000	 86.067512 
752.000000	 86.219223 
751.000000	 86.364530 
750.000000	 86.509081 
749.000000	 86.649298 
748.000000	 86.789559 
747.000000	 86.944363 
746.000000	 87.116203 
745.000000	 87.294965 
744.000000	 87.484930 
743.000000	 87.707073 
742.000000	 87.968141 
741.000000	 88.252694 
740.000000	 88.550129 
739.000000	 88.861545 
738.000000	 89.174607 
737.000000	 89.461490 
736.000000	 89.711281 
735.000000	 89.939379 
734.000000	 90.158010 
733.000000	 90.362055 
732.000000	 90.548515 
731.000000	 90.722849 
730.000000	 90.878525 
729.000000	 90.996280 
728.000000	 91.076777 
727.000000	 91.149540 
726.000000	 91.237782 
725.000000	 91.339948 
724.000000	 91.452012 
723.000000	 91.579405 
722.000000	 91.718832 
721.000000	 91.856498 
720.000000	 91.995702 
719.000000	 92.157669 
718.000000	 92.343913 
717.000000	 92.526568 
716.000000	 92.682072 
715.000000	 92.809913 
714.000000	 92.915231 
713.000000	 92.998488 
712.000000	 93.071603 
711.000000	 93.156377 
710.000000	 93.254301 
709.000000	 93.342401 
708.000000	 93.403292 
707.000000	 93.438021 
706.000000	 93.442401 
705.000000	 93.401956 
704.000000	 93.319284 
703.000000	 93.210058 
702.000000	 93.063407 
701.000000	 92.835984 
700.000000	 92.495625 
699.000000	 92.052496 
698.000000	 91.543088 
697.000000	 91.021521 
696.000000	 90.574062 
695.000000	 90.291874 
694.000000	 90.210439 
693.000000	 90.294627 
692.000000	 90.487206 
691.000000	 90.749450 
690.000000	 91.047273 
689.000000	 91.341867 
688.000000	 91.613656 
687.000000	 91.862898 
686.000000	 92.080898 
685.000000	 92.252235 
684.000000	 92.390139 
683.000000	 92.533761 
682.000000	 92.698898 
681.000000	 92.866672 
680.000000	 93.024265 
679.000000	 93.183594 
678.000000	 93.346544 
677.000000	 93.494519 
676.000000	 93.637899 
675.000000	 93.811186 
674.000000	 94.005434 
673.000000	 94.170644 
672.000000	 94.298837 
671.000000	 94.466246 
670.000000	 94.757851 
669.000000	 95.179258 
668.000000	 95.529590 
667.000000	 95.581932 
666.000000	 95.459221 
665.000000	 95.360484 
664.000000	 95.322464 
663.000000	 95.353456 
662.000000	 95.453613 
661.000000	 95.582241 
660.000000	 95.702361 
659.000000	 95.821068 
658.000000	 95.943007 
657.000000	 96.023969 
656.000000	 96.036372 
655.000000	 96.017075 
654.000000	 96.007098 
653.000000	 95.993007 
652.000000	 95.953803 
651.000000	 95.915154 
650.000000	 95.909118 

