4000.000000	96.757091 
3999.000000	96.755533 
3998.000000	96.752231 
3997.000000	96.748322 
3996.000000	96.745118 
3995.000000	96.743361 
3994.000000	96.743084 
3993.000000	96.743608 
3992.000000	96.743819 
3991.000000	96.742974 
3990.000000	96.741371 
3989.000000	96.739940 
3988.000000	96.739168 
3987.000000	96.738976 
3986.000000	96.739388 
3985.000000	96.740574 
3984.000000	96.742203 
3983.000000	96.743316 
3982.000000	96.743428 
3981.000000	96.743147 
3980.000000	96.743215 
3979.000000	96.743473 
3978.000000	96.743294 
3977.000000	96.742706 
3976.000000	96.742405 
3975.000000	96.742653 
3974.000000	96.742888 
3973.000000	96.742494 
3972.000000	96.741487 
3971.000000	96.740396 
3970.000000	96.739787 
3969.000000	96.740077 
3968.000000	96.741296 
3967.000000	96.742908 
3966.000000	96.744144 
3965.000000	96.744516 
3964.000000	96.744035 
3963.000000	96.743072 
3962.000000	96.742148 
3961.000000	96.741647 
3960.000000	96.741530 
3959.000000	96.741494 
3958.000000	96.741370 
3957.000000	96.741318 
3956.000000	96.741476 
3955.000000	96.741689 
3954.000000	96.741712 
3953.000000	96.741473 
3952.000000	96.741077 
3951.000000	96.740631 
3950.000000	96.740188 
3949.000000	96.739787 
3948.000000	96.739477 
3947.000000	96.739290 
3946.000000	96.739191 
3945.000000	96.739072 
3944.000000	96.738799 
3943.000000	96.738309 
3942.000000	96.737677 
3941.000000	96.737104 
3940.000000	96.736718 
3939.000000	96.736464 
3938.000000	96.736220 
3937.000000	96.736021 
3936.000000	96.735883 
3935.000000	96.735488 
3934.000000	96.734436 
3933.000000	96.732771 
3932.000000	96.731130 
3931.000000	96.729988 
3930.000000	96.729269 
3929.000000	96.728846 
3928.000000	96.728829 
3927.000000	96.729075 
3926.000000	96.728747 
3925.000000	96.727225 
3924.000000	96.725168 
3923.000000	96.723604 
3922.000000	96.722517 
3921.000000	96.721321 
3920.000000	96.720012 
3919.000000	96.719168 
3918.000000	96.718700 
3917.000000	96.717882 
3916.000000	96.716620 
3915.000000	96.715666 
3914.000000	96.715335 
3913.000000	96.715202 
3912.000000	96.714913 
3911.000000	96.714788 
3910.000000	96.714892 
3909.000000	96.714930 
3908.000000	96.714592 
3907.000000	96.713710 
3906.000000	96.711850 
3905.000000	96.708488 
3904.000000	96.704198 
3903.000000	96.700603 
3902.000000	96.698746 
3901.000000	96.698351 
3900.000000	96.698573 
3899.000000	96.699076 
3898.000000	96.699906 
3897.000000	96.700679 
3896.000000	96.700827 
3895.000000	96.700450 
3894.000000	96.700134 
3893.000000	96.700275 
3892.000000	96.700397 
3891.000000	96.699985 
3890.000000	96.699277 
3889.000000	96.698943 
3888.000000	96.699046 
3887.000000	96.698820 
3886.000000	96.698198 
3885.000000	96.698309 
3884.000000	96.699449 
3883.000000	96.700336 
3882.000000	96.699780 
3881.000000	96.698335 
3880.000000	96.697887 
3879.000000	96.699155 
3878.000000	96.701224 
3877.000000	96.703137 
3876.000000	96.704596 
3875.000000	96.705615 
3874.000000	96.706575 
3873.000000	96.707974 
3872.000000	96.709503 
3871.000000	96.710119 
3870.000000	96.709910 
3869.000000	96.710612 
3868.000000	96.712986 
3867.000000	96.715853 
3866.000000	96.717491 
3865.000000	96.717917 
3864.000000	96.718773 
3863.000000	96.720728 
3862.000000	96.722559 
3861.000000	96.723702 
3860.000000	96.724855 
3859.000000	96.726671 
3858.000000	96.728913 
3857.000000	96.731252 
3856.000000	96.733447 
3855.000000	96.734343 
3854.000000	96.733357 
3853.000000	96.732539 
3852.000000	96.732828 
3851.000000	96.732892 
3850.000000	96.732086 
3849.000000	96.731045 
3848.000000	96.730707 
3847.000000	96.731235 
3846.000000	96.731874 
3845.000000	96.731989 
3844.000000	96.731577 
3843.000000	96.731001 
3842.000000	96.730545 
3841.000000	96.730254 
3840.000000	96.729960 
3839.000000	96.729620 
3838.000000	96.729214 
3837.000000	96.728665 
3836.000000	96.727984 
3835.000000	96.727251 
3834.000000	96.726496 
3833.000000	96.725713 
3832.000000	96.724915 
3831.000000	96.724108 
3830.000000	96.723287 
3829.000000	96.722449 
3828.000000	96.721587 
3827.000000	96.720694 
3826.000000	96.719766 
3825.000000	96.718810 
3824.000000	96.717841 
3823.000000	96.716867 
3822.000000	96.715883 
3821.000000	96.714895 
3820.000000	96.713924 
3819.000000	96.712982 
3818.000000	96.712065 
3817.000000	96.711165 
3816.000000	96.710288 
3815.000000	96.709451 
3814.000000	96.708653 
3813.000000	96.707880 
3812.000000	96.707129 
3811.000000	96.706417 
3810.000000	96.705758 
3809.000000	96.705146 
3808.000000	96.704560 
3807.000000	96.703983 
3806.000000	96.703417 
3805.000000	96.702877 
3804.000000	96.702368 
3803.000000	96.701897 
3802.000000	96.701469 
3801.000000	96.701099 
3800.000000	96.700785 
3799.000000	96.700503 
3798.000000	96.700234 
3797.000000	96.699985 
3796.000000	96.699773 
3795.000000	96.699600 
3794.000000	96.699445 
3793.000000	96.699287 
3792.000000	96.699118 
3791.000000	96.698933 
3790.000000	96.698717 
3789.000000	96.698458 
3788.000000	96.698158 
3787.000000	96.697822 
3786.000000	96.697464 
3785.000000	96.697099 
3784.000000	96.696735 
3783.000000	96.696366 
3782.000000	96.695972 
3781.000000	96.695547 
3780.000000	96.695102 
3779.000000	96.694653 
3778.000000	96.694189 
3777.000000	96.693683 
3776.000000	96.693114 
3775.000000	96.692486 
3774.000000	96.691811 
3773.000000	96.691098 
3772.000000	96.690348 
3771.000000	96.689571 
3770.000000	96.688778 
3769.000000	96.687975 
3768.000000	96.687150 
3767.000000	96.686294 
3766.000000	96.685411 
3765.000000	96.684519 
3764.000000	96.683632 
3763.000000	96.682746 
3762.000000	96.681847 
3761.000000	96.680925 
3760.000000	96.679981 
3759.000000	96.679015 
3758.000000	96.678017 
3757.000000	96.676985 
3756.000000	96.675929 
3755.000000	96.674858 
3754.000000	96.673753 
3753.000000	96.672550 
3752.000000	96.671197 
3751.000000	96.669924 
3750.000000	96.668751 
3749.000000	96.667095 
3748.000000	96.665086 
3747.000000	96.663795 
3746.000000	96.663160 
3745.000000	96.661901 
3744.000000	96.661177 
3743.000000	96.662166 
3742.000000	96.662264 
3741.000000	96.658991 
3740.000000	96.653400 
3739.000000	96.649979 
3738.000000	96.650691 
3737.000000	96.651024 
3736.000000	96.646267 
3735.000000	96.639406 
3734.000000	96.636507 
3733.000000	96.637209 
3732.000000	96.637745 
3731.000000	96.637494 
3730.000000	96.637698 
3729.000000	96.637625 
3728.000000	96.634897 
3727.000000	96.629712 
3726.000000	96.626644 
3725.000000	96.628127 
3724.000000	96.630884 
3723.000000	96.631927 
3722.000000	96.633099 
3721.000000	96.636582 
3720.000000	96.640011 
3719.000000	96.640371 
3718.000000	96.636601 
3717.000000	96.630743 
3716.000000	96.625927 
3715.000000	96.621490 
3714.000000	96.613707 
3713.000000	96.601661 
3712.000000	96.589895 
3711.000000	96.582454 
3710.000000	96.576926 
3709.000000	96.569303 
3708.000000	96.558655 
3707.000000	96.546080 
3706.000000	96.534167 
3705.000000	96.524953 
3704.000000	96.517856 
3703.000000	96.509777 
3702.000000	96.497666 
3701.000000	96.481189 
3700.000000	96.462626 
3699.000000	96.445175 
3698.000000	96.429988 
3697.000000	96.417034 
3696.000000	96.408572 
3695.000000	96.405685 
3694.000000	96.404201 
3693.000000	96.400346 
3692.000000	96.395675 
3691.000000	96.393004 
3690.000000	96.390209 
3689.000000	96.385198 
3688.000000	96.380112 
3687.000000	96.376180 
3686.000000	96.371465 
3685.000000	96.362352 
3684.000000	96.349082 
3683.000000	96.338117 
3682.000000	96.333350 
3681.000000	96.327454 
3680.000000	96.311891 
3679.000000	96.289351 
3678.000000	96.268006 
3677.000000	96.243882 
3676.000000	96.211395 
3675.000000	96.183891 
3674.000000	96.170762 
3673.000000	96.162880 
3672.000000	96.146896 
3671.000000	96.119417 
3670.000000	96.094374 
3669.000000	96.084175 
3668.000000	96.079015 
3667.000000	96.065580 
3666.000000	96.045611 
3665.000000	96.027535 
3664.000000	96.014563 
3663.000000	96.002960 
3662.000000	95.986640 
3661.000000	95.962984 
3660.000000	95.935433 
3659.000000	95.908382 
3658.000000	95.883082 
3657.000000	95.856883 
3656.000000	95.830073 
3655.000000	95.805340 
3654.000000	95.782106 
3653.000000	95.757112 
3652.000000	95.726514 
3651.000000	95.691130 
3650.000000	95.660055 
3649.000000	95.640520 
3648.000000	95.628985 
3647.000000	95.620908 
3646.000000	95.616978 
3645.000000	95.617028 
3644.000000	95.617417 
3643.000000	95.615482 
3642.000000	95.611299 
3641.000000	95.605744 
3640.000000	95.597147 
3639.000000	95.582738 
3638.000000	95.564253 
3637.000000	95.546369 
3636.000000	95.529891 
3635.000000	95.509372 
3634.000000	95.482421 
3633.000000	95.455317 
3632.000000	95.434767 
3631.000000	95.416649 
3630.000000	95.391332 
3629.000000	95.367000 
3628.000000	95.359971 
3627.000000	95.363588 
3626.000000	95.362213 
3625.000000	95.354897 
3624.000000	95.350909 
3623.000000	95.357072 
3622.000000	95.369646 
3621.000000	95.377409 
3620.000000	95.374735 
3619.000000	95.368187 
3618.000000	95.365386 
3617.000000	95.367386 
3616.000000	95.374231 
3615.000000	95.386015 
3614.000000	95.401649 
3613.000000	95.419815 
3612.000000	95.437752 
3611.000000	95.450197 
3610.000000	95.454025 
3609.000000	95.452340 
3608.000000	95.452154 
3607.000000	95.457155 
3606.000000	95.465218 
3605.000000	95.474666 
3604.000000	95.486991 
3603.000000	95.502787 
3602.000000	95.518610 
3601.000000	95.528974 
3600.000000	95.532317 
3599.000000	95.531185 
3598.000000	95.528879 
3597.000000	95.527893 
3596.000000	95.530049 
3595.000000	95.534053 
3594.000000	95.537602 
3593.000000	95.539852 
3592.000000	95.541184 
3591.000000	95.541842 
3590.000000	95.540590 
3589.000000	95.535938 
3588.000000	95.530620 
3587.000000	95.530836 
3586.000000	95.538501 
3585.000000	95.550305 
3584.000000	95.563598 
3583.000000	95.577321 
3582.000000	95.589860 
3581.000000	95.598399 
3580.000000	95.601063 
3579.000000	95.598607 
3578.000000	95.593963 
3577.000000	95.590607 
3576.000000	95.590448 
3575.000000	95.593041 
3574.000000	95.596167 
3573.000000	95.597978 
3572.000000	95.597638 
3571.000000	95.595049 
3570.000000	95.589819 
3569.000000	95.581408 
3568.000000	95.571896 
3567.000000	95.566743 
3566.000000	95.568626 
3565.000000	95.574165 
3564.000000	95.578932 
3563.000000	95.581701 
3562.000000	95.583437 
3561.000000	95.585232 
3560.000000	95.587364 
3559.000000	95.589490 
3558.000000	95.590901 
3557.000000	95.591285 
3556.000000	95.591126 
3555.000000	95.591159 
3554.000000	95.591220 
3553.000000	95.590469 
3552.000000	95.588724 
3551.000000	95.586522 
3550.000000	95.584174 
3549.000000	95.581682 
3548.000000	95.579382 
3547.000000	95.577664 
3546.000000	95.575924 
3545.000000	95.573068 
3544.000000	95.569625 
3543.000000	95.567898 
3542.000000	95.569344 
3541.000000	95.573263 
3540.000000	95.577869 
3539.000000	95.581629 
3538.000000	95.583458 
3537.000000	95.582834 
3536.000000	95.580540 
3535.000000	95.578069 
3534.000000	95.576394 
3533.000000	95.575492 
3532.000000	95.575455 
3531.000000	95.576849 
3530.000000	95.579388 
3529.000000	95.581172 
3528.000000	95.580367 
3527.000000	95.577326 
3526.000000	95.574097 
3525.000000	95.572384 
3524.000000	95.572868 
3523.000000	95.575827 
3522.000000	95.581015 
3521.000000	95.587167 
3520.000000	95.592425 
3519.000000	95.595594 
3518.000000	95.596900 
3517.000000	95.597259 
3516.000000	95.597291 
3515.000000	95.597151 
3514.000000	95.597225 
3513.000000	95.597942 
3512.000000	95.598827 
3511.000000	95.598648 
3510.000000	95.596946 
3509.000000	95.594835 
3508.000000	95.593873 
3507.000000	95.594409 
3506.000000	95.595355 
3505.000000	95.595284 
3504.000000	95.593658 
3503.000000	95.591017 
3502.000000	95.588362 
3501.000000	95.586582 
3500.000000	95.586226 
3499.000000	95.587243 
3498.000000	95.588851 
3497.000000	95.589954 
3496.000000	95.589606 
3495.000000	95.587290 
3494.000000	95.583434 
3493.000000	95.579685 
3492.000000	95.577803 
3491.000000	95.578018 
3490.000000	95.579038 
3489.000000	95.579630 
3488.000000	95.579582 
3487.000000	95.578918 
3486.000000	95.577159 
3485.000000	95.574188 
3484.000000	95.571099 
3483.000000	95.569097 
3482.000000	95.567972 
3481.000000	95.566566 
3480.000000	95.564534 
3479.000000	95.562615 
3478.000000	95.561114 
3477.000000	95.559098 
3476.000000	95.555487 
3475.000000	95.550525 
3474.000000	95.545743 
3473.000000	95.542714 
3472.000000	95.541963 
3471.000000	95.542687 
3470.000000	95.543410 
3469.000000	95.543163 
3468.000000	95.542183 
3467.000000	95.541525 
3466.000000	95.541790 
3465.000000	95.542188 
3464.000000	95.541109 
3463.000000	95.537657 
3462.000000	95.532523 
3461.000000	95.527223 
3460.000000	95.522579 
3459.000000	95.518119 
3458.000000	95.512961 
3457.000000	95.506870 
3456.000000	95.500619 
3455.000000	95.495416 
3454.000000	95.492178 
3453.000000	95.490865 
3452.000000	95.490688 
3451.000000	95.490680 
3450.000000	95.489785 
3449.000000	95.486756 
3448.000000	95.480702 
3447.000000	95.472188 
3446.000000	95.463080 
3445.000000	95.455200 
3444.000000	95.449380 
3443.000000	95.445584 
3442.000000	95.443220 
3441.000000	95.441206 
3440.000000	95.438351 
3439.000000	95.434105 
3438.000000	95.428938 
3437.000000	95.423820 
3436.000000	95.419723 
3435.000000	95.417484 
3434.000000	95.417571 
3433.000000	95.419347 
3432.000000	95.421208 
3431.000000	95.421822 
3430.000000	95.420956 
3429.000000	95.419119 
3428.000000	95.416517 
3427.000000	95.412950 
3426.000000	95.408827 
3425.000000	95.405859 
3424.000000	95.405796 
3423.000000	95.408192 
3422.000000	95.410258 
3421.000000	95.409693 
3420.000000	95.407104 
3419.000000	95.404839 
3418.000000	95.404241 
3417.000000	95.405139 
3416.000000	95.407234 
3415.000000	95.410359 
3414.000000	95.413327 
3413.000000	95.414158 
3412.000000	95.412274 
3411.000000	95.409618 
3410.000000	95.408896 
3409.000000	95.411193 
3408.000000	95.415545 
3407.000000	95.420039 
3406.000000	95.423041 
3405.000000	95.423956 
3404.000000	95.423353 
3403.000000	95.422194 
3402.000000	95.420899 
3401.000000	95.419372 
3400.000000	95.417885 
3399.000000	95.417209 
3398.000000	95.417706 
3397.000000	95.418833 
3396.000000	95.419840 
3395.000000	95.420645 
3394.000000	95.421564 
3393.000000	95.422461 
3392.000000	95.422649 
3391.000000	95.421711 
3390.000000	95.420165 
3389.000000	95.419202 
3388.000000	95.419813 
3387.000000	95.422073 
3386.000000	95.424958 
3385.000000	95.426816 
3384.000000	95.426446 
3383.000000	95.424097 
3382.000000	95.421560 
3381.000000	95.420744 
3380.000000	95.421960 
3379.000000	95.423906 
3378.000000	95.425524 
3377.000000	95.427417 
3376.000000	95.430636 
3375.000000	95.434581 
3374.000000	95.437149 
3373.000000	95.437151 
3372.000000	95.435703 
3371.000000	95.434949 
3370.000000	95.436046 
3369.000000	95.438766 
3368.000000	95.442247 
3367.000000	95.445434 
3366.000000	95.447204 
3365.000000	95.446963 
3364.000000	95.445230 
3363.000000	95.443269 
3362.000000	95.442116 
3361.000000	95.442167 
3360.000000	95.443550 
3359.000000	95.446453 
3358.000000	95.450968 
3357.000000	95.456716 
3356.000000	95.462703 
3355.000000	95.467776 
3354.000000	95.471626 
3353.000000	95.475341 
3352.000000	95.480504 
3351.000000	95.487503 
3350.000000	95.494982 
3349.000000	95.501141 
3348.000000	95.505326 
3347.000000	95.508227 
3346.000000	95.510935 
3345.000000	95.513946 
3344.000000	95.516791 
3343.000000	95.518381 
3342.000000	95.518169 
3341.000000	95.517159 
3340.000000	95.517095 
3339.000000	95.518347 
3338.000000	95.519449 
3337.000000	95.519227 
3336.000000	95.518485 
3335.000000	95.518784 
3334.000000	95.520135 
3333.000000	95.521020 
3332.000000	95.520538 
3331.000000	95.519516 
3330.000000	95.519257 
3329.000000	95.520120 
3328.000000	95.521838 
3327.000000	95.524475 
3326.000000	95.528238 
3325.000000	95.532490 
3324.000000	95.535720 
3323.000000	95.536765 
3322.000000	95.535892 
3321.000000	95.534573 
3320.000000	95.534346 
3319.000000	95.536028 
3318.000000	95.539706 
3317.000000	95.544935 
3316.000000	95.550798 
3315.000000	95.556071 
3314.000000	95.559757 
3313.000000	95.561669 
3312.000000	95.562593 
3311.000000	95.563934 
3310.000000	95.566964 
3309.000000	95.572003 
3308.000000	95.578072 
3307.000000	95.583432 
3306.000000	95.586790 
3305.000000	95.588090 
3304.000000	95.588345 
3303.000000	95.589040 
3302.000000	95.591457 
3301.000000	95.595992 
3300.000000	95.601735 
3299.000000	95.606906 
3298.000000	95.610282 
3297.000000	95.612186 
3296.000000	95.613963 
3295.000000	95.616687 
3294.000000	95.620626 
3293.000000	95.625612 
3292.000000	95.631256 
3291.000000	95.636837 
3290.000000	95.641592 
3289.000000	95.645371 
3288.000000	95.648672 
3287.000000	95.651909 
3286.000000	95.654895 
3285.000000	95.657188 
3284.000000	95.658697 
3283.000000	95.659891 
3282.000000	95.661603 
3281.000000	95.664427 
3280.000000	95.667972 
3279.000000	95.670971 
3278.000000	95.672632 
3277.000000	95.673628 
3276.000000	95.675308 
3275.000000	95.678011 
3274.000000	95.680835 
3273.000000	95.683072 
3272.000000	95.685149 
3271.000000	95.687812 
3270.000000	95.690941 
3269.000000	95.693680 
3268.000000	95.695481 
3267.000000	95.696613 
3266.000000	95.697883 
3265.000000	95.700085 
3264.000000	95.703519 
3263.000000	95.707731 
3262.000000	95.711723 
3261.000000	95.714817 
3260.000000	95.717083 
3259.000000	95.718927 
3258.000000	95.720607 
3257.000000	95.722316 
3256.000000	95.724437 
3255.000000	95.727218 
3254.000000	95.730320 
3253.000000	95.733128 
3252.000000	95.735555 
3251.000000	95.738084 
3250.000000	95.740997 
3249.000000	95.743997 
3248.000000	95.746679 
3247.000000	95.749053 
3246.000000	95.751419 
3245.000000	95.753968 
3244.000000	95.756628 
3243.000000	95.759233 
3242.000000	95.761720 
3241.000000	95.764158 
3240.000000	95.766673 
3239.000000	95.769380 
3238.000000	95.772349 
3237.000000	95.775581 
3236.000000	95.779013 
3235.000000	95.782529 
3234.000000	95.785909 
3233.000000	95.788793 
3232.000000	95.790937 
3231.000000	95.792570 
3230.000000	95.794341 
3229.000000	95.796672 
3228.000000	95.799311 
3227.000000	95.801747 
3226.000000	95.803997 
3225.000000	95.806661 
3224.000000	95.810110 
3223.000000	95.813964 
3222.000000	95.817511 
3221.000000	95.820451 
3220.000000	95.822968 
3219.000000	95.825239 
3218.000000	95.827202 
3217.000000	95.828806 
3216.000000	95.830308 
3215.000000	95.832334 
3214.000000	95.835560 
3213.000000	95.840119 
3212.000000	95.845158 
3211.000000	95.849340 
3210.000000	95.852102 
3209.000000	95.854092 
3208.000000	95.856260 
3207.000000	95.858677 
3206.000000	95.860763 
3205.000000	95.862485 
3204.000000	95.864690 
3203.000000	95.868129 
3202.000000	95.872645 
3201.000000	95.877356 
3200.000000	95.881406 
3199.000000	95.884622 
3198.000000	95.887703 
3197.000000	95.891643 
3196.000000	95.896655 
3195.000000	95.901788 
3194.000000	95.905938 
3193.000000	95.909139 
3192.000000	95.912402 
3191.000000	95.916371 
3190.000000	95.920617 
3189.000000	95.924392 
3188.000000	95.927639 
3187.000000	95.931005 
3186.000000	95.935079 
3185.000000	95.939830 
3184.000000	95.944608 
3183.000000	95.948719 
3182.000000	95.952102 
3181.000000	95.955401 
3180.000000	95.959265 
3179.000000	95.963630 
3178.000000	95.967876 
3177.000000	95.971607 
3176.000000	95.975024 
3175.000000	95.978618 
3174.000000	95.982760 
3173.000000	95.987510 
3172.000000	95.992463 
3171.000000	95.996790 
3170.000000	95.999861 
3169.000000	96.001868 
3168.000000	96.003696 
3167.000000	96.006149 
3166.000000	96.009343 
3165.000000	96.012934 
3164.000000	96.016555 
3163.000000	96.019984 
3162.000000	96.023100 
3161.000000	96.025859 
3160.000000	96.028363 
3159.000000	96.030879 
3158.000000	96.033728 
3157.000000	96.037051 
3156.000000	96.040676 
3155.000000	96.044224 
3154.000000	96.047436 
3153.000000	96.050358 
3152.000000	96.053171 
3151.000000	96.055921 
3150.000000	96.058512 
3149.000000	96.060909 
3148.000000	96.063247 
3147.000000	96.065745 
3146.000000	96.068520 
3145.000000	96.071510 
3144.000000	96.074521 
3143.000000	96.077358 
3142.000000	96.079984 
3141.000000	96.082488 
3140.000000	96.084993 
3139.000000	96.087569 
3138.000000	96.090220 
3137.000000	96.092904 
3136.000000	96.095547 
3135.000000	96.098063 
3134.000000	96.100415 
3133.000000	96.102669 
3132.000000	96.104958 
3131.000000	96.107355 
3130.000000	96.109839 
3129.000000	96.112385 
3128.000000	96.115020 
3127.000000	96.117756 
3126.000000	96.120506 
3125.000000	96.123143 
3124.000000	96.125623 
3123.000000	96.127984 
3122.000000	96.130257 
3121.000000	96.132475 
3120.000000	96.134748 
3119.000000	96.137199 
3118.000000	96.139822 
3117.000000	96.142474 
3116.000000	96.144990 
3115.000000	96.147275 
3114.000000	96.149385 
3113.000000	96.151594 
3112.000000	96.154320 
3111.000000	96.157753 
3110.000000	96.161490 
3109.000000	96.164679 
3108.000000	96.166714 
3107.000000	96.167818 
3106.000000	96.168911 
3105.000000	96.170693 
3104.000000	96.172958 
3103.000000	96.174928 
3102.000000	96.176161 
3101.000000	96.176947 
3100.000000	96.177784 
3099.000000	96.178851 
3098.000000	96.180371 
3097.000000	96.183156 
3096.000000	96.188005 
3095.000000	96.194489 
3094.000000	96.200925 
3093.000000	96.205818 
3092.000000	96.208935 
3091.000000	96.210810 
3090.000000	96.211873 
3089.000000	96.212448 
3088.000000	96.213219 
3087.000000	96.215070 
3086.000000	96.218436 
3085.000000	96.222896 
3084.000000	96.227281 
3083.000000	96.230328 
3082.000000	96.231726 
3081.000000	96.232652 
3080.000000	96.234628 
3079.000000	96.237688 
3078.000000	96.240535 
3077.000000	96.242661 
3076.000000	96.245153 
3075.000000	96.248705 
3074.000000	96.251969 
3073.000000	96.253149 
3072.000000	96.252595 
3071.000000	96.252514 
3070.000000	96.254312 
3069.000000	96.257509 
3068.000000	96.261088 
3067.000000	96.264492 
3066.000000	96.267028 
3065.000000	96.267637 
3064.000000	96.265966 
3063.000000	96.262948 
3062.000000	96.259973 
3061.000000	96.257922 
3060.000000	96.257090 
3059.000000	96.257512 
3058.000000	96.259135 
3057.000000	96.261886 
3056.000000	96.265375 
3055.000000	96.268218 
3054.000000	96.268405 
3053.000000	96.265330 
3052.000000	96.261258 
3051.000000	96.259555 
3050.000000	96.261096 
3049.000000	96.263389 
3048.000000	96.263416 
3047.000000	96.260385 
3046.000000	96.255503 
3045.000000	96.250366 
3044.000000	96.246383 
3043.000000	96.244936 
3042.000000	96.246700 
3041.000000	96.250443 
3040.000000	96.253219 
3039.000000	96.252587 
3038.000000	96.248767 
3037.000000	96.244334 
3036.000000	96.241471 
3035.000000	96.239574 
3034.000000	96.236221 
3033.000000	96.230352 
3032.000000	96.223605 
3031.000000	96.218408 
3030.000000	96.215599 
3029.000000	96.214333 
3028.000000	96.213202 
3027.000000	96.210582 
3026.000000	96.204941 
3025.000000	96.196265 
3024.000000	96.186902 
3023.000000	96.179613 
3022.000000	96.174804 
3021.000000	96.171036 
3020.000000	96.167916 
3019.000000	96.166603 
3018.000000	96.167010 
3017.000000	96.166294 
3016.000000	96.161453 
3015.000000	96.152528 
3014.000000	96.142464 
3013.000000	96.134268 
3012.000000	96.128655 
3011.000000	96.123904 
3010.000000	96.117573 
3009.000000	96.108712 
3008.000000	96.098556 
3007.000000	96.088788 
3006.000000	96.079377 
3005.000000	96.069032 
3004.000000	96.057658 
3003.000000	96.047128 
3002.000000	96.039304 
3001.000000	96.034256 
3000.000000	96.030627 
2999.000000	96.026556 
2998.000000	96.019924 
2997.000000	96.009189 
2996.000000	95.995032 
2995.000000	95.980386 
2994.000000	95.967620 
2993.000000	95.955990 
2992.000000	95.942769 
2991.000000	95.926791 
2990.000000	95.910208 
2989.000000	95.896739 
2988.000000	95.888796 
2987.000000	95.886476 
2986.000000	95.888680 
2985.000000	95.894430 
2984.000000	95.902702 
2983.000000	95.911485 
2982.000000	95.918136 
2981.000000	95.921166 
2980.000000	95.921074 
2979.000000	95.918808 
2978.000000	95.914174 
2977.000000	95.906860 
2976.000000	95.898593 
2975.000000	95.892845 
2974.000000	95.892062 
2973.000000	95.896158 
2972.000000	95.903672 
2971.000000	95.913174 
2970.000000	95.923154 
2969.000000	95.931941 
2968.000000	95.938924 
2967.000000	95.945311 
2966.000000	95.952854 
2965.000000	95.962110 
2964.000000	95.972366 
2963.000000	95.982649 
2962.000000	95.992184 
2961.000000	96.000403 
2960.000000	96.007447 
2959.000000	96.014563 
2958.000000	96.023277 
2957.000000	96.033924 
2956.000000	96.045065 
2955.000000	96.054290 
2954.000000	96.059776 
2953.000000	96.061794 
2952.000000	96.063002 
2951.000000	96.066585 
2950.000000	96.073382 
2949.000000	96.081244 
2948.000000	96.087604 
2947.000000	96.091939 
2946.000000	96.095108 
2945.000000	96.097156 
2944.000000	96.097155 
2943.000000	96.095037 
2942.000000	96.092103 
2941.000000	96.089354 
2940.000000	96.086602 
2939.000000	96.083824 
2938.000000	96.082107 
2937.000000	96.082166 
2936.000000	96.082646 
2935.000000	96.081146 
2934.000000	96.076839 
2933.000000	96.071170 
2932.000000	96.066005 
2931.000000	96.061944 
2930.000000	96.058637 
2929.000000	96.055798 
2928.000000	96.053220 
2927.000000	96.050261 
2926.000000	96.046340 
2925.000000	96.042234 
2924.000000	96.040190 
2923.000000	96.042058 
2922.000000	96.047274 
2921.000000	96.053016 
2920.000000	96.056685 
2919.000000	96.058083 
2918.000000	96.058899 
2917.000000	96.060209 
2916.000000	96.061157 
2915.000000	96.060501 
2914.000000	96.058953 
2913.000000	96.058936 
2912.000000	96.061687 
2911.000000	96.065415 
2910.000000	96.067170 
2909.000000	96.066356 
2908.000000	96.065452 
2907.000000	96.066974 
2906.000000	96.070357 
2905.000000	96.072468 
2904.000000	96.070698 
2903.000000	96.065908 
2902.000000	96.062097 
2901.000000	96.063220 
2900.000000	96.070671 
2899.000000	96.082486 
2898.000000	96.094898 
2897.000000	96.104711 
2896.000000	96.110637 
2895.000000	96.113054 
2894.000000	96.113585 
2893.000000	96.114792 
2892.000000	96.118921 
2891.000000	96.125948 
2890.000000	96.133302 
2889.000000	96.138414 
2888.000000	96.141334 
2887.000000	96.143956 
2886.000000	96.147161 
2885.000000	96.150201 
2884.000000	96.153066 
2883.000000	96.157624 
2882.000000	96.165225 
2881.000000	96.174370 
2880.000000	96.182302 
2879.000000	96.188654 
2878.000000	96.195779 
2877.000000	96.205299 
2876.000000	96.215768 
2875.000000	96.224399 
2874.000000	96.230050 
2873.000000	96.233678 
2872.000000	96.236733 
2871.000000	96.240130 
2870.000000	96.244369 
2869.000000	96.249532 
2868.000000	96.254989 
2867.000000	96.259799 
2866.000000	96.263583 
2865.000000	96.266775 
2864.000000	96.270328 
2863.000000	96.275691 
2862.000000	96.284498 
2861.000000	96.297005 
2860.000000	96.310681 
2859.000000	96.321702 
2858.000000	96.328573 
2857.000000	96.333539 
2856.000000	96.339979 
2855.000000	96.348899 
2854.000000	96.358655 
2853.000000	96.367338 
2852.000000	96.374341 
2851.000000	96.379821 
2850.000000	96.383947 
2849.000000	96.387312 
2848.000000	96.391453 
2847.000000	96.398062 
2846.000000	96.407325 
2845.000000	96.417243 
2844.000000	96.425077 
2843.000000	96.429852 
2842.000000	96.433300 
2841.000000	96.437850 
2840.000000	96.443659 
2839.000000	96.448470 
2838.000000	96.450606 
2837.000000	96.451045 
2836.000000	96.451948 
2835.000000	96.453966 
2834.000000	96.456267 
2833.000000	96.458758 
2832.000000	96.462585 
2831.000000	96.468014 
2830.000000	96.473001 
2829.000000	96.474841 
2828.000000	96.472913 
2827.000000	96.469440 
2826.000000	96.467827 
2825.000000	96.470190 
2824.000000	96.475877 
2823.000000	96.481828 
2822.000000	96.484856 
2821.000000	96.484199 
2820.000000	96.481822 
2819.000000	96.480138 
2818.000000	96.479792 
2817.000000	96.480080 
2816.000000	96.480819 
2815.000000	96.482683 
2814.000000	96.485711 
2813.000000	96.488496 
2812.000000	96.489459 
2811.000000	96.488640 
2810.000000	96.487811 
2809.000000	96.488863 
2808.000000	96.492351 
2807.000000	96.497486 
2806.000000	96.503128 
2805.000000	96.508593 
2804.000000	96.513615 
2803.000000	96.518009 
2802.000000	96.521859 
2801.000000	96.525942 
2800.000000	96.531258 
2799.000000	96.537707 
2798.000000	96.543568 
2797.000000	96.546989 
2796.000000	96.548018 
2795.000000	96.548649 
2794.000000	96.550845 
2793.000000	96.554999 
2792.000000	96.560384 
2791.000000	96.566157 
2790.000000	96.571303 
2789.000000	96.574451 
2788.000000	96.575058 
2787.000000	96.574639 
2786.000000	96.575676 
2785.000000	96.578972 
2784.000000	96.582888 
2783.000000	96.585675 
2782.000000	96.587655 
2781.000000	96.590403 
2780.000000	96.594449 
2779.000000	96.598758 
2778.000000	96.602057 
2777.000000	96.603667 
2776.000000	96.603274 
2775.000000	96.601017 
2774.000000	96.597947 
2773.000000	96.595383 
2772.000000	96.593535 
2771.000000	96.591624 
2770.000000	96.589546 
2769.000000	96.588458 
2768.000000	96.589262 
2767.000000	96.591283 
2766.000000	96.593104 
2765.000000	96.594107 
2764.000000	96.594458 
2763.000000	96.593988 
2762.000000	96.591995 
2761.000000	96.588291 
2760.000000	96.584007 
2759.000000	96.581098 
2758.000000	96.580788 
2757.000000	96.582276 
2756.000000	96.583105 
2755.000000	96.581478 
2754.000000	96.578299 
2753.000000	96.576271 
2752.000000	96.576918 
2751.000000	96.579470 
2750.000000	96.582723 
2749.000000	96.586489 
2748.000000	96.590255 
2747.000000	96.591824 
2746.000000	96.589246 
2745.000000	96.583794 
2744.000000	96.579404 
2743.000000	96.578745 
2742.000000	96.581274 
2741.000000	96.585015 
2740.000000	96.588761 
2739.000000	96.591881 
2738.000000	96.593454 
2737.000000	96.593298 
2736.000000	96.593186 
2735.000000	96.595442 
2734.000000	96.600287 
2733.000000	96.605461 
2732.000000	96.608701 
2731.000000	96.610101 
2730.000000	96.611799 
2729.000000	96.615682 
2728.000000	96.621447 
2727.000000	96.626784 
2726.000000	96.629505 
2725.000000	96.629581 
2724.000000	96.628934 
2723.000000	96.629340 
2722.000000	96.631098 
2721.000000	96.633893 
2720.000000	96.638010 
2719.000000	96.643714 
2718.000000	96.649796 
2717.000000	96.653924 
2716.000000	96.654927 
2715.000000	96.654241 
2714.000000	96.654698 
2713.000000	96.657921 
2712.000000	96.663017 
2711.000000	96.667566 
2710.000000	96.669707 
2709.000000	96.669410 
2708.000000	96.668174 
2707.000000	96.667833 
2706.000000	96.669607 
2705.000000	96.673623 
2704.000000	96.678460 
2703.000000	96.681256 
2702.000000	96.679579 
2701.000000	96.674198 
2700.000000	96.669693 
2699.000000	96.670794 
2698.000000	96.677488 
2697.000000	96.684420 
2696.000000	96.685770 
2695.000000	96.680460 
2694.000000	96.672475 
2693.000000	96.666650 
2692.000000	96.664494 
2691.000000	96.664208 
2690.000000	96.663580 
2689.000000	96.661763 
2688.000000	96.658446 
2687.000000	96.652870 
2686.000000	96.645087 
2685.000000	96.637699 
2684.000000	96.634476 
2683.000000	96.636316 
2682.000000	96.639471 
2681.000000	96.638946 
2680.000000	96.633450 
2679.000000	96.626111 
2678.000000	96.620527 
2677.000000	96.617265 
2676.000000	96.614443 
2675.000000	96.610736 
2674.000000	96.606850 
2673.000000	96.604241 
2672.000000	96.603103 
2671.000000	96.602071 
2670.000000	96.599944 
2669.000000	96.597537 
2668.000000	96.597180 
2667.000000	96.599912 
2666.000000	96.603754 
2665.000000	96.605604 
2664.000000	96.604930 
2663.000000	96.604678 
2662.000000	96.608007 
2661.000000	96.614934 
2660.000000	96.622936 
2659.000000	96.630096 
2658.000000	96.636469 
2657.000000	96.642461 
2656.000000	96.647386 
2655.000000	96.650629 
2654.000000	96.653428 
2653.000000	96.658152 
2652.000000	96.665892 
2651.000000	96.675834 
2650.000000	96.686984 
2649.000000	96.699046 
2648.000000	96.710853 
2647.000000	96.719312 
2646.000000	96.721710 
2645.000000	96.718999 
2644.000000	96.715365 
2643.000000	96.714061 
2642.000000	96.714635 
2641.000000	96.714932 
2640.000000	96.714880 
2639.000000	96.717005 
2638.000000	96.723172 
2637.000000	96.731731 
2636.000000	96.738615 
2635.000000	96.741191 
2634.000000	96.740274 
2633.000000	96.737830 
2632.000000	96.733488 
2631.000000	96.725297 
2630.000000	96.714372 
2629.000000	96.706234 
2628.000000	96.704832 
2627.000000	96.706178 
2626.000000	96.701468 
2625.000000	96.687229 
2624.000000	96.669766 
2623.000000	96.658024 
2622.000000	96.653470 
2621.000000	96.649124 
2620.000000	96.637433 
2619.000000	96.617046 
2618.000000	96.592609 
2617.000000	96.570179 
2616.000000	96.553315 
2615.000000	96.542255 
2614.000000	96.535453 
2613.000000	96.531308 
2612.000000	96.528256 
2611.000000	96.524045 
2610.000000	96.516739 
2609.000000	96.507170 
2608.000000	96.498848 
2607.000000	96.494077 
2606.000000	96.491188 
2605.000000	96.487125 
2604.000000	96.481939 
2603.000000	96.478811 
2602.000000	96.479953 
2601.000000	96.484267 
2600.000000	96.489085 
2599.000000	96.492727 
2598.000000	96.495096 
2597.000000	96.497051 
2596.000000	96.499749 
2595.000000	96.503976 
2594.000000	96.510030 
2593.000000	96.518565 
2592.000000	96.530683 
2591.000000	96.546098 
2590.000000	96.562219 
2589.000000	96.576923 
2588.000000	96.591626 
2587.000000	96.609010 
2586.000000	96.627587 
2585.000000	96.641615 
2584.000000	96.647992 
2583.000000	96.651037 
2582.000000	96.658241 
2581.000000	96.672481 
2580.000000	96.690416 
2579.000000	96.707380 
2578.000000	96.721023 
2577.000000	96.730280 
2576.000000	96.734171 
2575.000000	96.733533 
2574.000000	96.732194 
2573.000000	96.733866 
2572.000000	96.737799 
2571.000000	96.739443 
2570.000000	96.736221 
2569.000000	96.731437 
2568.000000	96.731260 
2567.000000	96.737951 
2566.000000	96.747103 
2565.000000	96.751798 
2564.000000	96.748686 
2563.000000	96.739816 
2562.000000	96.729903 
2561.000000	96.723048 
2560.000000	96.721580 
2559.000000	96.725917 
2558.000000	96.733830 
2557.000000	96.740467 
2556.000000	96.741100 
2555.000000	96.734837 
2554.000000	96.725105 
2553.000000	96.716075 
2552.000000	96.709207 
2551.000000	96.703755 
2550.000000	96.699099 
2549.000000	96.694682 
2548.000000	96.688481 
2547.000000	96.678509 
2546.000000	96.666746 
2545.000000	96.658915 
2544.000000	96.658056 
2543.000000	96.659939 
2542.000000	96.657466 
2541.000000	96.649150 
2540.000000	96.640413 
2539.000000	96.636422 
2538.000000	96.636718 
2537.000000	96.637906 
2536.000000	96.638779 
2535.000000	96.640305 
2534.000000	96.642142 
2533.000000	96.642181 
2532.000000	96.639615 
2531.000000	96.636318 
2530.000000	96.634467 
2529.000000	96.633980 
2528.000000	96.633028 
2527.000000	96.630338 
2526.000000	96.626334 
2525.000000	96.622413 
2524.000000	96.619694 
2523.000000	96.618381 
2522.000000	96.617986 
2521.000000	96.617896 
2520.000000	96.617758 
2519.000000	96.617317 
2518.000000	96.615995 
2517.000000	96.612935 
2516.000000	96.607804 
2515.000000	96.601617 
2514.000000	96.596544 
2513.000000	96.594513 
2512.000000	96.595837 
2511.000000	96.599131 
2510.000000	96.602414 
2509.000000	96.604364 
2508.000000	96.604763 
2507.000000	96.604286 
2506.000000	96.604194 
2505.000000	96.605637 
2504.000000	96.608552 
2503.000000	96.611322 
2502.000000	96.612127 
2501.000000	96.610730 
2500.000000	96.608646 
2499.000000	96.607547 
2498.000000	96.607757 
2497.000000	96.608475 
2496.000000	96.608953 
2495.000000	96.609060 
2494.000000	96.608995 
2493.000000	96.608992 
2492.000000	96.609446 
2491.000000	96.610909 
2490.000000	96.613555 
2489.000000	96.616639 
2488.000000	96.618869 
2487.000000	96.619592 
2486.000000	96.619473 
2485.000000	96.619866 
2484.000000	96.621436 
2483.000000	96.623659 
2482.000000	96.625614 
2481.000000	96.626947 
2480.000000	96.627946 
2479.000000	96.629068 
2478.000000	96.630690 
2477.000000	96.633003 
2476.000000	96.635766 
2475.000000	96.638276 
2474.000000	96.639963 
2473.000000	96.640953 
2472.000000	96.641838 
2471.000000	96.642992 
2470.000000	96.644443 
2469.000000	96.646273 
2468.000000	96.648702 
2467.000000	96.651609 
2466.000000	96.654323 
2465.000000	96.656266 
2464.000000	96.657676 
2463.000000	96.659391 
2462.000000	96.662010 
2461.000000	96.665441 
2460.000000	96.669048 
2459.000000	96.671969 
2458.000000	96.673526 
2457.000000	96.673655 
2456.000000	96.673078 
2455.000000	96.672926 
2454.000000	96.673895 
2453.000000	96.675823 
2452.000000	96.677863 
2451.000000	96.679093 
2450.000000	96.679259 
2449.000000	96.679055 
2448.000000	96.679577 
2447.000000	96.681326 
2446.000000	96.683818 
2445.000000	96.686094 
2444.000000	96.687477 
2443.000000	96.687848 
2442.000000	96.687554 
2441.000000	96.687255 
2440.000000	96.687563 
2439.000000	96.688667 
2438.000000	96.690483 
2437.000000	96.693077 
2436.000000	96.696423 
2435.000000	96.699655 
2434.000000	96.701362 
2433.000000	96.701028 
2432.000000	96.699701 
2431.000000	96.698898 
2430.000000	96.699271 
2429.000000	96.700588 
2428.000000	96.702218 
2427.000000	96.703183 
2426.000000	96.702526 
2425.000000	96.700243 
2424.000000	96.697403 
2423.000000	96.695009 
2422.000000	96.693439 
2421.000000	96.693075 
2420.000000	96.694288 
2419.000000	96.696411 
2418.000000	96.697972 
2417.000000	96.698621 
2416.000000	96.699377 
2415.000000	96.700321 
2414.000000	96.699654 
2413.000000	96.696322 
2412.000000	96.692157 
2411.000000	96.689680 
2410.000000	96.688873 
2409.000000	96.688139 
2408.000000	96.687231 
2407.000000	96.687005 
2406.000000	96.686973 
2405.000000	96.685408 
2404.000000	96.681773 
2403.000000	96.677334 
2402.000000	96.673610 
2401.000000	96.671484 
2400.000000	96.671452 
2399.000000	96.673290 
2398.000000	96.675602 
2397.000000	96.677050 
2396.000000	96.677903 
2395.000000	96.678997 
2394.000000	96.679729 
2393.000000	96.679081 
2392.000000	96.677830 
2391.000000	96.677893 
2390.000000	96.679678 
2389.000000	96.681392 
2388.000000	96.681376 
2387.000000	96.680311 
2386.000000	96.679949 
2385.000000	96.680608 
2384.000000	96.681194 
2383.000000	96.680817 
2382.000000	96.679363 
2381.000000	96.677598 
2380.000000	96.677764 
2379.000000	96.682547 
2378.000000	96.691296 
2377.000000	96.698611 
2376.000000	96.699420 
2375.000000	96.694535 
2374.000000	96.689027 
2373.000000	96.684862 
2372.000000	96.679912 
2371.000000	96.674787 
2370.000000	96.674862 
2369.000000	96.681320 
2368.000000	96.686179 
2367.000000	96.681793 
2366.000000	96.670833 
2365.000000	96.661892 
2364.000000	96.661368 
2363.000000	96.668181 
2362.000000	96.676883 
2361.000000	96.685828 
2360.000000	96.692459 
2359.000000	96.694257 
2358.000000	96.693156 
2357.000000	96.691170 
2356.000000	96.691031 
2355.000000	96.688895 
2354.000000	96.679383 
2353.000000	96.654573 
2352.000000	96.610764 
2351.000000	96.560466 
2350.000000	96.520469 
2349.000000	96.502642 
2348.000000	96.503449 
2347.000000	96.511272 
2346.000000	96.524823 
2345.000000	96.544342 
2344.000000	96.570888 
2343.000000	96.594214 
2342.000000	96.611376 
2341.000000	96.627951 
2340.000000	96.646461 
2339.000000	96.664245 
2338.000000	96.673637 
2337.000000	96.675196 
2336.000000	96.673107 
2335.000000	96.674428 
2334.000000	96.676805 
2333.000000	96.679254 
2332.000000	96.677031 
2331.000000	96.676714 
2330.000000	96.672145 
2329.000000	96.663551 
2328.000000	96.649401 
2327.000000	96.634944 
2326.000000	96.622500 
2325.000000	96.609894 
2324.000000	96.601283 
2323.000000	96.600695 
2322.000000	96.607985 
2321.000000	96.616288 
2320.000000	96.619825 
2319.000000	96.623231 
2318.000000	96.627833 
2317.000000	96.633798 
2316.000000	96.633746 
2315.000000	96.629304 
2314.000000	96.620752 
2313.000000	96.614196 
2312.000000	96.609937 
2311.000000	96.611332 
2310.000000	96.614601 
2309.000000	96.616767 
2308.000000	96.614035 
2307.000000	96.610190 
2306.000000	96.608016 
2305.000000	96.608475 
2304.000000	96.608427 
2303.000000	96.608055 
2302.000000	96.608031 
2301.000000	96.609899 
2300.000000	96.611742 
2299.000000	96.611957 
2298.000000	96.609052 
2297.000000	96.604365 
2296.000000	96.599751 
2295.000000	96.597263 
2294.000000	96.597013 
2293.000000	96.597776 
2292.000000	96.598074 
2291.000000	96.597586 
2290.000000	96.597171 
2289.000000	96.597552 
2288.000000	96.598508 
2287.000000	96.598933 
2286.000000	96.598182 
2285.000000	96.596585 
2284.000000	96.595371 
2283.000000	96.595339 
2282.000000	96.596322 
2281.000000	96.597383 
2280.000000	96.597652 
2279.000000	96.596476 
2278.000000	96.593516 
2277.000000	96.589554 
2276.000000	96.586531 
2275.000000	96.586292 
2274.000000	96.588861 
2273.000000	96.592883 
2272.000000	96.596994 
2271.000000	96.600286 
2270.000000	96.601795 
2269.000000	96.601251 
2268.000000	96.600156 
2267.000000	96.600668 
2266.000000	96.602836 
2265.000000	96.604545 
2264.000000	96.604067 
2263.000000	96.601149 
2262.000000	96.596062 
2261.000000	96.589427 
2260.000000	96.583651 
2259.000000	96.581440 
2258.000000	96.582464 
2257.000000	96.583476 
2256.000000	96.583163 
2255.000000	96.584416 
2254.000000	96.589456 
2253.000000	96.595452 
2252.000000	96.597479 
2251.000000	96.594093 
2250.000000	96.586714 
2249.000000	96.576225 
2248.000000	96.563753 
2247.000000	96.553232 
2246.000000	96.548991 
2245.000000	96.550393 
2244.000000	96.551649 
2243.000000	96.547861 
2242.000000	96.539422 
2241.000000	96.530491 
2240.000000	96.525199 
2239.000000	96.525114 
2238.000000	96.528129 
2237.000000	96.529346 
2236.000000	96.525468 
2235.000000	96.518435 
2234.000000	96.512932 
2233.000000	96.510719 
2232.000000	96.509902 
2231.000000	96.509008 
2230.000000	96.507954 
2229.000000	96.504961 
2228.000000	96.497232 
2227.000000	96.486433 
2226.000000	96.478998 
2225.000000	96.478141 
2224.000000	96.479005 
2223.000000	96.475614 
2222.000000	96.469632 
2221.000000	96.467123 
2220.000000	96.468739 
2219.000000	96.468530 
2218.000000	96.462918 
2217.000000	96.456806 
2216.000000	96.457930 
2215.000000	96.467362 
2214.000000	96.478228 
2213.000000	96.483346 
2212.000000	96.482348 
2211.000000	96.480387 
2210.000000	96.481658 
2209.000000	96.486048 
2208.000000	96.491307 
2207.000000	96.496247 
2206.000000	96.501172 
2205.000000	96.506903 
2204.000000	96.514663 
2203.000000	96.525738 
2202.000000	96.539708 
2201.000000	96.553355 
2200.000000	96.562183 
2199.000000	96.563606 
2198.000000	96.558980 
2197.000000	96.552942 
2196.000000	96.550294 
2195.000000	96.552187 
2194.000000	96.555712 
2193.000000	96.558249 
2192.000000	96.560842 
2191.000000	96.564874 
2190.000000	96.567226 
2189.000000	96.563354 
2188.000000	96.554749 
2187.000000	96.547629 
2186.000000	96.543020 
2185.000000	96.534752 
2184.000000	96.521226 
2183.000000	96.512816 
2182.000000	96.520365 
2181.000000	96.539296 
2180.000000	96.552495 
2179.000000	96.549322 
2178.000000	96.535113 
2177.000000	96.522486 
2176.000000	96.518452 
2175.000000	96.521377 
2174.000000	96.525906 
2173.000000	96.527609 
2172.000000	96.525224 
2171.000000	96.520551 
2170.000000	96.515164 
2169.000000	96.507017 
2168.000000	96.492599 
2167.000000	96.472838 
2166.000000	96.453553 
2165.000000	96.438066 
2164.000000	96.422249 
2163.000000	96.400761 
2162.000000	96.377831 
2161.000000	96.368005 
2160.000000	96.383686 
2159.000000	96.422441 
2158.000000	96.466779 
2157.000000	96.498858 
2156.000000	96.514918 
2155.000000	96.522674 
2154.000000	96.529290 
2153.000000	96.535637 
2152.000000	96.539649 
2151.000000	96.540577 
2150.000000	96.539303 
2149.000000	96.538113 
2148.000000	96.541403 
2147.000000	96.553114 
2146.000000	96.571411 
2145.000000	96.588876 
2144.000000	96.600695 
2143.000000	96.609833 
2142.000000	96.621480 
2141.000000	96.635617 
2140.000000	96.648686 
2139.000000	96.660366 
2138.000000	96.674153 
2137.000000	96.691283 
2136.000000	96.707518 
2135.000000	96.716794 
2134.000000	96.716585 
2133.000000	96.710336 
2132.000000	96.705277 
2131.000000	96.706177 
2130.000000	96.710584 
2129.000000	96.711703 
2128.000000	96.706526 
2127.000000	96.699096 
2126.000000	96.694996 
2125.000000	96.695128 
2124.000000	96.696395 
2123.000000	96.695751 
2122.000000	96.691134 
2121.000000	96.680801 
2120.000000	96.665079 
2119.000000	96.647948 
2118.000000	96.634467 
2117.000000	96.626623 
2116.000000	96.622423 
2115.000000	96.618041 
2114.000000	96.610054 
2113.000000	96.597814 
2112.000000	96.585653 
2111.000000	96.580596 
2110.000000	96.585344 
2109.000000	96.594846 
2108.000000	96.601675 
2107.000000	96.603137 
2106.000000	96.601135 
2105.000000	96.598152 
2104.000000	96.596615 
2103.000000	96.599134 
2102.000000	96.604749 
2101.000000	96.606720 
2100.000000	96.599398 
2099.000000	96.587066 
2098.000000	96.581376 
2097.000000	96.589426 
2096.000000	96.608011 
2095.000000	96.629095 
2094.000000	96.646611 
2093.000000	96.657122 
2092.000000	96.658893 
2091.000000	96.653868 
2090.000000	96.648444 
2089.000000	96.648762 
2088.000000	96.654881 
2087.000000	96.661124 
2086.000000	96.662140 
2085.000000	96.657927 
2084.000000	96.653351 
2083.000000	96.653298 
2082.000000	96.658417 
2081.000000	96.665635 
2080.000000	96.672434 
2079.000000	96.679123 
2078.000000	96.686063 
2077.000000	96.690711 
2076.000000	96.690163 
2075.000000	96.685885 
2074.000000	96.682336 
2073.000000	96.680655 
2072.000000	96.676897 
2071.000000	96.667463 
2070.000000	96.653854 
2069.000000	96.641164 
2068.000000	96.633719 
2067.000000	96.632572 
2066.000000	96.635285 
2065.000000	96.636781 
2064.000000	96.632328 
2063.000000	96.621763 
2062.000000	96.610223 
2061.000000	96.603773 
2060.000000	96.604180 
2059.000000	96.608572 
2058.000000	96.613017 
2057.000000	96.615131 
2056.000000	96.613587 
2055.000000	96.606846 
2054.000000	96.594156 
2053.000000	96.578086 
2052.000000	96.564297 
2051.000000	96.557211 
2050.000000	96.556548 
2049.000000	96.558606 
2048.000000	96.560515 
2047.000000	96.561833 
2046.000000	96.562423 
2045.000000	96.561613 
2044.000000	96.560211 
2043.000000	96.560817 
2042.000000	96.564878 
2041.000000	96.571083 
2040.000000	96.577451 
2039.000000	96.583330 
2038.000000	96.587973 
2037.000000	96.589262 
2036.000000	96.585955 
2035.000000	96.580177 
2034.000000	96.576284 
2033.000000	96.577343 
2032.000000	96.583250 
2031.000000	96.591088 
2030.000000	96.596390 
2029.000000	96.595905 
2028.000000	96.590490 
2027.000000	96.584747 
2026.000000	96.582302 
2025.000000	96.582432 
2024.000000	96.582854 
2023.000000	96.584193 
2022.000000	96.589219 
2021.000000	96.597817 
2020.000000	96.605195 
2019.000000	96.606342 
2018.000000	96.600349 
2017.000000	96.590432 
2016.000000	96.581353 
2015.000000	96.576194 
2014.000000	96.574709 
2013.000000	96.574115 
2012.000000	96.572552 
2011.000000	96.571983 
2010.000000	96.575657 
2009.000000	96.582705 
2008.000000	96.587892 
2007.000000	96.588257 
2006.000000	96.586827 
2005.000000	96.587598 
2004.000000	96.589779 
2003.000000	96.590241 
2002.000000	96.589362 
2001.000000	96.590040 
2000.000000	96.591667 
1999.000000	96.589053 
1998.000000	96.578407 
1997.000000	96.562804 
1996.000000	96.550126 
1995.000000	96.545706 
1994.000000	96.548450 
1993.000000	96.553077 
1992.000000	96.555492 
1991.000000	96.556504 
1990.000000	96.560109 
1989.000000	96.568279 
1988.000000	96.577823 
1987.000000	96.582370 
1986.000000	96.578256 
1985.000000	96.568754 
1984.000000	96.561651 
1983.000000	96.561905 
1982.000000	96.567643 
1981.000000	96.573822 
1980.000000	96.579209 
1979.000000	96.587005 
1978.000000	96.598096 
1977.000000	96.608247 
1976.000000	96.614170 
1975.000000	96.618846 
1974.000000	96.627387 
1973.000000	96.640421 
1972.000000	96.654250 
1971.000000	96.665261 
1970.000000	96.671188 
1969.000000	96.669913 
1968.000000	96.660603 
1967.000000	96.646279 
1966.000000	96.633169 
1965.000000	96.626374 
1964.000000	96.627418 
1963.000000	96.635336 
1962.000000	96.647535 
1961.000000	96.659096 
1960.000000	96.663665 
1959.000000	96.657542 
1958.000000	96.643648 
1957.000000	96.630642 
1956.000000	96.625719 
1955.000000	96.628316 
1954.000000	96.631766 
1953.000000	96.630660 
1952.000000	96.624528 
1951.000000	96.615148 
1950.000000	96.604407 
1949.000000	96.595509 
1948.000000	96.593280 
1947.000000	96.600002 
1946.000000	96.611307 
1945.000000	96.618817 
1944.000000	96.617083 
1943.000000	96.606760 
1942.000000	96.592683 
1941.000000	96.580349 
1940.000000	96.573671 
1939.000000	96.573584 
1938.000000	96.577677 
1937.000000	96.582901 
1936.000000	96.588670 
1935.000000	96.595111 
1934.000000	96.599984 
1933.000000	96.601758 
1932.000000	96.603825 
1931.000000	96.611464 
1930.000000	96.624781 
1929.000000	96.636907 
1928.000000	96.642496 
1927.000000	96.643591 
1926.000000	96.645411 
1925.000000	96.649817 
1924.000000	96.654605 
1923.000000	96.658538 
1922.000000	96.662147 
1921.000000	96.664401 
1920.000000	96.663598 
1919.000000	96.660461 
1918.000000	96.657903 
1917.000000	96.657461 
1916.000000	96.658512 
1915.000000	96.661867 
1914.000000	96.668010 
1913.000000	96.673291 
1912.000000	96.672323 
1911.000000	96.664579 
1910.000000	96.655942 
1909.000000	96.652617 
1908.000000	96.656384 
1907.000000	96.663904 
1906.000000	96.668492 
1905.000000	96.663482 
1904.000000	96.647329 
1903.000000	96.627952 
1902.000000	96.616072 
1901.000000	96.613668 
1900.000000	96.614540 
1899.000000	96.613451 
1898.000000	96.609977 
1897.000000	96.604664 
1896.000000	96.596146 
1895.000000	96.584918 
1894.000000	96.574939 
1893.000000	96.568914 
1892.000000	96.566104 
1891.000000	96.564906 
1890.000000	96.563992 
1889.000000	96.561857 
1888.000000	96.558740 
1887.000000	96.558973 
1886.000000	96.565895 
1885.000000	96.574813 
1884.000000	96.576298 
1883.000000	96.568414 
1882.000000	96.559566 
1881.000000	96.557570 
1880.000000	96.562356 
1879.000000	96.569141 
1878.000000	96.574437 
1877.000000	96.578333 
1876.000000	96.582234 
1875.000000	96.587011 
1874.000000	96.593035 
1873.000000	96.599903 
1872.000000	96.607141 
1871.000000	96.614842 
1870.000000	96.621777 
1869.000000	96.624616 
1868.000000	96.622121 
1867.000000	96.618898 
1866.000000	96.619930 
1865.000000	96.623566 
1864.000000	96.625453 
1863.000000	96.626404 
1862.000000	96.630943 
1861.000000	96.638735 
1860.000000	96.643939 
1859.000000	96.644456 
1858.000000	96.645452 
1857.000000	96.651355 
1856.000000	96.660125 
1855.000000	96.667104 
1854.000000	96.669513 
1853.000000	96.666011 
1852.000000	96.658886 
1851.000000	96.654475 
1850.000000	96.656205 
1849.000000	96.660824 
1848.000000	96.663026 
1847.000000	96.662607 
1846.000000	96.662546 
1845.000000	96.662026 
1844.000000	96.657615 
1843.000000	96.650745 
1842.000000	96.646810 
1841.000000	96.647610 
1840.000000	96.651298 
1839.000000	96.655183 
1838.000000	96.657095 
1837.000000	96.654918 
1836.000000	96.648095 
1835.000000	96.640874 
1834.000000	96.638199 
1833.000000	96.639656 
1832.000000	96.641429 
1831.000000	96.639914 
1830.000000	96.634257 
1829.000000	96.628192 
1828.000000	96.625659 
1827.000000	96.628010 
1826.000000	96.634064 
1825.000000	96.641021 
1824.000000	96.646028 
1823.000000	96.648646 
1822.000000	96.651420 
1821.000000	96.655934 
1820.000000	96.660704 
1819.000000	96.664207 
1818.000000	96.669204 
1817.000000	96.678555 
1816.000000	96.688605 
1815.000000	96.695156 
1814.000000	96.699922 
1813.000000	96.707114 
1812.000000	96.715329 
1811.000000	96.717815 
1810.000000	96.714224 
1809.000000	96.710968 
1808.000000	96.710952 
1807.000000	96.713042 
1806.000000	96.717405 
1805.000000	96.724087 
1804.000000	96.728997 
1803.000000	96.728048 
1802.000000	96.721845 
1801.000000	96.715343 
1800.000000	96.711284 
1799.000000	96.708042 
1798.000000	96.705721 
1797.000000	96.704531 
1796.000000	96.702496 
1795.000000	96.699702 
1794.000000	96.698761 
1793.000000	96.700053 
1792.000000	96.699050 
1791.000000	96.692958 
1790.000000	96.687229 
1789.000000	96.687353 
1788.000000	96.691936 
1787.000000	96.696058 
1786.000000	96.697380 
1785.000000	96.696950 
1784.000000	96.695678 
1783.000000	96.694906 
1782.000000	96.695037 
1781.000000	96.695325 
1780.000000	96.695738 
1779.000000	96.696818 
1778.000000	96.700008 
1777.000000	96.704215 
1776.000000	96.706727 
1775.000000	96.706756 
1774.000000	96.705693 
1773.000000	96.706171 
1772.000000	96.709915 
1771.000000	96.713805 
1770.000000	96.714660 
1769.000000	96.713907 
1768.000000	96.713988 
1767.000000	96.715554 
1766.000000	96.718122 
1765.000000	96.722092 
1764.000000	96.727530 
1763.000000	96.732151 
1762.000000	96.733280 
1761.000000	96.732551 
1760.000000	96.733405 
1759.000000	96.736392 
1758.000000	96.739788 
1757.000000	96.741795 
1756.000000	96.743605 
1755.000000	96.745939 
1754.000000	96.746913 
1753.000000	96.745230 
1752.000000	96.742828 
1751.000000	96.743355 
1750.000000	96.747487 
1749.000000	96.752050 
1748.000000	96.754528 
1747.000000	96.755469 
1746.000000	96.755351 
1745.000000	96.754873 
1744.000000	96.755218 
1743.000000	96.755989 
1742.000000	96.755885 
1741.000000	96.755088 
1740.000000	96.754575 
1739.000000	96.754333 
1738.000000	96.753590 
1737.000000	96.752557 
1736.000000	96.751861 
1735.000000	96.750660 
1734.000000	96.748209 
1733.000000	96.745326 
1732.000000	96.743616 
1731.000000	96.744251 
1730.000000	96.746758 
1729.000000	96.748714 
1728.000000	96.748774 
1727.000000	96.747766 
1726.000000	96.746422 
1725.000000	96.745008 
1724.000000	96.743648 
1723.000000	96.742725 
1722.000000	96.743153 
1721.000000	96.744744 
1720.000000	96.745933 
1719.000000	96.744681 
1718.000000	96.741076 
1717.000000	96.738136 
1716.000000	96.735048 
1715.000000	96.730153 
1714.000000	96.726204 
1713.000000	96.725019 
1712.000000	96.724271 
1711.000000	96.722225 
1710.000000	96.719629 
1709.000000	96.717267 
1708.000000	96.715184 
1707.000000	96.713814 
1706.000000	96.713801 
1705.000000	96.713504 
1704.000000	96.708921 
1703.000000	96.699599 
1702.000000	96.689697 
1701.000000	96.684047 
1700.000000	96.682991 
1699.000000	96.679639 
1698.000000	96.675374 
1697.000000	96.674736 
1696.000000	96.674688 
1695.000000	96.670607 
1694.000000	96.663994 
1693.000000	96.659067 
1692.000000	96.656455 
1691.000000	96.653956 
1690.000000	96.649444 
1689.000000	96.642176 
1688.000000	96.633844 
1687.000000	96.626467 
1686.000000	96.621506 
1685.000000	96.619126 
1684.000000	96.615800 
1683.000000	96.609059 
1682.000000	96.599549 
1681.000000	96.586996 
1680.000000	96.574366 
1679.000000	96.564352 
1678.000000	96.556567 
1677.000000	96.549425 
1676.000000	96.543053 
1675.000000	96.538316 
1674.000000	96.530745 
1673.000000	96.518084 
1672.000000	96.504691 
1671.000000	96.495473 
1670.000000	96.490962 
1669.000000	96.486876 
1668.000000	96.482134 
1667.000000	96.478482 
1666.000000	96.474257 
1665.000000	96.468123 
1664.000000	96.461596 
1663.000000	96.457867 
1662.000000	96.456031 
1661.000000	96.450532 
1660.000000	96.442231 
1659.000000	96.436426 
1658.000000	96.432745 
1657.000000	96.426884 
1656.000000	96.417634 
1655.000000	96.408116 
1654.000000	96.399884 
1653.000000	96.397684 
1652.000000	96.396020 
1651.000000	96.390465 
1650.000000	96.382383 
1649.000000	96.377064 
1648.000000	96.374199 
1647.000000	96.372952 
1646.000000	96.374350 
1645.000000	96.376454 
1644.000000	96.375572 
1643.000000	96.372567 
1642.000000	96.371852 
1641.000000	96.374569 
1640.000000	96.379134 
1639.000000	96.382428 
1638.000000	96.383352 
1637.000000	96.382045 
1636.000000	96.378110 
1635.000000	96.374628 
1634.000000	96.372591 
1633.000000	96.370869 
1632.000000	96.368073 
1631.000000	96.366162 
1630.000000	96.367018 
1629.000000	96.368857 
1628.000000	96.368344 
1627.000000	96.366741 
1626.000000	96.367017 
1625.000000	96.369712 
1624.000000	96.374234 
1623.000000	96.379576 
1622.000000	96.382237 
1621.000000	96.377944 
1620.000000	96.369820 
1619.000000	96.365372 
1618.000000	96.368884 
1617.000000	96.375291 
1616.000000	96.377194 
1615.000000	96.376181 
1614.000000	96.376060 
1613.000000	96.375490 
1612.000000	96.373123 
1611.000000	96.371897 
1610.000000	96.374624 
1609.000000	96.380097 
1608.000000	96.387673 
1607.000000	96.398558 
1606.000000	96.409415 
1605.000000	96.415301 
1604.000000	96.419004 
1603.000000	96.425887 
1602.000000	96.435215 
1601.000000	96.442583 
1600.000000	96.447853 
1599.000000	96.454547 
1598.000000	96.462920 
1597.000000	96.470829 
1596.000000	96.478585 
1595.000000	96.488471 
1594.000000	96.499965 
1593.000000	96.509442 
1592.000000	96.515692 
1591.000000	96.521297 
1590.000000	96.527862 
1589.000000	96.534437 
1588.000000	96.542022 
1587.000000	96.553481 
1586.000000	96.567380 
1585.000000	96.576692 
1584.000000	96.579611 
1583.000000	96.582231 
1582.000000	96.587814 
1581.000000	96.593868 
1580.000000	96.599928 
1579.000000	96.609086 
1578.000000	96.621413 
1577.000000	96.632258 
1576.000000	96.638101 
1575.000000	96.641748 
1574.000000	96.645164 
1573.000000	96.648695 
1572.000000	96.655443 
1571.000000	96.666562 
1570.000000	96.674724 
1569.000000	96.669864 
1568.000000	96.657802 
1567.000000	96.651788 
1566.000000	96.653554 
1565.000000	96.656637 
1564.000000	96.658974 
1563.000000	96.660020 
1562.000000	96.660078 
1561.000000	96.652589 
1560.000000	96.643754 
1559.000000	96.642126 
1558.000000	96.646696 
1557.000000	96.649324 
1556.000000	96.649205 
1555.000000	96.649714 
1554.000000	96.648420 
1553.000000	96.644400 
1552.000000	96.641869 
1551.000000	96.640443 
1550.000000	96.636984 
1549.000000	96.631377 
1548.000000	96.627247 
1547.000000	96.627244 
1546.000000	96.628106 
1545.000000	96.624982 
1544.000000	96.618528 
1543.000000	96.613018 
1542.000000	96.612093 
1541.000000	96.616047 
1540.000000	96.613944 
1539.000000	96.601591 
1538.000000	96.585556 
1537.000000	96.570500 
1536.000000	96.559094 
1535.000000	96.554261 
1534.000000	96.553401 
1533.000000	96.549973 
1532.000000	96.540564 
1531.000000	96.527332 
1530.000000	96.515715 
1529.000000	96.508334 
1528.000000	96.502124 
1527.000000	96.493734 
1526.000000	96.482342 
1525.000000	96.469593 
1524.000000	96.458108 
1523.000000	96.449268 
1522.000000	96.441424 
1521.000000	96.430107 
1520.000000	96.412712 
1519.000000	96.391811 
1518.000000	96.370155 
1517.000000	96.348570 
1516.000000	96.327966 
1515.000000	96.311176 
1514.000000	96.300048 
1513.000000	96.293849 
1512.000000	96.288111 
1511.000000	96.275157 
1510.000000	96.252876 
1509.000000	96.223588 
1508.000000	96.192635 
1507.000000	96.164900 
1506.000000	96.150999 
1505.000000	96.147543 
1504.000000	96.141738 
1503.000000	96.129210 
1502.000000	96.111867 
1501.000000	96.092559 
1500.000000	96.073788 
1499.000000	96.054381 
1498.000000	96.031648 
1497.000000	96.010985 
1496.000000	95.999599 
1495.000000	95.995791 
1494.000000	95.994284 
1493.000000	95.993256 
1492.000000	95.992556 
1491.000000	95.990826 
1490.000000	95.986161 
1489.000000	95.979309 
1488.000000	95.969681 
1487.000000	95.956563 
1486.000000	95.944123 
1485.000000	95.932379 
1484.000000	95.919321 
1483.000000	95.906595 
1482.000000	95.895933 
1481.000000	95.887212 
1480.000000	95.877977 
1479.000000	95.867482 
1478.000000	95.857195 
1477.000000	95.847813 
1476.000000	95.836447 
1475.000000	95.821485 
1474.000000	95.806713 
1473.000000	95.797026 
1472.000000	95.792655 
1471.000000	95.787917 
1470.000000	95.780374 
1469.000000	95.771231 
1468.000000	95.759744 
1467.000000	95.744802 
1466.000000	95.729950 
1465.000000	95.720655 
1464.000000	95.716855 
1463.000000	95.709910 
1462.000000	95.694720 
1461.000000	95.675387 
1460.000000	95.657738 
1459.000000	95.640964 
1458.000000	95.616658 
1457.000000	95.587063 
1456.000000	95.568401 
1455.000000	95.560299 
1454.000000	95.550900 
1453.000000	95.539531 
1452.000000	95.531757 
1451.000000	95.529629 
1450.000000	95.532270 
1449.000000	95.540445 
1448.000000	95.551333 
1447.000000	95.557318 
1446.000000	95.553641 
1445.000000	95.545131 
1444.000000	95.540839 
1443.000000	95.541296 
1442.000000	95.541854 
1441.000000	95.540509 
1440.000000	95.538545 
1439.000000	95.533999 
1438.000000	95.524022 
1437.000000	95.515042 
1436.000000	95.518225 
1435.000000	95.529694 
1434.000000	95.538904 
1433.000000	95.545548 
1432.000000	95.553308 
1431.000000	95.561616 
1430.000000	95.567346 
1429.000000	95.572688 
1428.000000	95.581117 
1427.000000	95.592484 
1426.000000	95.604265 
1425.000000	95.615625 
1424.000000	95.629276 
1423.000000	95.641985 
1422.000000	95.648507 
1421.000000	95.652167 
1420.000000	95.662205 
1419.000000	95.676219 
1418.000000	95.681055 
1417.000000	95.678697 
1416.000000	95.682318 
1415.000000	95.694446 
1414.000000	95.706369 
1413.000000	95.711755 
1412.000000	95.714304 
1411.000000	95.718924 
1410.000000	95.724615 
1409.000000	95.730732 
1408.000000	95.738888 
1407.000000	95.749686 
1406.000000	95.761786 
1405.000000	95.775314 
1404.000000	95.793174 
1403.000000	95.812529 
1402.000000	95.827534 
1401.000000	95.839787 
1400.000000	95.856466 
1399.000000	95.878768 
1398.000000	95.897818 
1397.000000	95.907124 
1396.000000	95.910436 
1395.000000	95.916823 
1394.000000	95.930705 
1393.000000	95.951112 
1392.000000	95.977309 
1391.000000	96.006325 
1390.000000	96.032317 
1389.000000	96.051164 
1388.000000	96.063055 
1387.000000	96.071278 
1386.000000	96.079630 
1385.000000	96.091581 
1384.000000	96.109618 
1383.000000	96.131550 
1382.000000	96.151794 
1381.000000	96.168090 
1380.000000	96.183105 
1379.000000	96.200536 
1378.000000	96.221163 
1377.000000	96.243271 
1376.000000	96.264887 
1375.000000	96.284758 
1374.000000	96.302165 
1373.000000	96.319000 
1372.000000	96.338615 
1371.000000	96.362498 
1370.000000	96.388025 
1369.000000	96.409921 
1368.000000	96.427286 
1367.000000	96.443568 
1366.000000	96.461836 
1365.000000	96.483042 
1364.000000	96.504846 
1363.000000	96.521945 
1362.000000	96.531189 
1361.000000	96.535704 
1360.000000	96.541730 
1359.000000	96.553158 
1358.000000	96.569184 
1357.000000	96.586254 
1356.000000	96.601685 
1355.000000	96.614579 
1354.000000	96.624663 
1353.000000	96.632983 
1352.000000	96.639712 
1351.000000	96.645414 
1350.000000	96.651672 
1349.000000	96.658023 
1348.000000	96.663429 
1347.000000	96.667518 
1346.000000	96.670643 
1345.000000	96.673264 
1344.000000	96.676028 
1343.000000	96.680095 
1342.000000	96.686003 
1341.000000	96.691963 
1340.000000	96.694822 
1339.000000	96.693586 
1338.000000	96.689943 
1337.000000	96.685781 
1336.000000	96.681815 
1335.000000	96.678530 
1334.000000	96.677470 
1333.000000	96.680316 
1332.000000	96.686241 
1331.000000	96.692275 
1330.000000	96.696238 
1329.000000	96.698609 
1328.000000	96.700955 
1327.000000	96.704412 
1326.000000	96.709016 
1325.000000	96.713755 
1324.000000	96.718185 
1323.000000	96.721638 
1322.000000	96.722613 
1321.000000	96.720890 
1320.000000	96.719292 
1319.000000	96.721424 
1318.000000	96.727874 
1317.000000	96.735934 
1316.000000	96.742148 
1315.000000	96.744282 
1314.000000	96.742281 
1313.000000	96.739160 
1312.000000	96.739210 
1311.000000	96.743994 
1310.000000	96.750931 
1309.000000	96.756799 
1308.000000	96.760347 
1307.000000	96.761746 
1306.000000	96.761314 
1305.000000	96.760091 
1304.000000	96.760696 
1303.000000	96.764032 
1302.000000	96.766884 
1301.000000	96.765427 
1300.000000	96.760391 
1299.000000	96.756251 
1298.000000	96.755654 
1297.000000	96.756751 
1296.000000	96.756264 
1295.000000	96.753546 
1294.000000	96.750462 
1293.000000	96.748552 
1292.000000	96.747140 
1291.000000	96.744201 
1290.000000	96.739177 
1289.000000	96.734182 
1288.000000	96.731366 
1287.000000	96.729575 
1286.000000	96.725522 
1285.000000	96.718740 
1284.000000	96.713057 
1283.000000	96.711540 
1282.000000	96.712222 
1281.000000	96.710661 
1280.000000	96.705795 
1279.000000	96.701220 
1278.000000	96.700924 
1277.000000	96.705422 
1276.000000	96.711807 
1275.000000	96.716671 
1274.000000	96.718843 
1273.000000	96.719917 
1272.000000	96.721952 
1271.000000	96.724500 
1270.000000	96.725071 
1269.000000	96.722915 
1268.000000	96.720881 
1267.000000	96.721900 
1266.000000	96.725068 
1265.000000	96.727634 
1264.000000	96.729447 
1263.000000	96.732544 
1262.000000	96.737178 
1261.000000	96.740958 
1260.000000	96.742955 
1259.000000	96.746284 
1258.000000	96.754359 
1257.000000	96.765594 
1256.000000	96.773438 
1255.000000	96.772598 
1254.000000	96.764882 
1253.000000	96.757379 
1252.000000	96.754314 
1251.000000	96.752885 
1250.000000	96.748793 
1249.000000	96.743479 
1248.000000	96.742343 
1247.000000	96.746015 
1246.000000	96.747494 
1245.000000	96.740002 
1244.000000	96.724629 
1243.000000	96.708624 
1242.000000	96.698308 
1241.000000	96.694703 
1240.000000	96.693582 
1239.000000	96.687990 
1238.000000	96.673104 
1237.000000	96.650617 
1236.000000	96.626924 
1235.000000	96.606065 
1234.000000	96.586449 
1233.000000	96.565061 
1232.000000	96.541552 
1231.000000	96.516573 
1230.000000	96.489856 
1229.000000	96.462668 
1228.000000	96.438628 
1227.000000	96.418481 
1226.000000	96.396528 
1225.000000	96.365885 
1224.000000	96.325757 
1223.000000	96.280729 
1222.000000	96.234720 
1221.000000	96.188544 
1220.000000	96.141881 
1219.000000	96.094143 
1218.000000	96.043967 
1217.000000	95.990650 
1216.000000	95.935077 
1215.000000	95.877269 
1214.000000	95.815262 
1213.000000	95.749390 
1212.000000	95.684803 
1211.000000	95.624994 
1210.000000	95.564927 
1209.000000	95.496270 
1208.000000	95.418827 
1207.000000	95.341431 
1206.000000	95.270847 
1205.000000	95.204180 
1204.000000	95.133904 
1203.000000	95.056699 
1202.000000	94.975518 
1201.000000	94.895001 
1200.000000	94.816401 
1199.000000	94.736691 
1198.000000	94.652632 
1197.000000	94.565828 
1196.000000	94.481435 
1195.000000	94.400668 
1194.000000	94.317830 
1193.000000	94.227449 
1192.000000	94.131354 
1191.000000	94.034825 
1190.000000	93.938361 
1189.000000	93.838094 
1188.000000	93.732784 
1187.000000	93.625419 
1186.000000	93.518511 
1185.000000	93.412006 
1184.000000	93.305185 
1183.000000	93.196937 
1182.000000	93.085190 
1181.000000	92.969402 
1180.000000	92.851894 
1179.000000	92.733289 
1178.000000	92.609366 
1177.000000	92.476971 
1176.000000	92.339890 
1175.000000	92.203301 
1174.000000	92.065589 
1173.000000	91.922542 
1172.000000	91.777028 
1171.000000	91.635931 
1170.000000	91.498871 
1169.000000	91.359196 
1168.000000	91.216528 
1167.000000	91.080094 
1166.000000	90.959394 
1165.000000	90.860454 
1164.000000	90.791792 
1163.000000	90.763708 
1162.000000	90.777631 
1161.000000	90.821869 
1160.000000	90.878838 
1159.000000	90.930817 
1158.000000	90.960572 
1157.000000	90.956512 
1156.000000	90.919608 
1155.000000	90.859057 
1154.000000	90.780675 
1153.000000	90.685914 
1152.000000	90.581355 
1151.000000	90.479267 
1150.000000	90.385845 
1149.000000	90.296627 
1148.000000	90.206137 
1147.000000	90.114470 
1146.000000	90.022031 
1145.000000	89.925680 
1144.000000	89.823747 
1143.000000	89.718943 
1142.000000	89.613658 
1141.000000	89.507718 
1140.000000	89.401842 
1139.000000	89.296936 
1138.000000	89.189304 
1137.000000	89.073827 
1136.000000	88.952660 
1135.000000	88.833114 
1134.000000	88.715945 
1133.000000	88.593900 
1132.000000	88.463161 
1131.000000	88.327790 
1130.000000	88.191306 
1129.000000	88.052395 
1128.000000	87.910878 
1127.000000	87.769381 
1126.000000	87.626808 
1125.000000	87.478328 
1124.000000	87.323763 
1123.000000	87.168173 
1122.000000	87.013066 
1121.000000	86.855847 
1120.000000	86.698754 
1119.000000	86.548136 
1118.000000	86.403553 
1117.000000	86.258530 
1116.000000	86.113774 
1115.000000	85.978330 
1114.000000	85.855193 
1113.000000	85.736928 
1112.000000	85.618074 
1111.000000	85.500889 
1110.000000	85.386309 
1109.000000	85.270670 
1108.000000	85.153310 
1107.000000	85.036514 
1106.000000	84.917534 
1105.000000	84.792206 
1104.000000	84.666368 
1103.000000	84.551162 
1102.000000	84.445471 
1101.000000	84.337826 
1100.000000	84.224949 
1099.000000	84.115127 
1098.000000	84.012487 
1097.000000	83.911059 
1096.000000	83.808017 
1095.000000	83.707742 
1094.000000	83.609952 
1093.000000	83.507546 
1092.000000	83.399974 
1091.000000	83.295962 
1090.000000	83.199948 
1089.000000	83.107651 
1088.000000	83.016425 
1087.000000	82.927458 
1086.000000	82.837667 
1085.000000	82.743329 
1084.000000	82.651376 
1083.000000	82.571767 
1082.000000	82.498825 
1081.000000	82.416961 
1080.000000	82.325200 
1079.000000	82.237911 
1078.000000	82.159362 
1077.000000	82.076212 
1076.000000	81.978956 
1075.000000	81.872510 
1074.000000	81.761210 
1073.000000	81.640428 
1072.000000	81.507100 
1071.000000	81.361436 
1070.000000	81.194158 
1069.000000	80.990027 
1068.000000	80.750150 
1067.000000	80.496068 
1066.000000	80.247012 
1065.000000	80.007440 
1064.000000	79.779500 
1063.000000	79.567229 
1062.000000	79.361465 
1061.000000	79.140446 
1060.000000	78.895498 
1059.000000	78.641563 
1058.000000	78.395128 
1057.000000	78.155986 
1056.000000	77.916832 
1055.000000	77.674794 
1054.000000	77.426506 
1053.000000	77.167429 
1052.000000	76.904117 
1051.000000	76.652633 
1050.000000	76.417371 
1049.000000	76.186433 
1048.000000	75.951927 
1047.000000	75.716442 
1046.000000	75.477678 
1045.000000	75.227281 
1044.000000	74.967657 
1043.000000	74.711076 
1042.000000	74.459234 
1041.000000	74.201594 
1040.000000	73.936764 
1039.000000	73.677078 
1038.000000	73.428964 
1037.000000	73.187625 
1036.000000	72.953923 
1035.000000	72.736993 
1034.000000	72.537239 
1033.000000	72.346081 
1032.000000	72.164180 
1031.000000	71.999528 
1030.000000	71.847013 
1029.000000	71.692756 
1028.000000	71.540261 
1027.000000	71.408107 
1026.000000	71.298974 
1025.000000	71.195016 
1024.000000	71.087047 
1023.000000	70.983641 
1022.000000	70.887183 
1021.000000	70.786089 
1020.000000	70.676085 
1019.000000	70.565946 
1018.000000	70.457560 
1017.000000	70.343274 
1016.000000	70.226615 
1015.000000	70.121932 
1014.000000	70.029698 
1013.000000	69.935917 
1012.000000	69.839325 
1011.000000	69.754517 
1010.000000	69.684691 
1009.000000	69.616815 
1008.000000	69.548042 
1007.000000	69.491616 
1006.000000	69.452045 
1005.000000	69.419794 
1004.000000	69.395199 
1003.000000	69.391990 
1002.000000	69.411413 
1001.000000	69.437743 
1000.000000	69.464957 
999.000000	 69.503424 
998.000000	 69.554984 
997.000000	 69.606473 
996.000000	 69.654080 
995.000000	 69.710269 
994.000000	 69.780551 
993.000000	 69.856342 
992.000000	 69.935264 
991.000000	 70.024738 
990.000000	 70.121151 
989.000000	 70.210249 
988.000000	 70.293770 
987.000000	 70.391469 
986.000000	 70.511323 
985.000000	 70.641518 
984.000000	 70.776447 
983.000000	 70.925703 
982.000000	 71.091043 
981.000000	 71.259196 
980.000000	 71.424928 
979.000000	 71.598244 
978.000000	 71.781848 
977.000000	 71.964527 
976.000000	 72.144020 
975.000000	 72.334190 
974.000000	 72.542021 
973.000000	 72.758514 
972.000000	 72.978650 
971.000000	 73.209069 
970.000000	 73.449055 
969.000000	 73.684628 
968.000000	 73.909006 
967.000000	 74.130445 
966.000000	 74.354345 
965.000000	 74.576601 
964.000000	 74.799158 
963.000000	 75.031672 
962.000000	 75.271561 
961.000000	 75.501843 
960.000000	 75.715166 
959.000000	 75.922082 
958.000000	 76.130483 
957.000000	 76.335092 
956.000000	 76.532792 
955.000000	 76.730114 
954.000000	 76.929348 
953.000000	 77.123886 
952.000000	 77.312480 
951.000000	 77.501897 
950.000000	 77.691307 
949.000000	 77.870620 
948.000000	 78.037944 
947.000000	 78.201619 
946.000000	 78.361783 
945.000000	 78.507962 
944.000000	 78.639660 
943.000000	 78.771907 
942.000000	 78.914188 
941.000000	 79.059317 
940.000000	 79.199075 
939.000000	 79.335541 
938.000000	 79.471583 
937.000000	 79.604567 
936.000000	 79.735137 
935.000000	 79.869517 
934.000000	 80.008881 
933.000000	 80.148308 
932.000000	 80.287972 
931.000000	 80.432487 
930.000000	 80.578952 
929.000000	 80.720430 
928.000000	 80.861601 
927.000000	 81.014117 
926.000000	 81.173937 
925.000000	 81.319745 
924.000000	 81.437503 
923.000000	 81.532164 
922.000000	 81.613255 
921.000000	 81.684521 
920.000000	 81.751266 
919.000000	 81.821906 
918.000000	 81.896002 
917.000000	 81.963330 
916.000000	 82.019784 
915.000000	 82.074006 
914.000000	 82.136597 
913.000000	 82.213767 
912.000000	 82.310843 
911.000000	 82.428329 
910.000000	 82.555260 
909.000000	 82.681843 
908.000000	 82.818032 
907.000000	 82.983422 
906.000000	 83.180246 
905.000000	 83.393344 
904.000000	 83.614867 
903.000000	 83.849221 
902.000000	 84.093533 
901.000000	 84.335063 
900.000000	 84.572128 
899.000000	 84.819055 
898.000000	 85.085092 
897.000000	 85.362580 
896.000000	 85.637597 
895.000000	 85.897964 
894.000000	 86.131888 
893.000000	 86.336235 
892.000000	 86.527686 
891.000000	 86.729598 
890.000000	 86.945197 
889.000000	 87.157561 
888.000000	 87.355227 
887.000000	 87.541140 
886.000000	 87.717278 
885.000000	 87.879304 
884.000000	 88.028533 
883.000000	 88.171776 
882.000000	 88.307316 
881.000000	 88.428999 
880.000000	 88.546271 
879.000000	 88.680788 
878.000000	 88.839486 
877.000000	 89.010146 
876.000000	 89.186651 
875.000000	 89.377284 
874.000000	 89.583966 
873.000000	 89.796130 
872.000000	 90.011570 
871.000000	 90.241144 
870.000000	 90.484409 
869.000000	 90.721397 
868.000000	 90.938931 
867.000000	 91.147243 
866.000000	 91.359458 
865.000000	 91.569140 
864.000000	 91.760694 
863.000000	 91.931991 
862.000000	 92.094973 
861.000000	 92.259595 
860.000000	 92.425906 
859.000000	 92.588281 
858.000000	 92.741645 
857.000000	 92.886017 
856.000000	 93.026163 
855.000000	 93.162443 
854.000000	 93.283854 
853.000000	 93.378210 
852.000000	 93.448434 
851.000000	 93.509740 
850.000000	 93.570588 
849.000000	 93.626629 
848.000000	 93.674737 
847.000000	 93.721734 
846.000000	 93.775461 
845.000000	 93.836269 
844.000000	 93.900200 
843.000000	 93.961549 
842.000000	 94.009601 
841.000000	 94.031557 
840.000000	 94.022505 
839.000000	 93.988072 
838.000000	 93.938676 
837.000000	 93.888003 
836.000000	 93.853545 
835.000000	 93.845477 
834.000000	 93.852963 
833.000000	 93.853286 
832.000000	 93.838781 
831.000000	 93.826384 
830.000000	 93.838340 
829.000000	 93.882333 
828.000000	 93.952486 
827.000000	 94.038856 
826.000000	 94.132093 
825.000000	 94.228178 
824.000000	 94.331090 
823.000000	 94.442654 
822.000000	 94.551889 
821.000000	 94.644757 
820.000000	 94.719110 
819.000000	 94.777438 
818.000000	 94.811674 
817.000000	 94.811461 
816.000000	 94.784970 
815.000000	 94.753663 
814.000000	 94.720858 
813.000000	 94.658185 
812.000000	 94.529122 
811.000000	 94.315918 
810.000000	 94.019809 
809.000000	 93.647234 
808.000000	 93.205793 
807.000000	 92.707685 
806.000000	 92.167760 
805.000000	 91.599564 
804.000000	 91.016749 
803.000000	 90.434623 
802.000000	 89.870374 
801.000000	 89.350247 
800.000000	 88.914733 
799.000000	 88.600143 
798.000000	 88.409535 
797.000000	 88.314254 
796.000000	 88.285412 
795.000000	 88.308008 
794.000000	 88.364916 
793.000000	 88.430746 
792.000000	 88.489651 
791.000000	 88.541445 
790.000000	 88.582724 
789.000000	 88.597884 
788.000000	 88.576077 
787.000000	 88.522722 
786.000000	 88.446910 
785.000000	 88.348728 
784.000000	 88.223857 
783.000000	 88.069469 
782.000000	 87.883669 
781.000000	 87.674448 
780.000000	 87.474267 
779.000000	 87.331075 
778.000000	 87.277020 
777.000000	 87.315115 
776.000000	 87.435702 
775.000000	 87.627391 
774.000000	 87.867249 
773.000000	 88.119622 
772.000000	 88.356245 
771.000000	 88.569286 
770.000000	 88.762419 
769.000000	 88.940315 
768.000000	 89.107049 
767.000000	 89.260084 
766.000000	 89.383784 
765.000000	 89.464423 
764.000000	 89.515354 
763.000000	 89.571558 
762.000000	 89.652495 
761.000000	 89.744010 
760.000000	 89.823685 
759.000000	 89.889985 
758.000000	 89.957649 
757.000000	 90.036988 
756.000000	 90.129176 
755.000000	 90.233260 
754.000000	 90.345039 
753.000000	 90.450706 
752.000000	 90.529512 
751.000000	 90.566230 
750.000000	 90.564980 
749.000000	 90.554234 
748.000000	 90.571823 
747.000000	 90.633923 
746.000000	 90.719631 
745.000000	 90.794751 
744.000000	 90.848516 
743.000000	 90.897663 
742.000000	 90.959609 
741.000000	 91.036504 
740.000000	 91.124534 
739.000000	 91.222300 
738.000000	 91.325601 
737.000000	 91.425329 
736.000000	 91.514476 
735.000000	 91.590772 
734.000000	 91.654384 
733.000000	 91.711496 
732.000000	 91.774992 
731.000000	 91.848409 
730.000000	 91.913024 
729.000000	 91.946817 
728.000000	 91.956891 
727.000000	 91.978037 
726.000000	 92.038336 
725.000000	 92.140071 
724.000000	 92.272019 
723.000000	 92.422812 
722.000000	 92.579288 
721.000000	 92.727198 
720.000000	 92.860722 
719.000000	 92.983655 
718.000000	 93.101111 
717.000000	 93.219193 
716.000000	 93.347913 
715.000000	 93.490677 
714.000000	 93.635004 
713.000000	 93.769314 
712.000000	 93.903989 
711.000000	 94.054246 
710.000000	 94.208433 
709.000000	 94.333054 
708.000000	 94.411307 
707.000000	 94.460045 
706.000000	 94.496877 
705.000000	 94.514271 
704.000000	 94.499283 
703.000000	 94.456873 
702.000000	 94.394864 
701.000000	 94.296548 
700.000000	 94.127152 
699.000000	 93.869236 
698.000000	 93.544858 
697.000000	 93.209051 
696.000000	 92.926805 
695.000000	 92.744997 
694.000000	 92.672965 
693.000000	 92.683894 
692.000000	 92.734911 
691.000000	 92.789388 
690.000000	 92.830171 
689.000000	 92.862733 
688.000000	 92.901283 
687.000000	 92.942977 
686.000000	 92.964432 
685.000000	 92.953285 
684.000000	 92.930055 
683.000000	 92.924274 
682.000000	 92.941390 
681.000000	 92.969256 
680.000000	 93.003930 
679.000000	 93.044531 
678.000000	 93.074155 
677.000000	 93.073254 
676.000000	 93.059389 
675.000000	 93.089399 
674.000000	 93.186529 
673.000000	 93.306714 
672.000000	 93.381553 
671.000000	 93.379492 
670.000000	 93.309933 
669.000000	 93.267483 
668.000000	 93.475974 
667.000000	 93.910907 
666.000000	 94.271038 
665.000000	 94.487094 
664.000000	 94.647144 
663.000000	 94.790290 
662.000000	 94.926450 
661.000000	 95.072462 
660.000000	 95.270560 
659.000000	 95.530248 
658.000000	 95.792312 
657.000000	 95.973098 
656.000000	 96.050545 
655.000000	 96.082760 
654.000000	 96.141888 
653.000000	 96.263070 
652.000000	 96.456100 
651.000000	 96.715111 
650.000000	 96.992561 

