4000.000000	96.782817 
3999.000000	96.782166 
3998.000000	96.781730 
3997.000000	96.781660 
3996.000000	96.781840 
3995.000000	96.781994 
3994.000000	96.781938 
3993.000000	96.781658 
3992.000000	96.781208 
3991.000000	96.780696 
3990.000000	96.780404 
3989.000000	96.780646 
3988.000000	96.781377 
3987.000000	96.782247 
3986.000000	96.783056 
3985.000000	96.783870 
3984.000000	96.784556 
3983.000000	96.784654 
3982.000000	96.784056 
3981.000000	96.783360 
3980.000000	96.783092 
3979.000000	96.782822 
3978.000000	96.781755 
3977.000000	96.779979 
3976.000000	96.778575 
3975.000000	96.778225 
3974.000000	96.778441 
3973.000000	96.778300 
3972.000000	96.777431 
3971.000000	96.776167 
3970.000000	96.775088 
3969.000000	96.774665 
3968.000000	96.774918 
3967.000000	96.775390 
3966.000000	96.775504 
3965.000000	96.774905 
3964.000000	96.773508 
3963.000000	96.771466 
3962.000000	96.769305 
3961.000000	96.767791 
3960.000000	96.767267 
3959.000000	96.767395 
3958.000000	96.767690 
3957.000000	96.768164 
3956.000000	96.768948 
3955.000000	96.769686 
3954.000000	96.769779 
3953.000000	96.769040 
3952.000000	96.767821 
3951.000000	96.766441 
3950.000000	96.764833 
3949.000000	96.762813 
3948.000000	96.760564 
3947.000000	96.758755 
3946.000000	96.757908 
3945.000000	96.757775 
3944.000000	96.757590 
3943.000000	96.757066 
3942.000000	96.756714 
3941.000000	96.756981 
3940.000000	96.757585 
3939.000000	96.757879 
3938.000000	96.757619 
3937.000000	96.757215 
3936.000000	96.756993 
3935.000000	96.756597 
3934.000000	96.755491 
3933.000000	96.753742 
3932.000000	96.752121 
3931.000000	96.751204 
3930.000000	96.750972 
3929.000000	96.751230 
3928.000000	96.751832 
3927.000000	96.752365 
3926.000000	96.752183 
3925.000000	96.751227 
3924.000000	96.750235 
3923.000000	96.749696 
3922.000000	96.749300 
3921.000000	96.748683 
3920.000000	96.747999 
3919.000000	96.747563 
3918.000000	96.747293 
3917.000000	96.746937 
3916.000000	96.746488 
3915.000000	96.746084 
3914.000000	96.745704 
3913.000000	96.745248 
3912.000000	96.744726 
3911.000000	96.744198 
3910.000000	96.743680 
3909.000000	96.743177 
3908.000000	96.742685 
3907.000000	96.742185 
3906.000000	96.741660 
3905.000000	96.741108 
3904.000000	96.740534 
3903.000000	96.739950 
3902.000000	96.739366 
3901.000000	96.738793 
3900.000000	96.738241 
3899.000000	96.737721 
3898.000000	96.737234 
3897.000000	96.736770 
3896.000000	96.736314 
3895.000000	96.735862 
3894.000000	96.735420 
3893.000000	96.734991 
3892.000000	96.734565 
3891.000000	96.734129 
3890.000000	96.733677 
3889.000000	96.733210 
3888.000000	96.732724 
3887.000000	96.732212 
3886.000000	96.731679 
3885.000000	96.731147 
3884.000000	96.730632 
3883.000000	96.730133 
3882.000000	96.729648 
3881.000000	96.729193 
3880.000000	96.728794 
3879.000000	96.728468 
3878.000000	96.728204 
3877.000000	96.727980 
3876.000000	96.727779 
3875.000000	96.727603 
3874.000000	96.727463 
3873.000000	96.727361 
3872.000000	96.727276 
3871.000000	96.727182 
3870.000000	96.727076 
3869.000000	96.726981 
3868.000000	96.726914 
3867.000000	96.726870 
3866.000000	96.726845 
3865.000000	96.726853 
3864.000000	96.726913 
3863.000000	96.727019 
3862.000000	96.727150 
3861.000000	96.727302 
3860.000000	96.727486 
3859.000000	96.727706 
3858.000000	96.727950 
3857.000000	96.728201 
3856.000000	96.728450 
3855.000000	96.728694 
3854.000000	96.728938 
3853.000000	96.729188 
3852.000000	96.729438 
3851.000000	96.729676 
3850.000000	96.729900 
3849.000000	96.730120 
3848.000000	96.730345 
3847.000000	96.730577 
3846.000000	96.730812 
3845.000000	96.731048 
3844.000000	96.731287 
3843.000000	96.731531 
3842.000000	96.731788 
3841.000000	96.732058 
3840.000000	96.732328 
3839.000000	96.732572 
3838.000000	96.732765 
3837.000000	96.732894 
3836.000000	96.732960 
3835.000000	96.732982 
3834.000000	96.732975 
3833.000000	96.732952 
3832.000000	96.732916 
3831.000000	96.732866 
3830.000000	96.732802 
3829.000000	96.732726 
3828.000000	96.732644 
3827.000000	96.732554 
3826.000000	96.732451 
3825.000000	96.732337 
3824.000000	96.732209 
3823.000000	96.732054 
3822.000000	96.731857 
3821.000000	96.731627 
3820.000000	96.731389 
3819.000000	96.731153 
3818.000000	96.730899 
3817.000000	96.730598 
3816.000000	96.730248 
3815.000000	96.729862 
3814.000000	96.729443 
3813.000000	96.728980 
3812.000000	96.728473 
3811.000000	96.727943 
3810.000000	96.727413 
3809.000000	96.726892 
3808.000000	96.726364 
3807.000000	96.725817 
3806.000000	96.725259 
3805.000000	96.724711 
3804.000000	96.724181 
3803.000000	96.723664 
3802.000000	96.723160 
3801.000000	96.722678 
3800.000000	96.722214 
3799.000000	96.721747 
3798.000000	96.721268 
3797.000000	96.720792 
3796.000000	96.720342 
3795.000000	96.719922 
3794.000000	96.719511 
3793.000000	96.719091 
3792.000000	96.718660 
3791.000000	96.718218 
3790.000000	96.717757 
3789.000000	96.717277 
3788.000000	96.716779 
3787.000000	96.716268 
3786.000000	96.715745 
3785.000000	96.715219 
3784.000000	96.714697 
3783.000000	96.714175 
3782.000000	96.713640 
3781.000000	96.713093 
3780.000000	96.712550 
3779.000000	96.712018 
3778.000000	96.711477 
3777.000000	96.710898 
3776.000000	96.710277 
3775.000000	96.709638 
3774.000000	96.709008 
3773.000000	96.708395 
3772.000000	96.707796 
3771.000000	96.707212 
3770.000000	96.706650 
3769.000000	96.706105 
3768.000000	96.705556 
3767.000000	96.704983 
3766.000000	96.704392 
3765.000000	96.703806 
3764.000000	96.703245 
3763.000000	96.702705 
3762.000000	96.702165 
3761.000000	96.701612 
3760.000000	96.701044 
3759.000000	96.700459 
3758.000000	96.699845 
3757.000000	96.699201 
3756.000000	96.698538 
3755.000000	96.697869 
3754.000000	96.697190 
3753.000000	96.696506 
3752.000000	96.695836 
3751.000000	96.695195 
3750.000000	96.694573 
3749.000000	96.693953 
3748.000000	96.693339 
3747.000000	96.692734 
3746.000000	96.692124 
3745.000000	96.691496 
3744.000000	96.690867 
3743.000000	96.690248 
3742.000000	96.689615 
3741.000000	96.688947 
3740.000000	96.688247 
3739.000000	96.687529 
3738.000000	96.686791 
3737.000000	96.686011 
3736.000000	96.685184 
3735.000000	96.684333 
3734.000000	96.683475 
3733.000000	96.682596 
3732.000000	96.681673 
3731.000000	96.680702 
3730.000000	96.679687 
3729.000000	96.678629 
3728.000000	96.677522 
3727.000000	96.676365 
3726.000000	96.675166 
3725.000000	96.673932 
3724.000000	96.672661 
3723.000000	96.671346 
3722.000000	96.670011 
3721.000000	96.668728 
3720.000000	96.667529 
3719.000000	96.666251 
3718.000000	96.664604 
3717.000000	96.662596 
3716.000000	96.660662 
3715.000000	96.658922 
3714.000000	96.656845 
3713.000000	96.654249 
3712.000000	96.652157 
3711.000000	96.651342 
3710.000000	96.650847 
3709.000000	96.649334 
3708.000000	96.646219 
3707.000000	96.641774 
3706.000000	96.637137 
3705.000000	96.633581 
3704.000000	96.631512 
3703.000000	96.630091 
3702.000000	96.627706 
3701.000000	96.623098 
3700.000000	96.616361 
3699.000000	96.608715 
3698.000000	96.600852 
3697.000000	96.593392 
3696.000000	96.587922 
3695.000000	96.584616 
3694.000000	96.580981 
3693.000000	96.575420 
3692.000000	96.570197 
3691.000000	96.568786 
3690.000000	96.570786 
3689.000000	96.572155 
3688.000000	96.569734 
3687.000000	96.563712 
3686.000000	96.555488 
3685.000000	96.545355 
3684.000000	96.534244 
3683.000000	96.525090 
3682.000000	96.519109 
3681.000000	96.513090 
3680.000000	96.504487 
3679.000000	96.495582 
3678.000000	96.488996 
3677.000000	96.481205 
3676.000000	96.469466 
3675.000000	96.458262 
3674.000000	96.450923 
3673.000000	96.445398 
3672.000000	96.437524 
3671.000000	96.426105 
3670.000000	96.416187 
3669.000000	96.411063 
3668.000000	96.406631 
3667.000000	96.398941 
3666.000000	96.389035 
3665.000000	96.379824 
3664.000000	96.372497 
3663.000000	96.365828 
3662.000000	96.357739 
3661.000000	96.347624 
3660.000000	96.336957 
3659.000000	96.327000 
3658.000000	96.317001 
3657.000000	96.304976 
3656.000000	96.291642 
3655.000000	96.279650 
3654.000000	96.269869 
3653.000000	96.260201 
3652.000000	96.247376 
3651.000000	96.232571 
3650.000000	96.222267 
3649.000000	96.217283 
3648.000000	96.210641 
3647.000000	96.200352 
3646.000000	96.191365 
3645.000000	96.186694 
3644.000000	96.184318 
3643.000000	96.181297 
3642.000000	96.177138 
3641.000000	96.173045 
3640.000000	96.168351 
3639.000000	96.161117 
3638.000000	96.152175 
3637.000000	96.144283 
3636.000000	96.137215 
3635.000000	96.126907 
3634.000000	96.112772 
3633.000000	96.100079 
3632.000000	96.091920 
3631.000000	96.081759 
3630.000000	96.062226 
3629.000000	96.043332 
3628.000000	96.038413 
3627.000000	96.042383 
3626.000000	96.043933 
3625.000000	96.040790 
3624.000000	96.038112 
3623.000000	96.040676 
3622.000000	96.046162 
3621.000000	96.046895 
3620.000000	96.039172 
3619.000000	96.027116 
3618.000000	96.016152 
3617.000000	96.009346 
3616.000000	96.008487 
3615.000000	96.012978 
3614.000000	96.021204 
3613.000000	96.032366 
3612.000000	96.044122 
3611.000000	96.050695 
3610.000000	96.047377 
3609.000000	96.037046 
3608.000000	96.029152 
3607.000000	96.029598 
3606.000000	96.035498 
3605.000000	96.041698 
3604.000000	96.046978 
3603.000000	96.053086 
3602.000000	96.060490 
3601.000000	96.067090 
3600.000000	96.071399 
3599.000000	96.073415 
3598.000000	96.073875 
3597.000000	96.074107 
3596.000000	96.075414 
3595.000000	96.076998 
3594.000000	96.077462 
3593.000000	96.076661 
3592.000000	96.076105 
3591.000000	96.076966 
3590.000000	96.077447 
3589.000000	96.074481 
3588.000000	96.068864 
3587.000000	96.065151 
3586.000000	96.065448 
3585.000000	96.068450 
3584.000000	96.072829 
3583.000000	96.078055 
3582.000000	96.083518 
3581.000000	96.088040 
3580.000000	96.090693 
3579.000000	96.091180 
3578.000000	96.089860 
3577.000000	96.087744 
3576.000000	96.086084 
3575.000000	96.085336 
3574.000000	96.084863 
3573.000000	96.084099 
3572.000000	96.083377 
3571.000000	96.083665 
3570.000000	96.084676 
3569.000000	96.084264 
3568.000000	96.081440 
3567.000000	96.078602 
3566.000000	96.077691 
3565.000000	96.077718 
3564.000000	96.077514 
3563.000000	96.077285 
3562.000000	96.077593 
3561.000000	96.078262 
3560.000000	96.078571 
3559.000000	96.078257 
3558.000000	96.077731 
3557.000000	96.077554 
3556.000000	96.077817 
3555.000000	96.078131 
3554.000000	96.078110 
3553.000000	96.077996 
3552.000000	96.078441 
3551.000000	96.079467 
3550.000000	96.080127 
3549.000000	96.079553 
3548.000000	96.078041 
3547.000000	96.076709 
3546.000000	96.075996 
3545.000000	96.075110 
3544.000000	96.073374 
3543.000000	96.071323 
3542.000000	96.070082 
3541.000000	96.070248 
3540.000000	96.071544 
3539.000000	96.073043 
3538.000000	96.073658 
3537.000000	96.072925 
3536.000000	96.071351 
3535.000000	96.069697 
3534.000000	96.068166 
3533.000000	96.066514 
3532.000000	96.064934 
3531.000000	96.064091 
3530.000000	96.064100 
3529.000000	96.063972 
3528.000000	96.062549 
3527.000000	96.059721 
3526.000000	96.056416 
3525.000000	96.053822 
3524.000000	96.052862 
3523.000000	96.053898 
3522.000000	96.056341 
3521.000000	96.058845 
3520.000000	96.060337 
3519.000000	96.060727 
3518.000000	96.060563 
3517.000000	96.060213 
3516.000000	96.059624 
3515.000000	96.058830 
3514.000000	96.058346 
3513.000000	96.058606 
3512.000000	96.059216 
3511.000000	96.059228 
3510.000000	96.058233 
3509.000000	96.056877 
3508.000000	96.056221 
3507.000000	96.056701 
3506.000000	96.057746 
3505.000000	96.058266 
3504.000000	96.057478 
3503.000000	96.055271 
3502.000000	96.052065 
3501.000000	96.048646 
3500.000000	96.045993 
3499.000000	96.044902 
3498.000000	96.045513 
3497.000000	96.047115 
3496.000000	96.048571 
3495.000000	96.049157 
3494.000000	96.049057 
3493.000000	96.049024 
3492.000000	96.049490 
3491.000000	96.050141 
3490.000000	96.050369 
3489.000000	96.049953 
3488.000000	96.049167 
3487.000000	96.048401 
3486.000000	96.047914 
3485.000000	96.047902 
3484.000000	96.048418 
3483.000000	96.049101 
3482.000000	96.049305 
3481.000000	96.048727 
3480.000000	96.047789 
3479.000000	96.047210 
3478.000000	96.047238 
3477.000000	96.047423 
3476.000000	96.047133 
3475.000000	96.046170 
3474.000000	96.044883 
3473.000000	96.043862 
3472.000000	96.043546 
3471.000000	96.043944 
3470.000000	96.044610 
3469.000000	96.044928 
3468.000000	96.044576 
3467.000000	96.043839 
3466.000000	96.043410 
3465.000000	96.043683 
3464.000000	96.044200 
3463.000000	96.043914 
3462.000000	96.042194 
3461.000000	96.039545 
3460.000000	96.037333 
3459.000000	96.036534 
3458.000000	96.036828 
3457.000000	96.036902 
3456.000000	96.035654 
3455.000000	96.033093 
3454.000000	96.030165 
3453.000000	96.027886 
3452.000000	96.026834 
3451.000000	96.027069 
3450.000000	96.028079 
3449.000000	96.028771 
3448.000000	96.028041 
3447.000000	96.025595 
3446.000000	96.022012 
3445.000000	96.018139 
3444.000000	96.014587 
3443.000000	96.011774 
3442.000000	96.009935 
3441.000000	96.008770 
3440.000000	96.007420 
3439.000000	96.005202 
3438.000000	96.002323 
3437.000000	95.999685 
3436.000000	95.998006 
3435.000000	95.997253 
3434.000000	95.996746 
3433.000000	95.995757 
3432.000000	95.994170 
3431.000000	95.992568 
3430.000000	95.991618 
3429.000000	95.991372 
3428.000000	95.991186 
3427.000000	95.990384 
3426.000000	95.988926 
3425.000000	95.987347 
3424.000000	95.986122 
3423.000000	95.985199 
3422.000000	95.984190 
3421.000000	95.982881 
3420.000000	95.981406 
3419.000000	95.980025 
3418.000000	95.978899 
3417.000000	95.978072 
3416.000000	95.977491 
3415.000000	95.976966 
3414.000000	95.976267 
3413.000000	95.975315 
3412.000000	95.974239 
3411.000000	95.973233 
3410.000000	95.972389 
3409.000000	95.971671 
3408.000000	95.970997 
3407.000000	95.970323 
3406.000000	95.969658 
3405.000000	95.969032 
3404.000000	95.968458 
3403.000000	95.967935 
3402.000000	95.967451 
3401.000000	95.967001 
3400.000000	95.966574 
3399.000000	95.966166 
3398.000000	95.965778 
3397.000000	95.965416 
3396.000000	95.965088 
3395.000000	95.964796 
3394.000000	95.964533 
3393.000000	95.964286 
3392.000000	95.964051 
3391.000000	95.963832 
3390.000000	95.963638 
3389.000000	95.963478 
3388.000000	95.963352 
3387.000000	95.963255 
3386.000000	95.963181 
3385.000000	95.963130 
3384.000000	95.963108 
3383.000000	95.963119 
3382.000000	95.963168 
3381.000000	95.963249 
3380.000000	95.963360 
3379.000000	95.963499 
3378.000000	95.963652 
3377.000000	95.963822 
3376.000000	95.964045 
3375.000000	95.964363 
3374.000000	95.964737 
3373.000000	95.965038 
3372.000000	95.965185 
3371.000000	95.965281 
3370.000000	95.965524 
3369.000000	95.965964 
3368.000000	95.966441 
3367.000000	95.966801 
3366.000000	95.967094 
3365.000000	95.967478 
3364.000000	95.967942 
3363.000000	95.968283 
3362.000000	95.968437 
3361.000000	95.968700 
3360.000000	95.969421 
3359.000000	95.970466 
3358.000000	95.971159 
3357.000000	95.970895 
3356.000000	95.969769 
3355.000000	95.968570 
3354.000000	95.968086 
3353.000000	95.968579 
3352.000000	95.969730 
3351.000000	95.971025 
3350.000000	95.972266 
3349.000000	95.973614 
3348.000000	95.975238 
3347.000000	95.977010 
3346.000000	95.978562 
3345.000000	95.979712 
3344.000000	95.980646 
3343.000000	95.981562 
3342.000000	95.982421 
3341.000000	95.983028 
3340.000000	95.983167 
3339.000000	95.982765 
3338.000000	95.982042 
3337.000000	95.981470 
3336.000000	95.981422 
3335.000000	95.981812 
3334.000000	95.982246 
3333.000000	95.982538 
3332.000000	95.982931 
3331.000000	95.983704 
3330.000000	95.984722 
3329.000000	95.985594 
3328.000000	95.986146 
3327.000000	95.986564 
3326.000000	95.987126 
3325.000000	95.987890 
3324.000000	95.988693 
3323.000000	95.989334 
3322.000000	95.989766 
3321.000000	95.990082 
3320.000000	95.990416 
3319.000000	95.990843 
3318.000000	95.991374 
3317.000000	95.991980 
3316.000000	95.992625 
3315.000000	95.993276 
3314.000000	95.993914 
3313.000000	95.994536 
3312.000000	95.995147 
3311.000000	95.995749 
3310.000000	95.996342 
3309.000000	95.996919 
3308.000000	95.997465 
3307.000000	95.997964 
3306.000000	95.998414 
3305.000000	95.998832 
3304.000000	95.999249 
3303.000000	95.999684 
3302.000000	96.000142 
3301.000000	96.000608 
3300.000000	96.001070 
3299.000000	96.001524 
3298.000000	96.001980 
3297.000000	96.002450 
3296.000000	96.002935 
3295.000000	96.003431 
3294.000000	96.003932 
3293.000000	96.004441 
3292.000000	96.004965 
3291.000000	96.005502 
3290.000000	96.006041 
3289.000000	96.006565 
3288.000000	96.007067 
3287.000000	96.007560 
3286.000000	96.008062 
3285.000000	96.008579 
3284.000000	96.009103 
3283.000000	96.009624 
3282.000000	96.010137 
3281.000000	96.010650 
3280.000000	96.011168 
3279.000000	96.011689 
3278.000000	96.012205 
3277.000000	96.012712 
3276.000000	96.013215 
3275.000000	96.013720 
3274.000000	96.014226 
3273.000000	96.014723 
3272.000000	96.015208 
3271.000000	96.015682 
3270.000000	96.016156 
3269.000000	96.016635 
3268.000000	96.017118 
3267.000000	96.017600 
3266.000000	96.018083 
3265.000000	96.018584 
3264.000000	96.019126 
3263.000000	96.019713 
3262.000000	96.020328 
3261.000000	96.020941 
3260.000000	96.021532 
3259.000000	96.022103 
3258.000000	96.022673 
3257.000000	96.023260 
3256.000000	96.023870 
3255.000000	96.024498 
3254.000000	96.025142 
3253.000000	96.025805 
3252.000000	96.026492 
3251.000000	96.027198 
3250.000000	96.027912 
3249.000000	96.028622 
3248.000000	96.029330 
3247.000000	96.030044 
3246.000000	96.030774 
3245.000000	96.031517 
3244.000000	96.032267 
3243.000000	96.033019 
3242.000000	96.033784 
3241.000000	96.034578 
3240.000000	96.035412 
3239.000000	96.036282 
3238.000000	96.037176 
3237.000000	96.038086 
3236.000000	96.039019 
3235.000000	96.039978 
3234.000000	96.040959 
3233.000000	96.041948 
3232.000000	96.042940 
3231.000000	96.043945 
3230.000000	96.044982 
3229.000000	96.046064 
3228.000000	96.047185 
3227.000000	96.048326 
3226.000000	96.049480 
3225.000000	96.050656 
3224.000000	96.051870 
3223.000000	96.053123 
3222.000000	96.054397 
3221.000000	96.055667 
3220.000000	96.056919 
3219.000000	96.058166 
3218.000000	96.059430 
3217.000000	96.060725 
3216.000000	96.062046 
3215.000000	96.063378 
3214.000000	96.064711 
3213.000000	96.066051 
3212.000000	96.067406 
3211.000000	96.068774 
3210.000000	96.070144 
3209.000000	96.071508 
3208.000000	96.072872 
3207.000000	96.074250 
3206.000000	96.075653 
3205.000000	96.077084 
3204.000000	96.078538 
3203.000000	96.080013 
3202.000000	96.081508 
3201.000000	96.083019 
3200.000000	96.084537 
3199.000000	96.086050 
3198.000000	96.087554 
3197.000000	96.089059 
3196.000000	96.090578 
3195.000000	96.092115 
3194.000000	96.093670 
3193.000000	96.095235 
3192.000000	96.096809 
3191.000000	96.098396 
3190.000000	96.099997 
3189.000000	96.101603 
3188.000000	96.103194 
3187.000000	96.104760 
3186.000000	96.106307 
3185.000000	96.107857 
3184.000000	96.109426 
3183.000000	96.111005 
3182.000000	96.112571 
3181.000000	96.114106 
3180.000000	96.115619 
3179.000000	96.117138 
3178.000000	96.118686 
3177.000000	96.120270 
3176.000000	96.121876 
3175.000000	96.123488 
3174.000000	96.125101 
3173.000000	96.126722 
3172.000000	96.128357 
3171.000000	96.130004 
3170.000000	96.131650 
3169.000000	96.133291 
3168.000000	96.134935 
3167.000000	96.136595 
3166.000000	96.138279 
3165.000000	96.139979 
3164.000000	96.141680 
3163.000000	96.143373 
3162.000000	96.145059 
3161.000000	96.146745 
3160.000000	96.148435 
3159.000000	96.150131 
3158.000000	96.151838 
3157.000000	96.153568 
3156.000000	96.155325 
3155.000000	96.157100 
3154.000000	96.158874 
3153.000000	96.160629 
3152.000000	96.162365 
3151.000000	96.164097 
3150.000000	96.165838 
3149.000000	96.167596 
3148.000000	96.169369 
3147.000000	96.171157 
3146.000000	96.172968 
3145.000000	96.174808 
3144.000000	96.176677 
3143.000000	96.178560 
3142.000000	96.180433 
3141.000000	96.182284 
3140.000000	96.184119 
3139.000000	96.185956 
3138.000000	96.187807 
3137.000000	96.189673 
3136.000000	96.191540 
3135.000000	96.193400 
3134.000000	96.195257 
3133.000000	96.197119 
3132.000000	96.198995 
3131.000000	96.200883 
3130.000000	96.202780 
3129.000000	96.204683 
3128.000000	96.206596 
3127.000000	96.208520 
3126.000000	96.210450 
3125.000000	96.212375 
3124.000000	96.214287 
3123.000000	96.216184 
3122.000000	96.218075 
3121.000000	96.219968 
3120.000000	96.221867 
3119.000000	96.223762 
3118.000000	96.225646 
3117.000000	96.227518 
3116.000000	96.229387 
3115.000000	96.231252 
3114.000000	96.233097 
3113.000000	96.234907 
3112.000000	96.236691 
3111.000000	96.238476 
3110.000000	96.240288 
3109.000000	96.242132 
3108.000000	96.243988 
3107.000000	96.245816 
3106.000000	96.247580 
3105.000000	96.249278 
3104.000000	96.250940 
3103.000000	96.252592 
3102.000000	96.254236 
3101.000000	96.255856 
3100.000000	96.257434 
3099.000000	96.258988 
3098.000000	96.260588 
3097.000000	96.262281 
3096.000000	96.264041 
3095.000000	96.265800 
3094.000000	96.267510 
3093.000000	96.269173 
3092.000000	96.270810 
3091.000000	96.272433 
3090.000000	96.274042 
3089.000000	96.275640 
3088.000000	96.277234 
3087.000000	96.278827 
3086.000000	96.280415 
3085.000000	96.281986 
3084.000000	96.283533 
3083.000000	96.285059 
3082.000000	96.286575 
3081.000000	96.288089 
3080.000000	96.289603 
3079.000000	96.291108 
3078.000000	96.292588 
3077.000000	96.294038 
3076.000000	96.295470 
3075.000000	96.296907 
3074.000000	96.298350 
3073.000000	96.299766 
3072.000000	96.301125 
3071.000000	96.302436 
3070.000000	96.303748 
3069.000000	96.305090 
3068.000000	96.306455 
3067.000000	96.307794 
3066.000000	96.309049 
3065.000000	96.310206 
3064.000000	96.311292 
3063.000000	96.312325 
3062.000000	96.313278 
3061.000000	96.314133 
3060.000000	96.314984 
3059.000000	96.315996 
3058.000000	96.317261 
3057.000000	96.318726 
3056.000000	96.320217 
3055.000000	96.321534 
3054.000000	96.322516 
3053.000000	96.323134 
3052.000000	96.323579 
3051.000000	96.324139 
3050.000000	96.324919 
3049.000000	96.325809 
3048.000000	96.326715 
3047.000000	96.327670 
3046.000000	96.328610 
3045.000000	96.329247 
3044.000000	96.329377 
3043.000000	96.329247 
3042.000000	96.329415 
3041.000000	96.330158 
3040.000000	96.331148 
3039.000000	96.331744 
3038.000000	96.331656 
3037.000000	96.331146 
3036.000000	96.330696 
3035.000000	96.330483 
3034.000000	96.330291 
3033.000000	96.329832 
3032.000000	96.329038 
3031.000000	96.328109 
3030.000000	96.327369 
3029.000000	96.327073 
3028.000000	96.327178 
3027.000000	96.327243 
3026.000000	96.326754 
3025.000000	96.325708 
3024.000000	96.324704 
3023.000000	96.324239 
3022.000000	96.324086 
3021.000000	96.323748 
3020.000000	96.323282 
3019.000000	96.323141 
3018.000000	96.323221 
3017.000000	96.322638 
3016.000000	96.320667 
3015.000000	96.317584 
3014.000000	96.314555 
3013.000000	96.312831 
3012.000000	96.312884 
3011.000000	96.313813 
3010.000000	96.313727 
3009.000000	96.311422 
3008.000000	96.307640 
3007.000000	96.304361 
3006.000000	96.302619 
3005.000000	96.301517 
3004.000000	96.299499 
3003.000000	96.296190 
3002.000000	96.292907 
3001.000000	96.291644 
3000.000000	96.293414 
2999.000000	96.297031 
2998.000000	96.299426 
2997.000000	96.298080 
2996.000000	96.293239 
2995.000000	96.287627 
2994.000000	96.283803 
2993.000000	96.282056 
2992.000000	96.280938 
2991.000000	96.279074 
2990.000000	96.276339 
2989.000000	96.273698 
2988.000000	96.272169 
2987.000000	96.271849 
2986.000000	96.272018 
2985.000000	96.272377 
2984.000000	96.273737 
2983.000000	96.276851 
2982.000000	96.280922 
2981.000000	96.284073 
2980.000000	96.285246 
2979.000000	96.284913 
2978.000000	96.283995 
2977.000000	96.282870 
2976.000000	96.281612 
2975.000000	96.280554 
2974.000000	96.280407 
2973.000000	96.282175 
2972.000000	96.286732 
2971.000000	96.293770 
2970.000000	96.301186 
2969.000000	96.306426 
2968.000000	96.308759 
2967.000000	96.309659 
2966.000000	96.310965 
2965.000000	96.313199 
2964.000000	96.315696 
2963.000000	96.317581 
2962.000000	96.318384 
2961.000000	96.318407 
2960.000000	96.318921 
2959.000000	96.321450 
2958.000000	96.326287 
2957.000000	96.331814 
2956.000000	96.335680 
2955.000000	96.336703 
2954.000000	96.335821 
2953.000000	96.335332 
2952.000000	96.336897 
2951.000000	96.340042 
2950.000000	96.342694 
2949.000000	96.343413 
2948.000000	96.342840 
2947.000000	96.342759 
2946.000000	96.343995 
2945.000000	96.345826 
2944.000000	96.347277 
2943.000000	96.348201 
2942.000000	96.348913 
2941.000000	96.349396 
2940.000000	96.349395 
2939.000000	96.349089 
2938.000000	96.349123 
2937.000000	96.349838 
2936.000000	96.350827 
2935.000000	96.351462 
2934.000000	96.351674 
2933.000000	96.351951 
2932.000000	96.352660 
2931.000000	96.353600 
2930.000000	96.354265 
2929.000000	96.354409 
2928.000000	96.354255 
2927.000000	96.354239 
2926.000000	96.354642 
2925.000000	96.355471 
2924.000000	96.356497 
2923.000000	96.357323 
2922.000000	96.357590 
2921.000000	96.357348 
2920.000000	96.357213 
2919.000000	96.357901 
2918.000000	96.359484 
2917.000000	96.361127 
2916.000000	96.361784 
2915.000000	96.361177 
2914.000000	96.359992 
2913.000000	96.359295 
2912.000000	96.359554 
2911.000000	96.360359 
2910.000000	96.360867 
2909.000000	96.360568 
2908.000000	96.359685 
2907.000000	96.358886 
2906.000000	96.358646 
2905.000000	96.358864 
2904.000000	96.359015 
2903.000000	96.358786 
2902.000000	96.358525 
2901.000000	96.358924 
2900.000000	96.360348 
2899.000000	96.362420 
2898.000000	96.364466 
2897.000000	96.366225 
2896.000000	96.367806 
2895.000000	96.369104 
2894.000000	96.369801 
2893.000000	96.370068 
2892.000000	96.370761 
2891.000000	96.372453 
2890.000000	96.374649 
2889.000000	96.376380 
2888.000000	96.377412 
2887.000000	96.378329 
2886.000000	96.379554 
2885.000000	96.380931 
2884.000000	96.382370 
2883.000000	96.384196 
2882.000000	96.386459 
2881.000000	96.388503 
2880.000000	96.389805 
2879.000000	96.390938 
2878.000000	96.393014 
2877.000000	96.396270 
2876.000000	96.399695 
2875.000000	96.402165 
2874.000000	96.403649 
2873.000000	96.404940 
2872.000000	96.406667 
2871.000000	96.408753 
2870.000000	96.410806 
2869.000000	96.412633 
2868.000000	96.414281 
2867.000000	96.415827 
2866.000000	96.417339 
2865.000000	96.418944 
2864.000000	96.420797 
2863.000000	96.422971 
2862.000000	96.425403 
2861.000000	96.427917 
2860.000000	96.430319 
2859.000000	96.432524 
2858.000000	96.434630 
2857.000000	96.436823 
2856.000000	96.439183 
2855.000000	96.441572 
2854.000000	96.443729 
2853.000000	96.445564 
2852.000000	96.447213 
2851.000000	96.448912 
2850.000000	96.450740 
2849.000000	96.452622 
2848.000000	96.454476 
2847.000000	96.456281 
2846.000000	96.458058 
2845.000000	96.459828 
2844.000000	96.461592 
2843.000000	96.463352 
2842.000000	96.465106 
2841.000000	96.466845 
2840.000000	96.468558 
2839.000000	96.470240 
2838.000000	96.471896 
2837.000000	96.473533 
2836.000000	96.475155 
2835.000000	96.476759 
2834.000000	96.478345 
2833.000000	96.479919 
2832.000000	96.481490 
2831.000000	96.483061 
2830.000000	96.484625 
2829.000000	96.486172 
2828.000000	96.487696 
2827.000000	96.489198 
2826.000000	96.490683 
2825.000000	96.492151 
2824.000000	96.493600 
2823.000000	96.495023 
2822.000000	96.496413 
2821.000000	96.497764 
2820.000000	96.499073 
2819.000000	96.500343 
2818.000000	96.501586 
2817.000000	96.502813 
2816.000000	96.504033 
2815.000000	96.505242 
2814.000000	96.506430 
2813.000000	96.507588 
2812.000000	96.508723 
2811.000000	96.509854 
2810.000000	96.510998 
2809.000000	96.512158 
2808.000000	96.513318 
2807.000000	96.514457 
2806.000000	96.515566 
2805.000000	96.516653 
2804.000000	96.517733 
2803.000000	96.518809 
2802.000000	96.519872 
2801.000000	96.520907 
2800.000000	96.521906 
2799.000000	96.522877 
2798.000000	96.523830 
2797.000000	96.524772 
2796.000000	96.525706 
2795.000000	96.526630 
2794.000000	96.527541 
2793.000000	96.528438 
2792.000000	96.529323 
2791.000000	96.530200 
2790.000000	96.531069 
2789.000000	96.531931 
2788.000000	96.532784 
2787.000000	96.533629 
2786.000000	96.534471 
2785.000000	96.535310 
2784.000000	96.536146 
2783.000000	96.536980 
2782.000000	96.537811 
2781.000000	96.538642 
2780.000000	96.539471 
2779.000000	96.540297 
2778.000000	96.541117 
2777.000000	96.541928 
2776.000000	96.542734 
2775.000000	96.543533 
2774.000000	96.544323 
2773.000000	96.545103 
2772.000000	96.545874 
2771.000000	96.546646 
2770.000000	96.547428 
2769.000000	96.548218 
2768.000000	96.549007 
2767.000000	96.549783 
2766.000000	96.550538 
2765.000000	96.551280 
2764.000000	96.552022 
2763.000000	96.552767 
2762.000000	96.553509 
2761.000000	96.554238 
2760.000000	96.554952 
2759.000000	96.555661 
2758.000000	96.556380 
2757.000000	96.557113 
2756.000000	96.557853 
2755.000000	96.558589 
2754.000000	96.559318 
2753.000000	96.560046 
2752.000000	96.560776 
2751.000000	96.561507 
2750.000000	96.562238 
2749.000000	96.562964 
2748.000000	96.563683 
2747.000000	96.564391 
2746.000000	96.565085 
2745.000000	96.565764 
2744.000000	96.566435 
2743.000000	96.567109 
2742.000000	96.567790 
2741.000000	96.568478 
2740.000000	96.569171 
2739.000000	96.569866 
2738.000000	96.570566 
2737.000000	96.571274 
2736.000000	96.571996 
2735.000000	96.572736 
2734.000000	96.573493 
2733.000000	96.574260 
2732.000000	96.575030 
2731.000000	96.575802 
2730.000000	96.576573 
2729.000000	96.577342 
2728.000000	96.578103 
2727.000000	96.578849 
2726.000000	96.579579 
2725.000000	96.580300 
2724.000000	96.581027 
2723.000000	96.581768 
2722.000000	96.582523 
2721.000000	96.583287 
2720.000000	96.584059 
2719.000000	96.584846 
2718.000000	96.585653 
2717.000000	96.586480 
2716.000000	96.587314 
2715.000000	96.588143 
2714.000000	96.588958 
2713.000000	96.589765 
2712.000000	96.590562 
2711.000000	96.591354 
2710.000000	96.592153 
2709.000000	96.592949 
2708.000000	96.593714 
2707.000000	96.594426 
2706.000000	96.595098 
2705.000000	96.595801 
2704.000000	96.596599 
2703.000000	96.597438 
2702.000000	96.598141 
2701.000000	96.598633 
2700.000000	96.599136 
2699.000000	96.600022 
2698.000000	96.601410 
2697.000000	96.602916 
2696.000000	96.603871 
2695.000000	96.603918 
2694.000000	96.603410 
2693.000000	96.603159 
2692.000000	96.603581 
2691.000000	96.604220 
2690.000000	96.604298 
2689.000000	96.603684 
2688.000000	96.603002 
2687.000000	96.602832 
2686.000000	96.603267 
2685.000000	96.604293 
2684.000000	96.605990 
2683.000000	96.607980 
2682.000000	96.609268 
2681.000000	96.609241 
2680.000000	96.608558 
2679.000000	96.608537 
2678.000000	96.609646 
2677.000000	96.611052 
2676.000000	96.611503 
2675.000000	96.610328 
2674.000000	96.607801 
2673.000000	96.605020 
2672.000000	96.603306 
2671.000000	96.603008 
2670.000000	96.603011 
2669.000000	96.601943 
2668.000000	96.599805 
2667.000000	96.597935 
2666.000000	96.597325 
2665.000000	96.597549 
2664.000000	96.597534 
2663.000000	96.596896 
2662.000000	96.596058 
2661.000000	96.595330 
2660.000000	96.594371 
2659.000000	96.592659 
2658.000000	96.590177 
2657.000000	96.587538 
2656.000000	96.585522 
2655.000000	96.584528 
2654.000000	96.584387 
2653.000000	96.584604 
2652.000000	96.584839 
2651.000000	96.585127 
2650.000000	96.585587 
2649.000000	96.586032 
2648.000000	96.586036 
2647.000000	96.585363 
2646.000000	96.584203 
2645.000000	96.582938 
2644.000000	96.581792 
2643.000000	96.580764 
2642.000000	96.579827 
2641.000000	96.579070 
2640.000000	96.578644 
2639.000000	96.578610 
2638.000000	96.578819 
2637.000000	96.578904 
2636.000000	96.578561 
2635.000000	96.577868 
2634.000000	96.577265 
2633.000000	96.577113 
2632.000000	96.577340 
2631.000000	96.577500 
2630.000000	96.577234 
2629.000000	96.576593 
2628.000000	96.575930 
2627.000000	96.575502 
2626.000000	96.575268 
2625.000000	96.575089 
2624.000000	96.574888 
2623.000000	96.574636 
2622.000000	96.574304 
2621.000000	96.573896 
2620.000000	96.573445 
2619.000000	96.572946 
2618.000000	96.572368 
2617.000000	96.571792 
2616.000000	96.571421 
2615.000000	96.571393 
2614.000000	96.571625 
2613.000000	96.571876 
2612.000000	96.571940 
2611.000000	96.571755 
2610.000000	96.571419 
2609.000000	96.571166 
2608.000000	96.571210 
2607.000000	96.571536 
2606.000000	96.571898 
2605.000000	96.572062 
2604.000000	96.571957 
2603.000000	96.571614 
2602.000000	96.571134 
2601.000000	96.570733 
2600.000000	96.570561 
2599.000000	96.570386 
2598.000000	96.569748 
2597.000000	96.568539 
2596.000000	96.567267 
2595.000000	96.566529 
2594.000000	96.566374 
2593.000000	96.566426 
2592.000000	96.566386 
2591.000000	96.566127 
2590.000000	96.565500 
2589.000000	96.564570 
2588.000000	96.563888 
2587.000000	96.563980 
2586.000000	96.564621 
2585.000000	96.565110 
2584.000000	96.565130 
2583.000000	96.564914 
2582.000000	96.564614 
2581.000000	96.564045 
2580.000000	96.563172 
2579.000000	96.562411 
2578.000000	96.562213 
2577.000000	96.562540 
2576.000000	96.562823 
2575.000000	96.562453 
2574.000000	96.561272 
2573.000000	96.559692 
2572.000000	96.558238 
2571.000000	96.557045 
2570.000000	96.555939 
2569.000000	96.554842 
2568.000000	96.553861 
2567.000000	96.553009 
2566.000000	96.552086 
2565.000000	96.550946 
2564.000000	96.549693 
2563.000000	96.548558 
2562.000000	96.547645 
2561.000000	96.546890 
2560.000000	96.546182 
2559.000000	96.545438 
2558.000000	96.544597 
2557.000000	96.543632 
2556.000000	96.542567 
2555.000000	96.541445 
2554.000000	96.540296 
2553.000000	96.539117 
2552.000000	96.537902 
2551.000000	96.536658 
2550.000000	96.535401 
2549.000000	96.534147 
2548.000000	96.532899 
2547.000000	96.531656 
2546.000000	96.530418 
2545.000000	96.529194 
2544.000000	96.527995 
2543.000000	96.526820 
2542.000000	96.525654 
2541.000000	96.524486 
2540.000000	96.523316 
2539.000000	96.522158 
2538.000000	96.521028 
2537.000000	96.519934 
2536.000000	96.518872 
2535.000000	96.517830 
2534.000000	96.516804 
2533.000000	96.515802 
2532.000000	96.514843 
2531.000000	96.513939 
2530.000000	96.513081 
2529.000000	96.512246 
2528.000000	96.511417 
2527.000000	96.510600 
2526.000000	96.509814 
2525.000000	96.509079 
2524.000000	96.508399 
2523.000000	96.507768 
2522.000000	96.507173 
2521.000000	96.506596 
2520.000000	96.506028 
2519.000000	96.505464 
2518.000000	96.504906 
2517.000000	96.504360 
2516.000000	96.503833 
2515.000000	96.503334 
2514.000000	96.502874 
2513.000000	96.502483 
2512.000000	96.502197 
2511.000000	96.502040 
2510.000000	96.502019 
2509.000000	96.502111 
2508.000000	96.502257 
2507.000000	96.502382 
2506.000000	96.502448 
2505.000000	96.502483 
2504.000000	96.502546 
2503.000000	96.502663 
2502.000000	96.502806 
2501.000000	96.502943 
2500.000000	96.503080 
2499.000000	96.503243 
2498.000000	96.503468 
2497.000000	96.503769 
2496.000000	96.504144 
2495.000000	96.504564 
2494.000000	96.504990 
2493.000000	96.505399 
2492.000000	96.505806 
2491.000000	96.506249 
2490.000000	96.506744 
2489.000000	96.507244 
2488.000000	96.507677 
2487.000000	96.508014 
2486.000000	96.508295 
2485.000000	96.508614 
2484.000000	96.509034 
2483.000000	96.509559 
2482.000000	96.510121 
2481.000000	96.510604 
2480.000000	96.510940 
2479.000000	96.511175 
2478.000000	96.511470 
2477.000000	96.511957 
2476.000000	96.512610 
2475.000000	96.513244 
2474.000000	96.513667 
2473.000000	96.513838 
2472.000000	96.513926 
2471.000000	96.514239 
2470.000000	96.515036 
2469.000000	96.516301 
2468.000000	96.517577 
2467.000000	96.518257 
2466.000000	96.518232 
2465.000000	96.518227 
2464.000000	96.519100 
2463.000000	96.520849 
2462.000000	96.522719 
2461.000000	96.524322 
2460.000000	96.526034 
2459.000000	96.528103 
2458.000000	96.529836 
2457.000000	96.530267 
2456.000000	96.529232 
2455.000000	96.527378 
2454.000000	96.525661 
2453.000000	96.524824 
2452.000000	96.524987 
2451.000000	96.525559 
2450.000000	96.525777 
2449.000000	96.525542 
2448.000000	96.525423 
2447.000000	96.525760 
2446.000000	96.526172 
2445.000000	96.526036 
2444.000000	96.525141 
2443.000000	96.523883 
2442.000000	96.523147 
2441.000000	96.523790 
2440.000000	96.525779 
2439.000000	96.528071 
2438.000000	96.529828 
2437.000000	96.531469 
2436.000000	96.533754 
2435.000000	96.536201 
2434.000000	96.537498 
2433.000000	96.537289 
2432.000000	96.536642 
2431.000000	96.536804 
2430.000000	96.538110 
2429.000000	96.540198 
2428.000000	96.542468 
2427.000000	96.544106 
2426.000000	96.544356 
2425.000000	96.543144 
2424.000000	96.541440 
2423.000000	96.540449 
2422.000000	96.540532 
2421.000000	96.541514 
2420.000000	96.543387 
2419.000000	96.545945 
2418.000000	96.548204 
2417.000000	96.549296 
2416.000000	96.549697 
2415.000000	96.550638 
2414.000000	96.552375 
2413.000000	96.554156 
2412.000000	96.555682 
2411.000000	96.557309 
2410.000000	96.559131 
2409.000000	96.561104 
2408.000000	96.563530 
2407.000000	96.566138 
2406.000000	96.567387 
2405.000000	96.566036 
2404.000000	96.562893 
2403.000000	96.559954 
2402.000000	96.558447 
2401.000000	96.558637 
2400.000000	96.560456 
2399.000000	96.563195 
2398.000000	96.565804 
2397.000000	96.568710 
2396.000000	96.573652 
2395.000000	96.580078 
2394.000000	96.583681 
2393.000000	96.581232 
2392.000000	96.575464 
2391.000000	96.572146 
2390.000000	96.572938 
2389.000000	96.574408 
2388.000000	96.573847 
2387.000000	96.572340 
2386.000000	96.571525 
2385.000000	96.570900 
2384.000000	96.570006 
2383.000000	96.570799 
2382.000000	96.575984 
2381.000000	96.586533 
2380.000000	96.601873 
2379.000000	96.620808 
2378.000000	96.640543 
2377.000000	96.656072 
2376.000000	96.662989 
2375.000000	96.660902 
2374.000000	96.653116 
2373.000000	96.643409 
2372.000000	96.634344 
2371.000000	96.628092 
2370.000000	96.626341 
2369.000000	96.628429 
2368.000000	96.630817 
2367.000000	96.629804 
2366.000000	96.625350 
2365.000000	96.621912 
2364.000000	96.624049 
2363.000000	96.631121 
2362.000000	96.638914 
2361.000000	96.644480 
2360.000000	96.646991 
2359.000000	96.646672 
2358.000000	96.643462 
2357.000000	96.638956 
2356.000000	96.636289 
2355.000000	96.637464 
2354.000000	96.642939 
2353.000000	96.648578 
2352.000000	96.650609 
2351.000000	96.647334 
2350.000000	96.638938 
2349.000000	96.629136 
2348.000000	96.623190 
2347.000000	96.624201 
2346.000000	96.625930 
2345.000000	96.622019 
2344.000000	96.615307 
2343.000000	96.610808 
2342.000000	96.613531 
2341.000000	96.624606 
2340.000000	96.641147 
2339.000000	96.654187 
2338.000000	96.656450 
2337.000000	96.649113 
2336.000000	96.639334 
2335.000000	96.632356 
2334.000000	96.626838 
2333.000000	96.618879 
2332.000000	96.607449 
2331.000000	96.595284 
2330.000000	96.581405 
2329.000000	96.564137 
2328.000000	96.541513 
2327.000000	96.520391 
2326.000000	96.505760 
2325.000000	96.499397 
2324.000000	96.498910 
2323.000000	96.501670 
2322.000000	96.505305 
2321.000000	96.505870 
2320.000000	96.503411 
2319.000000	96.503023 
2318.000000	96.509362 
2317.000000	96.521347 
2316.000000	96.532545 
2315.000000	96.538439 
2314.000000	96.536491 
2313.000000	96.528465 
2312.000000	96.517231 
2311.000000	96.508261 
2310.000000	96.502875 
2309.000000	96.499653 
2308.000000	96.495658 
2307.000000	96.492009 
2306.000000	96.489787 
2305.000000	96.488491 
2304.000000	96.486340 
2303.000000	96.484642 
2302.000000	96.485603 
2301.000000	96.489688 
2300.000000	96.494174 
2299.000000	96.496816 
2298.000000	96.495898 
2297.000000	96.491012 
2296.000000	96.482367 
2295.000000	96.473111 
2294.000000	96.466780 
2293.000000	96.464798 
2292.000000	96.465146 
2291.000000	96.465608 
2290.000000	96.465639 
2289.000000	96.466012 
2288.000000	96.466797 
2287.000000	96.467017 
2286.000000	96.465961 
2285.000000	96.464160 
2284.000000	96.462911 
2283.000000	96.462620 
2282.000000	96.462419 
2281.000000	96.461148 
2280.000000	96.458650 
2279.000000	96.455390 
2278.000000	96.451690 
2277.000000	96.447824 
2276.000000	96.444827 
2275.000000	96.444174 
2274.000000	96.446485 
2273.000000	96.451199 
2272.000000	96.457112 
2271.000000	96.462684 
2270.000000	96.466083 
2269.000000	96.466259 
2268.000000	96.464188 
2267.000000	96.462342 
2266.000000	96.462394 
2265.000000	96.464013 
2264.000000	96.465754 
2263.000000	96.466307 
2262.000000	96.464873 
2261.000000	96.461457 
2260.000000	96.457291 
2259.000000	96.454078 
2258.000000	96.452568 
2257.000000	96.452478 
2256.000000	96.453801 
2255.000000	96.456899 
2254.000000	96.460902 
2253.000000	96.463184 
2252.000000	96.461805 
2251.000000	96.457373 
2250.000000	96.452116 
2249.000000	96.447669 
2248.000000	96.444452 
2247.000000	96.442617 
2246.000000	96.442197 
2245.000000	96.442421 
2244.000000	96.441891 
2243.000000	96.439855 
2242.000000	96.436905 
2241.000000	96.434435 
2240.000000	96.433420 
2239.000000	96.433740 
2238.000000	96.434366 
2237.000000	96.434198 
2236.000000	96.432939 
2235.000000	96.431036 
2234.000000	96.429004 
2233.000000	96.427007 
2232.000000	96.425107 
2231.000000	96.423513 
2230.000000	96.422251 
2229.000000	96.420886 
2228.000000	96.419068 
2227.000000	96.417192 
2226.000000	96.415907 
2225.000000	96.415083 
2224.000000	96.413795 
2223.000000	96.411484 
2222.000000	96.408716 
2221.000000	96.406538 
2220.000000	96.405079 
2219.000000	96.403438 
2218.000000	96.400835 
2217.000000	96.397432 
2216.000000	96.393969 
2215.000000	96.390796 
2214.000000	96.387593 
2213.000000	96.384101 
2212.000000	96.380797 
2211.000000	96.378426 
2210.000000	96.377071 
2209.000000	96.376021 
2208.000000	96.374513 
2207.000000	96.372416 
2206.000000	96.370037 
2205.000000	96.367627 
2204.000000	96.365310 
2203.000000	96.363422 
2202.000000	96.362374 
2201.000000	96.361821 
2200.000000	96.360389 
2199.000000	96.356793 
2198.000000	96.351048 
2197.000000	96.344588 
2196.000000	96.339084 
2195.000000	96.334977 
2194.000000	96.331419 
2193.000000	96.327768 
2192.000000	96.324940 
2191.000000	96.324529 
2190.000000	96.326566 
2189.000000	96.328905 
2188.000000	96.329000 
2187.000000	96.325432 
2186.000000	96.317678 
2185.000000	96.306452 
2184.000000	96.295369 
2183.000000	96.290008 
2182.000000	96.292982 
2181.000000	96.300492 
2180.000000	96.305228 
2179.000000	96.303946 
2178.000000	96.299819 
2177.000000	96.297726 
2176.000000	96.299168 
2175.000000	96.302356 
2174.000000	96.305524 
2173.000000	96.308723 
2172.000000	96.312700 
2171.000000	96.316819 
2170.000000	96.318394 
2169.000000	96.314708 
2168.000000	96.306459 
2167.000000	96.298479 
2166.000000	96.295054 
2165.000000	96.294628 
2164.000000	96.291387 
2163.000000	96.283555 
2162.000000	96.277846 
2161.000000	96.282660 
2160.000000	96.298730 
2159.000000	96.318838 
2158.000000	96.336495 
2157.000000	96.351411 
2156.000000	96.364356 
2155.000000	96.372270 
2154.000000	96.372313 
2153.000000	96.368038 
2152.000000	96.367216 
2151.000000	96.372712 
2150.000000	96.379355 
2149.000000	96.381246 
2148.000000	96.379456 
2147.000000	96.379856 
2146.000000	96.385423 
2145.000000	96.394245 
2144.000000	96.403932 
2143.000000	96.414095 
2142.000000	96.423975 
2141.000000	96.431207 
2140.000000	96.434776 
2139.000000	96.437193 
2138.000000	96.442123 
2137.000000	96.450766 
2136.000000	96.461024 
2135.000000	96.469146 
2134.000000	96.472380 
2133.000000	96.471770 
2132.000000	96.472300 
2131.000000	96.478020 
2130.000000	96.486953 
2129.000000	96.492914 
2128.000000	96.492841 
2127.000000	96.490219 
2126.000000	96.490648 
2125.000000	96.495854 
2124.000000	96.503451 
2123.000000	96.510534 
2122.000000	96.515370 
2121.000000	96.516863 
2120.000000	96.514972 
2119.000000	96.511689 
2118.000000	96.510120 
2117.000000	96.512015 
2116.000000	96.516182 
2115.000000	96.519146 
2114.000000	96.517456 
2113.000000	96.510416 
2112.000000	96.501554 
2111.000000	96.496405 
2110.000000	96.497420 
2109.000000	96.501898 
2108.000000	96.505363 
2107.000000	96.506449 
2106.000000	96.507186 
2105.000000	96.509495 
2104.000000	96.513243 
2103.000000	96.516847 
2102.000000	96.518143 
2101.000000	96.515504 
2100.000000	96.510028 
2099.000000	96.506218 
2098.000000	96.508175 
2097.000000	96.515171 
2096.000000	96.522494 
2095.000000	96.527166 
2094.000000	96.530771 
2093.000000	96.535607 
2092.000000	96.540425 
2091.000000	96.541989 
2090.000000	96.539724 
2089.000000	96.536685 
2088.000000	96.535830 
2087.000000	96.536648 
2086.000000	96.536445 
2085.000000	96.534019 
2084.000000	96.530961 
2083.000000	96.529468 
2082.000000	96.529907 
2081.000000	96.531047 
2080.000000	96.532104 
2079.000000	96.533547 
2078.000000	96.535810 
2077.000000	96.538074 
2076.000000	96.538978 
2075.000000	96.538171 
2074.000000	96.536371 
2073.000000	96.534011 
2072.000000	96.530507 
2071.000000	96.525277 
2070.000000	96.519072 
2069.000000	96.513891 
2068.000000	96.511554 
2067.000000	96.512255 
2066.000000	96.514248 
2065.000000	96.514752 
2064.000000	96.511872 
2063.000000	96.505989 
2062.000000	96.499712 
2061.000000	96.496164 
2060.000000	96.496353 
2059.000000	96.498974 
2058.000000	96.501663 
2057.000000	96.502795 
2056.000000	96.502261 
2055.000000	96.500447 
2054.000000	96.497608 
2053.000000	96.494058 
2052.000000	96.490387 
2051.000000	96.487155 
2050.000000	96.484427 
2049.000000	96.481982 
2048.000000	96.479662 
2047.000000	96.477419 
2046.000000	96.475238 
2045.000000	96.473150 
2044.000000	96.471214 
2043.000000	96.469406 
2042.000000	96.467641 
2041.000000	96.465886 
2040.000000	96.464183 
2039.000000	96.462559 
2038.000000	96.460970 
2037.000000	96.459375 
2036.000000	96.457777 
2035.000000	96.456191 
2034.000000	96.454619 
2033.000000	96.453057 
2032.000000	96.451500 
2031.000000	96.449942 
2030.000000	96.448379 
2029.000000	96.446812 
2028.000000	96.445250 
2027.000000	96.443705 
2026.000000	96.442184 
2025.000000	96.440689 
2024.000000	96.439234 
2023.000000	96.437845 
2022.000000	96.436529 
2021.000000	96.435250 
2020.000000	96.433935 
2019.000000	96.432523 
2018.000000	96.430999 
2017.000000	96.429396 
2016.000000	96.427778 
2015.000000	96.426208 
2014.000000	96.424724 
2013.000000	96.423336 
2012.000000	96.422053 
2011.000000	96.420893 
2010.000000	96.419874 
2009.000000	96.418975 
2008.000000	96.418126 
2007.000000	96.417255 
2006.000000	96.416329 
2005.000000	96.415365 
2004.000000	96.414398 
2003.000000	96.413456 
2002.000000	96.412543 
2001.000000	96.411636 
2000.000000	96.410695 
1999.000000	96.409692 
1998.000000	96.408650 
1997.000000	96.407628 
1996.000000	96.406690 
1995.000000	96.405860 
1994.000000	96.405124 
1993.000000	96.404462 
1992.000000	96.403870 
1991.000000	96.403371 
1990.000000	96.402994 
1989.000000	96.402761 
1988.000000	96.402668 
1987.000000	96.402686 
1986.000000	96.402781 
1985.000000	96.402934 
1984.000000	96.403145 
1983.000000	96.403418 
1982.000000	96.403751 
1981.000000	96.404145 
1980.000000	96.404608 
1979.000000	96.405167 
1978.000000	96.405849 
1977.000000	96.406658 
1976.000000	96.407584 
1975.000000	96.408642 
1974.000000	96.409893 
1973.000000	96.411376 
1972.000000	96.413050 
1971.000000	96.414816 
1970.000000	96.416590 
1969.000000	96.418340 
1968.000000	96.420069 
1967.000000	96.421803 
1966.000000	96.423600 
1965.000000	96.425533 
1964.000000	96.427659 
1963.000000	96.429979 
1962.000000	96.432439 
1961.000000	96.434970 
1960.000000	96.437524 
1959.000000	96.440087 
1958.000000	96.442680 
1957.000000	96.445341 
1956.000000	96.448089 
1955.000000	96.450896 
1954.000000	96.453691 
1953.000000	96.456415 
1952.000000	96.459073 
1951.000000	96.461729 
1950.000000	96.464435 
1949.000000	96.467202 
1948.000000	96.470014 
1947.000000	96.472852 
1946.000000	96.475676 
1945.000000	96.478408 
1944.000000	96.480971 
1943.000000	96.483341 
1942.000000	96.485590 
1941.000000	96.487867 
1940.000000	96.490328 
1939.000000	96.493024 
1938.000000	96.495844 
1937.000000	96.498624 
1936.000000	96.501339 
1935.000000	96.504050 
1934.000000	96.506745 
1933.000000	96.509331 
1932.000000	96.511807 
1931.000000	96.514274 
1930.000000	96.516768 
1929.000000	96.519165 
1928.000000	96.521449 
1927.000000	96.523774 
1926.000000	96.526074 
1925.000000	96.527956 
1924.000000	96.529199 
1923.000000	96.530250 
1922.000000	96.531761 
1921.000000	96.533821 
1920.000000	96.536005 
1919.000000	96.537802 
1918.000000	96.538731 
1917.000000	96.538543 
1916.000000	96.537815 
1915.000000	96.537749 
1914.000000	96.538984 
1913.000000	96.541064 
1912.000000	96.543284 
1911.000000	96.545673 
1910.000000	96.548342 
1909.000000	96.550579 
1908.000000	96.551658 
1907.000000	96.551693 
1906.000000	96.551170 
1905.000000	96.550157 
1904.000000	96.548767 
1903.000000	96.547962 
1902.000000	96.548582 
1901.000000	96.550192 
1900.000000	96.551854 
1899.000000	96.553317 
1898.000000	96.554627 
1897.000000	96.555330 
1896.000000	96.554984 
1895.000000	96.554083 
1894.000000	96.553567 
1893.000000	96.553628 
1892.000000	96.553737 
1891.000000	96.553601 
1890.000000	96.553488 
1889.000000	96.553737 
1888.000000	96.554410 
1887.000000	96.555447 
1886.000000	96.556592 
1885.000000	96.557273 
1884.000000	96.557071 
1883.000000	96.556269 
1882.000000	96.555750 
1881.000000	96.556134 
1880.000000	96.557367 
1879.000000	96.558885 
1878.000000	96.560051 
1877.000000	96.560742 
1876.000000	96.561439 
1875.000000	96.562762 
1874.000000	96.564813 
1873.000000	96.567002 
1872.000000	96.568671 
1871.000000	96.569724 
1870.000000	96.570390 
1869.000000	96.570788 
1868.000000	96.571031 
1867.000000	96.571496 
1866.000000	96.572333 
1865.000000	96.573096 
1864.000000	96.573531 
1863.000000	96.574335 
1862.000000	96.576325 
1861.000000	96.579164 
1860.000000	96.581605 
1859.000000	96.583193 
1858.000000	96.584681 
1857.000000	96.586737 
1856.000000	96.589251 
1855.000000	96.591862 
1854.000000	96.594289 
1853.000000	96.595958 
1852.000000	96.596737 
1851.000000	96.597594 
1850.000000	96.599410 
1849.000000	96.601783 
1848.000000	96.603567 
1847.000000	96.604611 
1846.000000	96.605800 
1845.000000	96.607635 
1844.000000	96.609893 
1843.000000	96.612381 
1842.000000	96.615075 
1841.000000	96.617486 
1840.000000	96.619436 
1839.000000	96.621787 
1838.000000	96.625557 
1837.000000	96.629850 
1836.000000	96.632301 
1835.000000	96.632183 
1834.000000	96.630747 
1833.000000	96.629017 
1832.000000	96.627346 
1831.000000	96.626205 
1830.000000	96.626406 
1829.000000	96.628249 
1828.000000	96.630832 
1827.000000	96.633551 
1826.000000	96.636326 
1825.000000	96.638953 
1824.000000	96.640622 
1823.000000	96.641160 
1822.000000	96.642112 
1821.000000	96.644573 
1820.000000	96.647424 
1819.000000	96.648855 
1818.000000	96.649396 
1817.000000	96.650399 
1816.000000	96.650914 
1815.000000	96.650323 
1814.000000	96.650408 
1813.000000	96.653072 
1812.000000	96.656413 
1811.000000	96.655868 
1810.000000	96.651024 
1809.000000	96.646059 
1808.000000	96.644201 
1807.000000	96.645561 
1806.000000	96.648306 
1805.000000	96.649449 
1804.000000	96.646041 
1803.000000	96.638589 
1802.000000	96.631439 
1801.000000	96.629148 
1800.000000	96.631164 
1799.000000	96.632842 
1798.000000	96.631996 
1797.000000	96.629202 
1796.000000	96.625754 
1795.000000	96.624175 
1794.000000	96.626802 
1793.000000	96.632849 
1792.000000	96.637343 
1791.000000	96.637566 
1790.000000	96.638196 
1789.000000	96.643963 
1788.000000	96.653656 
1787.000000	96.662331 
1786.000000	96.666645 
1785.000000	96.667368 
1784.000000	96.667418 
1783.000000	96.669738 
1782.000000	96.674344 
1781.000000	96.679261 
1780.000000	96.682845 
1779.000000	96.684516 
1778.000000	96.685640 
1777.000000	96.687412 
1776.000000	96.690212 
1775.000000	96.693710 
1774.000000	96.696821 
1773.000000	96.699388 
1772.000000	96.702080 
1771.000000	96.704164 
1770.000000	96.705441 
1769.000000	96.706844 
1768.000000	96.708733 
1767.000000	96.710846 
1766.000000	96.712785 
1765.000000	96.714736 
1764.000000	96.716814 
1763.000000	96.718570 
1762.000000	96.719896 
1761.000000	96.721920 
1760.000000	96.725337 
1759.000000	96.729440 
1758.000000	96.733032 
1757.000000	96.735605 
1756.000000	96.738082 
1755.000000	96.740947 
1754.000000	96.743428 
1753.000000	96.744731 
1752.000000	96.745152 
1751.000000	96.746063 
1750.000000	96.748418 
1749.000000	96.751677 
1748.000000	96.754571 
1747.000000	96.756556 
1746.000000	96.757611 
1745.000000	96.758349 
1744.000000	96.759525 
1743.000000	96.760870 
1742.000000	96.761634 
1741.000000	96.762210 
1740.000000	96.763893 
1739.000000	96.767107 
1738.000000	96.770672 
1737.000000	96.773192 
1736.000000	96.773710 
1735.000000	96.772153 
1734.000000	96.771164 
1733.000000	96.772583 
1732.000000	96.775760 
1731.000000	96.779350 
1730.000000	96.781689 
1729.000000	96.781701 
1728.000000	96.780684 
1727.000000	96.780851 
1726.000000	96.782301 
1725.000000	96.783728 
1724.000000	96.783849 
1723.000000	96.782824 
1722.000000	96.782676 
1721.000000	96.784537 
1720.000000	96.787410 
1719.000000	96.788801 
1718.000000	96.787188 
1717.000000	96.782861 
1716.000000	96.776703 
1715.000000	96.771561 
1714.000000	96.769865 
1713.000000	96.770027 
1712.000000	96.768734 
1711.000000	96.765971 
1710.000000	96.764177 
1709.000000	96.763994 
1708.000000	96.763941 
1707.000000	96.763304 
1706.000000	96.763086 
1705.000000	96.762983 
1704.000000	96.760193 
1703.000000	96.753835 
1702.000000	96.745512 
1701.000000	96.739028 
1700.000000	96.737027 
1699.000000	96.735996 
1698.000000	96.735133 
1697.000000	96.735021 
1696.000000	96.734327 
1695.000000	96.732523 
1694.000000	96.730466 
1693.000000	96.728903 
1692.000000	96.727573 
1691.000000	96.726072 
1690.000000	96.724215 
1689.000000	96.721660 
1688.000000	96.718560 
1687.000000	96.715427 
1686.000000	96.712793 
1685.000000	96.711070 
1684.000000	96.709238 
1683.000000	96.706056 
1682.000000	96.702539 
1681.000000	96.699572 
1680.000000	96.697351 
1679.000000	96.695514 
1678.000000	96.693290 
1677.000000	96.690295 
1676.000000	96.687122 
1675.000000	96.684696 
1674.000000	96.682403 
1673.000000	96.679479 
1672.000000	96.676308 
1671.000000	96.673598 
1670.000000	96.671519 
1669.000000	96.669490 
1668.000000	96.667798 
1667.000000	96.667088 
1666.000000	96.666702 
1665.000000	96.665947 
1664.000000	96.665135 
1663.000000	96.665002 
1662.000000	96.664483 
1661.000000	96.661885 
1660.000000	96.658676 
1659.000000	96.657240 
1658.000000	96.657388 
1657.000000	96.657006 
1656.000000	96.654461 
1655.000000	96.648818 
1654.000000	96.641326 
1653.000000	96.637842 
1652.000000	96.636012 
1651.000000	96.634400 
1650.000000	96.633509 
1649.000000	96.632649 
1648.000000	96.630879 
1647.000000	96.629255 
1646.000000	96.628962 
1645.000000	96.629880 
1644.000000	96.631282 
1643.000000	96.632663 
1642.000000	96.633870 
1641.000000	96.634615 
1640.000000	96.635291 
1639.000000	96.635147 
1638.000000	96.633103 
1637.000000	96.629432 
1636.000000	96.627280 
1635.000000	96.628401 
1634.000000	96.630430 
1633.000000	96.632014 
1632.000000	96.632573 
1631.000000	96.632635 
1630.000000	96.633015 
1629.000000	96.633876 
1628.000000	96.635219 
1627.000000	96.637480 
1626.000000	96.639999 
1625.000000	96.642008 
1624.000000	96.644846 
1623.000000	96.649920 
1622.000000	96.654702 
1621.000000	96.655816 
1620.000000	96.654301 
1619.000000	96.652889 
1618.000000	96.652697 
1617.000000	96.652602 
1616.000000	96.651905 
1615.000000	96.652728 
1614.000000	96.656329 
1613.000000	96.660747 
1612.000000	96.664181 
1611.000000	96.666999 
1610.000000	96.669267 
1609.000000	96.671066 
1608.000000	96.675017 
1607.000000	96.683079 
1606.000000	96.691590 
1605.000000	96.695813 
1604.000000	96.696969 
1603.000000	96.698425 
1602.000000	96.700577 
1601.000000	96.702802 
1600.000000	96.706536 
1599.000000	96.712525 
1598.000000	96.717989 
1597.000000	96.720754 
1596.000000	96.722792 
1595.000000	96.727089 
1594.000000	96.733043 
1593.000000	96.738015 
1592.000000	96.741807 
1591.000000	96.745776 
1590.000000	96.749237 
1589.000000	96.750909 
1588.000000	96.752747 
1587.000000	96.757268 
1586.000000	96.762520 
1585.000000	96.763885 
1584.000000	96.762775 
1583.000000	96.764621 
1582.000000	96.769236 
1581.000000	96.772322 
1580.000000	96.772925 
1579.000000	96.772501 
1578.000000	96.770926 
1577.000000	96.770626 
1576.000000	96.776687 
1575.000000	96.786064 
1574.000000	96.789999 
1573.000000	96.786715 
1572.000000	96.781751 
1571.000000	96.781629 
1570.000000	96.786461 
1569.000000	96.787948 
1568.000000	96.785344 
1567.000000	96.783745 
1566.000000	96.782651 
1565.000000	96.780052 
1564.000000	96.779292 
1563.000000	96.779540 
1562.000000	96.774184 
1561.000000	96.754116 
1560.000000	96.734175 
1559.000000	96.739152 
1558.000000	96.751004 
1557.000000	96.751774 
1556.000000	96.749136 
1555.000000	96.746638 
1554.000000	96.742245 
1553.000000	96.736499 
1552.000000	96.731279 
1551.000000	96.722263 
1550.000000	96.706367 
1549.000000	96.688575 
1548.000000	96.676531 
1547.000000	96.670435 
1546.000000	96.661305 
1545.000000	96.642580 
1544.000000	96.619767 
1543.000000	96.601129 
1542.000000	96.587407 
1541.000000	96.572803 
1540.000000	96.550554 
1539.000000	96.524863 
1538.000000	96.503432 
1537.000000	96.484830 
1536.000000	96.464485 
1535.000000	96.442759 
1534.000000	96.422929 
1533.000000	96.407265 
1532.000000	96.394462 
1531.000000	96.382553 
1530.000000	96.370758 
1529.000000	96.356468 
1528.000000	96.335798 
1527.000000	96.309202 
1526.000000	96.281340 
1525.000000	96.256696 
1524.000000	96.236664 
1523.000000	96.218851 
1522.000000	96.198042 
1521.000000	96.169916 
1520.000000	96.137870 
1519.000000	96.109542 
1518.000000	96.086180 
1517.000000	96.064362 
1516.000000	96.042290 
1515.000000	96.022342 
1514.000000	96.006125 
1513.000000	95.991696 
1512.000000	95.974978 
1511.000000	95.952831 
1510.000000	95.925924 
1509.000000	95.895373 
1508.000000	95.862245 
1507.000000	95.829891 
1506.000000	95.803711 
1505.000000	95.782279 
1504.000000	95.762325 
1503.000000	95.741807 
1502.000000	95.719702 
1501.000000	95.696384 
1500.000000	95.672871 
1499.000000	95.648276 
1498.000000	95.620439 
1497.000000	95.591034 
1496.000000	95.564323 
1495.000000	95.542810 
1494.000000	95.526284 
1493.000000	95.512862 
1492.000000	95.499504 
1491.000000	95.482436 
1490.000000	95.459309 
1489.000000	95.432059 
1488.000000	95.403542 
1487.000000	95.375550 
1486.000000	95.349866 
1485.000000	95.324363 
1484.000000	95.297991 
1483.000000	95.272943 
1482.000000	95.250399 
1481.000000	95.230074 
1480.000000	95.210642 
1479.000000	95.191393 
1478.000000	95.171220 
1477.000000	95.148724 
1476.000000	95.122673 
1475.000000	95.093577 
1474.000000	95.062578 
1473.000000	95.032055 
1472.000000	95.006705 
1471.000000	94.988128 
1470.000000	94.974157 
1469.000000	94.961091 
1468.000000	94.944789 
1467.000000	94.923110 
1466.000000	94.898103 
1465.000000	94.875078 
1464.000000	94.858615 
1463.000000	94.845680 
1462.000000	94.831125 
1461.000000	94.814537 
1460.000000	94.798056 
1459.000000	94.778889 
1458.000000	94.747358 
1457.000000	94.706148 
1456.000000	94.676188 
1455.000000	94.664672 
1454.000000	94.659501 
1453.000000	94.652782 
1452.000000	94.646269 
1451.000000	94.642986 
1450.000000	94.642293 
1449.000000	94.642655 
1448.000000	94.642324 
1447.000000	94.639835 
1446.000000	94.633341 
1445.000000	94.624176 
1444.000000	94.617020 
1443.000000	94.611767 
1442.000000	94.605972 
1441.000000	94.600229 
1440.000000	94.597219 
1439.000000	94.594029 
1438.000000	94.583382 
1437.000000	94.565881 
1436.000000	94.553486 
1435.000000	94.551555 
1434.000000	94.554817 
1433.000000	94.559440 
1432.000000	94.565792 
1431.000000	94.573819 
1430.000000	94.580158 
1429.000000	94.583484 
1428.000000	94.585925 
1427.000000	94.590606 
1426.000000	94.596804 
1425.000000	94.602376 
1424.000000	94.609689 
1423.000000	94.618624 
1422.000000	94.626511 
1421.000000	94.634137 
1420.000000	94.644784 
1419.000000	94.653967 
1418.000000	94.654328 
1417.000000	94.653624 
1416.000000	94.664947 
1415.000000	94.688755 
1414.000000	94.714466 
1413.000000	94.733985 
1412.000000	94.749822 
1411.000000	94.766955 
1410.000000	94.785391 
1409.000000	94.804164 
1408.000000	94.822899 
1407.000000	94.840784 
1406.000000	94.856644 
1405.000000	94.873062 
1404.000000	94.896489 
1403.000000	94.925700 
1402.000000	94.953479 
1401.000000	94.978216 
1400.000000	95.005113 
1399.000000	95.037024 
1398.000000	95.069322 
1397.000000	95.097505 
1396.000000	95.121946 
1395.000000	95.145220 
1394.000000	95.168309 
1393.000000	95.194112 
1392.000000	95.228079 
1391.000000	95.269702 
1390.000000	95.312320 
1389.000000	95.350143 
1388.000000	95.382231 
1387.000000	95.411030 
1386.000000	95.439263 
1385.000000	95.469499 
1384.000000	95.503526 
1383.000000	95.538780 
1382.000000	95.570626 
1381.000000	95.598096 
1380.000000	95.623985 
1379.000000	95.651547 
1378.000000	95.682235 
1377.000000	95.715566 
1376.000000	95.748647 
1375.000000	95.776571 
1374.000000	95.796397 
1373.000000	95.812805 
1372.000000	95.833798 
1371.000000	95.862487 
1370.000000	95.895453 
1369.000000	95.927732 
1368.000000	95.958758 
1367.000000	95.989499 
1366.000000	96.019159 
1365.000000	96.046640 
1364.000000	96.070601 
1363.000000	96.088841 
1362.000000	96.101598 
1361.000000	96.114459 
1360.000000	96.134145 
1359.000000	96.161740 
1358.000000	96.191398 
1357.000000	96.216392 
1356.000000	96.235669 
1355.000000	96.253215 
1354.000000	96.272523 
1353.000000	96.294291 
1352.000000	96.316318 
1351.000000	96.337397 
1350.000000	96.358086 
1349.000000	96.378092 
1348.000000	96.396910 
1347.000000	96.414182 
1346.000000	96.430025 
1345.000000	96.445043 
1344.000000	96.460205 
1343.000000	96.476399 
1342.000000	96.493583 
1341.000000	96.510135 
1340.000000	96.523783 
1339.000000	96.533802 
1338.000000	96.541547 
1337.000000	96.549112 
1336.000000	96.557492 
1335.000000	96.566039 
1334.000000	96.574156 
1333.000000	96.582760 
1332.000000	96.592965 
1331.000000	96.604503 
1330.000000	96.615922 
1329.000000	96.626352 
1328.000000	96.636082 
1327.000000	96.646051 
1326.000000	96.656259 
1325.000000	96.665124 
1324.000000	96.671144 
1323.000000	96.673490 
1322.000000	96.672631 
1321.000000	96.671192 
1320.000000	96.672821 
1319.000000	96.678877 
1318.000000	96.687348 
1317.000000	96.695733 
1316.000000	96.703091 
1315.000000	96.708700 
1314.000000	96.711396 
1313.000000	96.712207 
1312.000000	96.715060 
1311.000000	96.722719 
1310.000000	96.733184 
1309.000000	96.742233 
1308.000000	96.748022 
1307.000000	96.752308 
1306.000000	96.757567 
1305.000000	96.764483 
1304.000000	96.772154 
1303.000000	96.778224 
1302.000000	96.779815 
1301.000000	96.776054 
1300.000000	96.769946 
1299.000000	96.766372 
1298.000000	96.767822 
1297.000000	96.772538 
1296.000000	96.776692 
1295.000000	96.778029 
1294.000000	96.777354 
1293.000000	96.777369 
1292.000000	96.780014 
1291.000000	96.784601 
1290.000000	96.788724 
1289.000000	96.790668 
1288.000000	96.790237 
1287.000000	96.787788 
1286.000000	96.783829 
1285.000000	96.779854 
1284.000000	96.777986 
1283.000000	96.778560 
1282.000000	96.779313 
1281.000000	96.777917 
1280.000000	96.774748 
1279.000000	96.772265 
1278.000000	96.772357 
1277.000000	96.775166 
1276.000000	96.779684 
1275.000000	96.784574 
1274.000000	96.788564 
1273.000000	96.791011 
1272.000000	96.792108 
1271.000000	96.792178 
1270.000000	96.791135 
1269.000000	96.788759 
1268.000000	96.785039 
1267.000000	96.779719 
1266.000000	96.772514 
1265.000000	96.764857 
1264.000000	96.760118 
1263.000000	96.760511 
1262.000000	96.764494 
1261.000000	96.768418 
1260.000000	96.770888 
1259.000000	96.774147 
1258.000000	96.780635 
1257.000000	96.789237 
1256.000000	96.795591 
1255.000000	96.796500 
1254.000000	96.793686 
1253.000000	96.791635 
1252.000000	96.791152 
1251.000000	96.787520 
1250.000000	96.777248 
1249.000000	96.764641 
1248.000000	96.758069 
1247.000000	96.759737 
1246.000000	96.763131 
1245.000000	96.761805 
1244.000000	96.756565 
1243.000000	96.751994 
1242.000000	96.749722 
1241.000000	96.748324 
1240.000000	96.747009 
1239.000000	96.745477 
1238.000000	96.741724 
1237.000000	96.733703 
1236.000000	96.722391 
1235.000000	96.710146 
1234.000000	96.696711 
1233.000000	96.680136 
1232.000000	96.661340 
1231.000000	96.644135 
1230.000000	96.630013 
1229.000000	96.615846 
1228.000000	96.597735 
1227.000000	96.574733 
1226.000000	96.547679 
1225.000000	96.516537 
1224.000000	96.480831 
1223.000000	96.441537 
1222.000000	96.400516 
1221.000000	96.358027 
1220.000000	96.312139 
1219.000000	96.260939 
1218.000000	96.204572 
1217.000000	96.144653 
1216.000000	96.081701 
1215.000000	96.014100 
1214.000000	95.941018 
1213.000000	95.866444 
1212.000000	95.797781 
1211.000000	95.738047 
1210.000000	95.681010 
1209.000000	95.617192 
1208.000000	95.544202 
1207.000000	95.468347 
1206.000000	95.396077 
1205.000000	95.326699 
1204.000000	95.254781 
1203.000000	95.177420 
1202.000000	95.097424 
1201.000000	95.020285 
1200.000000	94.948916 
1199.000000	94.880940 
1198.000000	94.810915 
1197.000000	94.735740 
1196.000000	94.657045 
1195.000000	94.577840 
1194.000000	94.498752 
1193.000000	94.419201 
1192.000000	94.340294 
1191.000000	94.263374 
1190.000000	94.186727 
1189.000000	94.107058 
1188.000000	94.023868 
1187.000000	93.939316 
1186.000000	93.854054 
1185.000000	93.766271 
1184.000000	93.674710 
1183.000000	93.579744 
1182.000000	93.481684 
1181.000000	93.380742 
1180.000000	93.278129 
1179.000000	93.174067 
1178.000000	93.065191 
1177.000000	92.947550 
1176.000000	92.822035 
1175.000000	92.693551 
1174.000000	92.565386 
1173.000000	92.438127 
1172.000000	92.313315 
1171.000000	92.192800 
1170.000000	92.074399 
1169.000000	91.954106 
1168.000000	91.834146 
1167.000000	91.724100 
1166.000000	91.633080 
1165.000000	91.565767 
1164.000000	91.526471 
1163.000000	91.520171 
1162.000000	91.546306 
1161.000000	91.595356 
1160.000000	91.652802 
1159.000000	91.702841 
1158.000000	91.729180 
1157.000000	91.719211 
1156.000000	91.670627 
1155.000000	91.591505 
1154.000000	91.493137 
1153.000000	91.384959 
1152.000000	91.275274 
1151.000000	91.170845 
1150.000000	91.073301 
1149.000000	90.979876 
1148.000000	90.888945 
1147.000000	90.800777 
1146.000000	90.712630 
1145.000000	90.619021 
1144.000000	90.518831 
1143.000000	90.417329 
1142.000000	90.319213 
1141.000000	90.224050 
1140.000000	90.130009 
1139.000000	90.037123 
1138.000000	89.944955 
1137.000000	89.851646 
1136.000000	89.757066 
1135.000000	89.662877 
1134.000000	89.568352 
1133.000000	89.470422 
1132.000000	89.368571 
1131.000000	89.265162 
1130.000000	89.160699 
1129.000000	89.053841 
1128.000000	88.946085 
1127.000000	88.840539 
1126.000000	88.735809 
1125.000000	88.627540 
1124.000000	88.516737 
1123.000000	88.409797 
1122.000000	88.309050 
1121.000000	88.209946 
1120.000000	88.108902 
1119.000000	88.007099 
1118.000000	87.905297 
1117.000000	87.802331 
1116.000000	87.700494 
1115.000000	87.605312 
1114.000000	87.518030 
1113.000000	87.434692 
1112.000000	87.353288 
1111.000000	87.274550 
1110.000000	87.195630 
1109.000000	87.111609 
1108.000000	87.023432 
1107.000000	86.935867 
1106.000000	86.848319 
1105.000000	86.756723 
1104.000000	86.663772 
1103.000000	86.577187 
1102.000000	86.497161 
1101.000000	86.416995 
1100.000000	86.335781 
1099.000000	86.260106 
1098.000000	86.192430 
1097.000000	86.127348 
1096.000000	86.061143 
1095.000000	85.994146 
1094.000000	85.923433 
1093.000000	85.844953 
1092.000000	85.764955 
1091.000000	85.697829 
1090.000000	85.649503 
1089.000000	85.612328 
1088.000000	85.577466 
1087.000000	85.542188 
1086.000000	85.504610 
1085.000000	85.463067 
1084.000000	85.422442 
1083.000000	85.390174 
1082.000000	85.364350 
1081.000000	85.336124 
1080.000000	85.304344 
1079.000000	85.276220 
1078.000000	85.252875 
1077.000000	85.226341 
1076.000000	85.192076 
1075.000000	85.152052 
1074.000000	85.104003 
1073.000000	85.039947 
1072.000000	84.957214 
1071.000000	84.859516 
1070.000000	84.745742 
1069.000000	84.609495 
1068.000000	84.451475 
1067.000000	84.280852 
1066.000000	84.102971 
1065.000000	83.917630 
1064.000000	83.730717 
1063.000000	83.553299 
1062.000000	83.385564 
1061.000000	83.215116 
1060.000000	83.035204 
1059.000000	82.852215 
1058.000000	82.672065 
1057.000000	82.492284 
1056.000000	82.311416 
1055.000000	82.133097 
1054.000000	81.956173 
1053.000000	81.773273 
1052.000000	81.584433 
1051.000000	81.399858 
1050.000000	81.223643 
1049.000000	81.047490 
1048.000000	80.865361 
1047.000000	80.681086 
1046.000000	80.498452 
1045.000000	80.316679 
1044.000000	80.136832 
1043.000000	79.960419 
1042.000000	79.781910 
1041.000000	79.595502 
1040.000000	79.408608 
1039.000000	79.234828 
1038.000000	79.074776 
1037.000000	78.919208 
1036.000000	78.769895 
1035.000000	78.640055 
1034.000000	78.533841 
1033.000000	78.442665 
1032.000000	78.362025 
1031.000000	78.294336 
1030.000000	78.234871 
1029.000000	78.174116 
1028.000000	78.115815 
1027.000000	78.073962 
1026.000000	78.049754 
1025.000000	78.029342 
1024.000000	78.005734 
1023.000000	77.984373 
1022.000000	77.965517 
1021.000000	77.940803 
1020.000000	77.910182 
1019.000000	77.883574 
1018.000000	77.862621 
1017.000000	77.838645 
1016.000000	77.810932 
1015.000000	77.788901 
1014.000000	77.773938 
1013.000000	77.757756 
1012.000000	77.741263 
1011.000000	77.736244 
1010.000000	77.745463 
1009.000000	77.759541 
1008.000000	77.776182 
1007.000000	77.803760 
1006.000000	77.843128 
1005.000000	77.884966 
1004.000000	77.928226 
1003.000000	77.982041 
1002.000000	78.045944 
1001.000000	78.107796 
1000.000000	78.165820 
999.000000	 78.233465 
998.000000	 78.316828 
997.000000	 78.405415 
996.000000	 78.490902 
995.000000	 78.578252 
994.000000	 78.672674 
993.000000	 78.771787 
992.000000	 78.875686 
991.000000	 78.988954 
990.000000	 79.108249 
989.000000	 79.223624 
988.000000	 79.336320 
987.000000	 79.459591 
986.000000	 79.597965 
985.000000	 79.741726 
984.000000	 79.885910 
983.000000	 80.038337 
982.000000	 80.203283 
981.000000	 80.372771 
980.000000	 80.540245 
979.000000	 80.709363 
978.000000	 80.883719 
977.000000	 81.060862 
976.000000	 81.241258 
975.000000	 81.430647 
974.000000	 81.628892 
973.000000	 81.828014 
972.000000	 82.024926 
971.000000	 82.225008 
970.000000	 82.430224 
969.000000	 82.634768 
968.000000	 82.834864 
967.000000	 83.032137 
966.000000	 83.225791 
965.000000	 83.412605 
964.000000	 83.596042 
963.000000	 83.784114 
962.000000	 83.976717 
961.000000	 84.165982 
960.000000	 84.349893 
959.000000	 84.533882 
958.000000	 84.717921 
957.000000	 84.893844 
956.000000	 85.057540 
955.000000	 85.213515 
954.000000	 85.366286 
953.000000	 85.517016 
952.000000	 85.668571 
951.000000	 85.822757 
950.000000	 85.972225 
949.000000	 86.106649 
948.000000	 86.227660 
947.000000	 86.346990 
946.000000	 86.469219 
945.000000	 86.587188 
944.000000	 86.695074 
943.000000	 86.794696 
942.000000	 86.888278 
941.000000	 86.976570 
940.000000	 87.065703 
939.000000	 87.164628 
938.000000	 87.273308 
937.000000	 87.383255 
936.000000	 87.490794 
935.000000	 87.599570 
934.000000	 87.709407 
933.000000	 87.814159 
932.000000	 87.912618 
931.000000	 88.010907 
930.000000	 88.111375 
929.000000	 88.208579 
928.000000	 88.298764 
927.000000	 88.384682 
926.000000	 88.469140 
925.000000	 88.551435 
924.000000	 88.630912 
923.000000	 88.706615 
922.000000	 88.774098 
921.000000	 88.831187 
920.000000	 88.886092 
919.000000	 88.950291 
918.000000	 89.023455 
917.000000	 89.094471 
916.000000	 89.157239 
915.000000	 89.216581 
914.000000	 89.279376 
913.000000	 89.349679 
912.000000	 89.432241 
911.000000	 89.530427 
910.000000	 89.639906 
909.000000	 89.753978 
908.000000	 89.875264 
907.000000	 90.012450 
906.000000	 90.165850 
905.000000	 90.325909 
904.000000	 90.485166 
903.000000	 90.641876 
902.000000	 90.793591 
901.000000	 90.938503 
900.000000	 91.082929 
899.000000	 91.236652 
898.000000	 91.399817 
897.000000	 91.562889 
896.000000	 91.718524 
895.000000	 91.864606 
894.000000	 91.997960 
893.000000	 92.115849 
892.000000	 92.222819 
891.000000	 92.325672 
890.000000	 92.420976 
889.000000	 92.495411 
888.000000	 92.537268 
887.000000	 92.540868 
886.000000	 92.505101 
885.000000	 92.438526 
884.000000	 92.361596 
883.000000	 92.289951 
882.000000	 92.217035 
881.000000	 92.127807 
880.000000	 92.028847 
879.000000	 91.948242 
878.000000	 91.904325 
877.000000	 91.892814 
876.000000	 91.908520 
875.000000	 91.960613 
874.000000	 92.059022 
873.000000	 92.202755 
872.000000	 92.389447 
871.000000	 92.620577 
870.000000	 92.887567 
869.000000	 93.164613 
868.000000	 93.424436 
867.000000	 93.654898 
866.000000	 93.857518 
865.000000	 94.039267 
864.000000	 94.210092 
863.000000	 94.379529 
862.000000	 94.548827 
861.000000	 94.710379 
860.000000	 94.858000 
859.000000	 94.993627 
858.000000	 95.122685 
857.000000	 95.247921 
856.000000	 95.368955 
855.000000	 95.482957 
854.000000	 95.584989 
853.000000	 95.672162 
852.000000	 95.747198 
851.000000	 95.813768 
850.000000	 95.871034 
849.000000	 95.919332 
848.000000	 95.968317 
847.000000	 96.030180 
846.000000	 96.105003 
845.000000	 96.181373 
844.000000	 96.251065 
843.000000	 96.314149 
842.000000	 96.370092 
841.000000	 96.414093 
840.000000	 96.444176 
839.000000	 96.463420 
838.000000	 96.473721 
837.000000	 96.475723 
836.000000	 96.476420 
835.000000	 96.487498 
834.000000	 96.511860 
833.000000	 96.539043 
832.000000	 96.558057 
831.000000	 96.568698 
830.000000	 96.577157 
829.000000	 96.587171 
828.000000	 96.600706 
827.000000	 96.622673 
826.000000	 96.658735 
825.000000	 96.708673 
824.000000	 96.763192 
823.000000	 96.806759 
822.000000	 96.827269 
821.000000	 96.826967 
820.000000	 96.820178 
819.000000	 96.815715 
818.000000	 96.804866 
817.000000	 96.771195 
816.000000	 96.707998 
815.000000	 96.619955 
814.000000	 96.510908 
813.000000	 96.377298 
812.000000	 96.211558 
811.000000	 96.003621 
810.000000	 95.739924 
809.000000	 95.410128 
808.000000	 95.017179 
807.000000	 94.575350 
806.000000	 94.098878 
805.000000	 93.600159 
804.000000	 93.098997 
803.000000	 92.622264 
802.000000	 92.190381 
801.000000	 91.813674 
800.000000	 91.504214 
799.000000	 91.278464 
798.000000	 91.142861 
797.000000	 91.086943 
796.000000	 91.093985 
795.000000	 91.148091 
794.000000	 91.230232 
793.000000	 91.320873 
792.000000	 91.409610 
791.000000	 91.492292 
790.000000	 91.558854 
789.000000	 91.595058 
788.000000	 91.595454 
787.000000	 91.562805 
786.000000	 91.495301 
785.000000	 91.386317 
784.000000	 91.236844 
783.000000	 91.056878 
782.000000	 90.856521 
781.000000	 90.650231 
780.000000	 90.468830 
779.000000	 90.348953 
778.000000	 90.305346 
777.000000	 90.326759 
776.000000	 90.400316 
775.000000	 90.523183 
774.000000	 90.687462 
773.000000	 90.872326 
772.000000	 91.058952 
771.000000	 91.240330 
770.000000	 91.411997 
769.000000	 91.566688 
768.000000	 91.702918 
767.000000	 91.826641 
766.000000	 91.940215 
765.000000	 92.041067 
764.000000	 92.133782 
763.000000	 92.230406 
762.000000	 92.334882 
761.000000	 92.439460 
760.000000	 92.539821 
759.000000	 92.640699 
758.000000	 92.743298 
757.000000	 92.842239 
756.000000	 92.940663 
755.000000	 93.052910 
754.000000	 93.181956 
753.000000	 93.305837 
752.000000	 93.397922 
751.000000	 93.454534 
750.000000	 93.496031 
749.000000	 93.547262 
748.000000	 93.622128 
747.000000	 93.718933 
746.000000	 93.822582 
745.000000	 93.915936 
744.000000	 93.995520 
743.000000	 94.073990 
742.000000	 94.164675 
741.000000	 94.267939 
740.000000	 94.374968 
739.000000	 94.479094 
738.000000	 94.579126 
737.000000	 94.674778 
736.000000	 94.762580 
735.000000	 94.836944 
734.000000	 94.895947 
733.000000	 94.946370 
732.000000	 94.999635 
731.000000	 95.059871 
730.000000	 95.118961 
729.000000	 95.166165 
728.000000	 95.200503 
727.000000	 95.229297 
726.000000	 95.258953 
725.000000	 95.295309 
724.000000	 95.345866 
723.000000	 95.410350 
722.000000	 95.473725 
721.000000	 95.520095 
720.000000	 95.550009 
719.000000	 95.570183 
718.000000	 95.571683 
717.000000	 95.538541 
716.000000	 95.476402 
715.000000	 95.416685 
714.000000	 95.389604 
713.000000	 95.404311 
712.000000	 95.457162 
711.000000	 95.542257 
710.000000	 95.647904 
709.000000	 95.757220 
708.000000	 95.859647 
707.000000	 95.952772 
706.000000	 96.028032 
705.000000	 96.068697 
704.000000	 96.067249 
703.000000	 96.029944 
702.000000	 95.960094 
701.000000	 95.847307 
700.000000	 95.678584 
699.000000	 95.455109 
698.000000	 95.194466 
697.000000	 94.929300 
696.000000	 94.706582 
695.000000	 94.570002 
694.000000	 94.536475 
693.000000	 94.591424 
692.000000	 94.705181 
691.000000	 94.849624 
690.000000	 95.000245 
689.000000	 95.139786 
688.000000	 95.264885 
687.000000	 95.377590 
686.000000	 95.473223 
685.000000	 95.547512 
684.000000	 95.611861 
683.000000	 95.686662 
682.000000	 95.776367 
681.000000	 95.866507 
680.000000	 95.945206 
679.000000	 96.016899 
678.000000	 96.085842 
677.000000	 96.146097 
676.000000	 96.202997 
675.000000	 96.269512 
674.000000	 96.343897 
673.000000	 96.411945 
672.000000	 96.471753 
671.000000	 96.551751 
670.000000	 96.691300 
669.000000	 96.892996 
668.000000	 97.018509 
667.000000	 96.955160 
666.000000	 96.823748 
665.000000	 96.729743 
664.000000	 96.675938 
663.000000	 96.659158 
662.000000	 96.675853 
661.000000	 96.704504 
660.000000	 96.730395 
659.000000	 96.756659 
658.000000	 96.782559 
657.000000	 96.795545 
656.000000	 96.803119 
655.000000	 96.821264 
654.000000	 96.834945 
653.000000	 96.812819 
652.000000	 96.763401 
651.000000	 96.734815 
650.000000	 96.746104 

