4000.000000	96.385345 
3999.000000	96.383832 
3998.000000	96.380426 
3997.000000	96.376339 
3996.000000	96.373133 
3995.000000	96.371690 
3994.000000	96.372028 
3993.000000	96.373394 
3992.000000	96.374676 
3991.000000	96.375039 
3990.000000	96.374359 
3989.000000	96.373136 
3988.000000	96.371931 
3987.000000	96.371092 
3986.000000	96.370986 
3985.000000	96.372035 
3984.000000	96.374181 
3983.000000	96.376641 
3982.000000	96.378646 
3981.000000	96.380060 
3980.000000	96.380836 
3979.000000	96.380420 
3978.000000	96.378430 
3977.000000	96.375642 
3976.000000	96.373581 
3975.000000	96.372886 
3974.000000	96.372703 
3973.000000	96.371831 
3972.000000	96.369948 
3971.000000	96.367658 
3970.000000	96.365844 
3969.000000	96.365279 
3968.000000	96.366349 
3967.000000	96.368611 
3966.000000	96.370871 
3965.000000	96.371909 
3964.000000	96.371096 
3963.000000	96.368597 
3962.000000	96.365354 
3961.000000	96.362674 
3960.000000	96.361353 
3959.000000	96.361225 
3958.000000	96.361583 
3957.000000	96.361964 
3956.000000	96.362140 
3955.000000	96.361523 
3954.000000	96.359565 
3953.000000	96.356455 
3952.000000	96.353169 
3951.000000	96.350620 
3950.000000	96.348933 
3949.000000	96.347685 
3948.000000	96.346284 
3947.000000	96.344532 
3946.000000	96.343061 
3945.000000	96.342897 
3944.000000	96.344350 
3943.000000	96.346406 
3942.000000	96.348032 
3941.000000	96.349399 
3940.000000	96.351148 
3939.000000	96.353100 
3938.000000	96.354129 
3937.000000	96.353376 
3936.000000	96.351057 
3935.000000	96.347873 
3934.000000	96.344678 
3933.000000	96.342393 
3932.000000	96.341642 
3931.000000	96.341821 
3930.000000	96.341519 
3929.000000	96.340500 
3928.000000	96.340057 
3927.000000	96.341311 
3926.000000	96.343470 
3925.000000	96.344366 
3924.000000	96.343108 
3923.000000	96.340696 
3922.000000	96.338206 
3921.000000	96.336116 
3920.000000	96.334986 
3919.000000	96.335517 
3918.000000	96.337189 
3917.000000	96.338253 
3916.000000	96.337860 
3915.000000	96.337022 
3914.000000	96.337019 
3913.000000	96.337957 
3912.000000	96.339110 
3911.000000	96.340046 
3910.000000	96.340339 
3909.000000	96.339482 
3908.000000	96.337558 
3907.000000	96.335011 
3906.000000	96.332172 
3905.000000	96.328289 
3904.000000	96.322613 
3903.000000	96.316347 
3902.000000	96.312102 
3901.000000	96.311467 
3900.000000	96.313759 
3899.000000	96.316906 
3898.000000	96.319583 
3897.000000	96.321396 
3896.000000	96.322018 
3895.000000	96.321708 
3894.000000	96.321473 
3893.000000	96.322221 
3892.000000	96.323127 
3891.000000	96.322113 
3890.000000	96.318807 
3889.000000	96.314936 
3888.000000	96.312459 
3887.000000	96.311705 
3886.000000	96.311638 
3885.000000	96.311155 
3884.000000	96.309909 
3883.000000	96.307933 
3882.000000	96.305796 
3881.000000	96.304676 
3880.000000	96.305135 
3879.000000	96.306074 
3878.000000	96.306175 
3877.000000	96.305544 
3876.000000	96.305289 
3875.000000	96.305556 
3874.000000	96.305174 
3873.000000	96.303542 
3872.000000	96.301520 
3871.000000	96.299826 
3870.000000	96.298196 
3869.000000	96.296981 
3868.000000	96.296894 
3867.000000	96.297322 
3866.000000	96.296884 
3865.000000	96.295695 
3864.000000	96.295690 
3863.000000	96.297442 
3862.000000	96.298788 
3861.000000	96.298685 
3860.000000	96.298500 
3859.000000	96.299084 
3858.000000	96.299228 
3857.000000	96.297389 
3856.000000	96.294067 
3855.000000	96.290677 
3854.000000	96.286651 
3853.000000	96.281772 
3852.000000	96.278785 
3851.000000	96.279684 
3850.000000	96.283037 
3849.000000	96.287046 
3848.000000	96.291367 
3847.000000	96.296176 
3846.000000	96.299977 
3845.000000	96.300876 
3844.000000	96.298790 
3843.000000	96.294825 
3842.000000	96.290057 
3841.000000	96.286025 
3840.000000	96.283917 
3839.000000	96.284170 
3838.000000	96.286298 
3837.000000	96.288420 
3836.000000	96.289279 
3835.000000	96.289292 
3834.000000	96.289865 
3833.000000	96.292013 
3832.000000	96.295181 
3831.000000	96.298082 
3830.000000	96.300157 
3829.000000	96.301911 
3828.000000	96.304624 
3827.000000	96.308525 
3826.000000	96.311395 
3825.000000	96.311146 
3824.000000	96.307815 
3823.000000	96.303488 
3822.000000	96.300394 
3821.000000	96.298333 
3820.000000	96.296225 
3819.000000	96.293998 
3818.000000	96.292521 
3817.000000	96.293081 
3816.000000	96.296794 
3815.000000	96.303742 
3814.000000	96.311919 
3813.000000	96.317886 
3812.000000	96.319906 
3811.000000	96.320241 
3810.000000	96.322065 
3809.000000	96.325446 
3808.000000	96.327145 
3807.000000	96.324328 
3806.000000	96.317731 
3805.000000	96.310178 
3804.000000	96.303286 
3803.000000	96.299283 
3802.000000	96.299882 
3801.000000	96.303622 
3800.000000	96.308048 
3799.000000	96.310958 
3798.000000	96.312308 
3797.000000	96.315419 
3796.000000	96.323246 
3795.000000	96.334169 
3794.000000	96.343167 
3793.000000	96.347291 
3792.000000	96.348454 
3791.000000	96.350834 
3790.000000	96.354885 
3789.000000	96.356981 
3788.000000	96.355220 
3787.000000	96.351911 
3786.000000	96.350035 
3785.000000	96.349421 
3784.000000	96.347867 
3783.000000	96.344860 
3782.000000	96.341554 
3781.000000	96.339247 
3780.000000	96.339108 
3779.000000	96.342143 
3778.000000	96.347641 
3777.000000	96.353102 
3776.000000	96.355761 
3775.000000	96.354443 
3774.000000	96.350619 
3773.000000	96.347115 
3772.000000	96.345460 
3771.000000	96.344029 
3770.000000	96.340489 
3769.000000	96.335755 
3768.000000	96.332578 
3767.000000	96.331784 
3766.000000	96.332176 
3765.000000	96.332029 
3764.000000	96.331326 
3763.000000	96.330702 
3762.000000	96.328997 
3761.000000	96.325013 
3760.000000	96.320119 
3759.000000	96.317300 
3758.000000	96.314233 
3757.000000	96.305645 
3756.000000	96.292239 
3755.000000	96.278344 
3754.000000	96.265588 
3753.000000	96.252421 
3752.000000	96.240718 
3751.000000	96.235155 
3750.000000	96.232172 
3749.000000	96.224768 
3748.000000	96.215673 
3747.000000	96.214045 
3746.000000	96.224366 
3745.000000	96.237795 
3744.000000	96.246501 
3743.000000	96.253563 
3742.000000	96.257987 
3741.000000	96.252645 
3740.000000	96.238667 
3739.000000	96.229220 
3738.000000	96.233377 
3737.000000	96.242247 
3736.000000	96.244585 
3735.000000	96.243480 
3734.000000	96.247665 
3733.000000	96.254731 
3732.000000	96.257593 
3731.000000	96.257619 
3730.000000	96.259041 
3729.000000	96.261285 
3728.000000	96.261973 
3727.000000	96.261185 
3726.000000	96.261474 
3725.000000	96.263463 
3724.000000	96.264942 
3723.000000	96.264938 
3722.000000	96.265033 
3721.000000	96.265997 
3720.000000	96.264335 
3719.000000	96.258638 
3718.000000	96.250949 
3717.000000	96.242170 
3716.000000	96.232093 
3715.000000	96.218320 
3714.000000	96.198768 
3713.000000	96.175956 
3712.000000	96.155418 
3711.000000	96.139953 
3710.000000	96.126683 
3709.000000	96.112629 
3708.000000	96.097501 
3707.000000	96.080392 
3706.000000	96.060480 
3705.000000	96.038525 
3704.000000	96.016287 
3703.000000	95.994354 
3702.000000	95.969750 
3701.000000	95.938916 
3700.000000	95.903074 
3699.000000	95.868914 
3698.000000	95.843135 
3697.000000	95.826373 
3696.000000	95.815288 
3695.000000	95.806482 
3694.000000	95.796760 
3693.000000	95.785281 
3692.000000	95.775385 
3691.000000	95.771428 
3690.000000	95.771137 
3689.000000	95.767748 
3688.000000	95.760678 
3687.000000	95.755314 
3686.000000	95.753997 
3685.000000	95.753010 
3684.000000	95.748416 
3683.000000	95.741415 
3682.000000	95.734505 
3681.000000	95.722930 
3680.000000	95.697835 
3679.000000	95.656486 
3678.000000	95.607117 
3677.000000	95.559446 
3676.000000	95.514395 
3675.000000	95.471973 
3674.000000	95.434599 
3673.000000	95.400996 
3672.000000	95.366851 
3671.000000	95.333419 
3670.000000	95.305537 
3669.000000	95.283695 
3668.000000	95.262523 
3667.000000	95.237584 
3666.000000	95.211177 
3665.000000	95.187219 
3664.000000	95.164519 
3663.000000	95.138969 
3662.000000	95.107299 
3661.000000	95.068295 
3660.000000	95.023839 
3659.000000	94.976483 
3658.000000	94.927960 
3657.000000	94.876840 
3656.000000	94.821809 
3655.000000	94.767260 
3654.000000	94.717940 
3653.000000	94.672965 
3652.000000	94.626393 
3651.000000	94.572509 
3650.000000	94.511053 
3649.000000	94.448808 
3648.000000	94.396533 
3647.000000	94.361976 
3646.000000	94.345283 
3645.000000	94.339960 
3644.000000	94.337512 
3643.000000	94.332239 
3642.000000	94.321552 
3641.000000	94.304003 
3640.000000	94.278616 
3639.000000	94.244769 
3638.000000	94.204499 
3637.000000	94.161999 
3636.000000	94.120339 
3635.000000	94.078754 
3634.000000	94.035237 
3633.000000	93.991233 
3632.000000	93.949035 
3631.000000	93.906531 
3630.000000	93.857638 
3629.000000	93.802152 
3628.000000	93.751927 
3627.000000	93.719531 
3626.000000	93.704551 
3625.000000	93.699996 
3624.000000	93.701300 
3623.000000	93.706007 
3622.000000	93.710725 
3621.000000	93.710990 
3620.000000	93.704817 
3619.000000	93.695877 
3618.000000	93.691336 
3617.000000	93.697848 
3616.000000	93.720322 
3615.000000	93.759035 
3614.000000	93.806840 
3613.000000	93.852946 
3612.000000	93.889924 
3611.000000	93.916096 
3610.000000	93.934130 
3609.000000	93.949136 
3608.000000	93.965958 
3607.000000	93.987051 
3606.000000	94.011940 
3605.000000	94.039765 
3604.000000	94.070671 
3603.000000	94.103345 
3602.000000	94.133594 
3601.000000	94.156085 
3600.000000	94.168878 
3599.000000	94.175329 
3598.000000	94.181047 
3597.000000	94.189798 
3596.000000	94.203196 
3595.000000	94.218839 
3594.000000	94.231552 
3593.000000	94.239052 
3592.000000	94.242962 
3591.000000	94.246029 
3590.000000	94.249876 
3589.000000	94.254319 
3588.000000	94.258265 
3587.000000	94.261339 
3586.000000	94.265107 
3585.000000	94.272108 
3584.000000	94.284150 
3583.000000	94.300586 
3582.000000	94.318625 
3581.000000	94.333877 
3580.000000	94.342509 
3579.000000	94.343352 
3578.000000	94.338398 
3577.000000	94.331787 
3576.000000	94.327338 
3575.000000	94.326713 
3574.000000	94.328235 
3573.000000	94.328827 
3572.000000	94.326020 
3571.000000	94.318616 
3570.000000	94.306325 
3569.000000	94.289762 
3568.000000	94.271598 
3567.000000	94.256762 
3566.000000	94.249307 
3565.000000	94.249652 
3564.000000	94.255483 
3563.000000	94.264268 
3562.000000	94.274024 
3561.000000	94.283092 
3560.000000	94.289842 
3559.000000	94.293274 
3558.000000	94.293596 
3557.000000	94.291972 
3556.000000	94.289484 
3555.000000	94.286557 
3554.000000	94.283090 
3553.000000	94.278736 
3552.000000	94.273602 
3551.000000	94.268333 
3550.000000	94.263894 
3549.000000	94.261236 
3548.000000	94.260695 
3547.000000	94.261036 
3546.000000	94.259898 
3545.000000	94.256367 
3544.000000	94.252856 
3543.000000	94.252779 
3542.000000	94.256732 
3541.000000	94.262274 
3540.000000	94.266841 
3539.000000	94.269604 
3538.000000	94.270800 
3537.000000	94.270487 
3536.000000	94.268782 
3535.000000	94.266001 
3534.000000	94.262548 
3533.000000	94.259004 
3532.000000	94.256311 
3531.000000	94.255292 
3530.000000	94.255530 
3529.000000	94.255365 
3528.000000	94.253383 
3527.000000	94.249853 
3526.000000	94.246417 
3525.000000	94.244584 
3524.000000	94.244850 
3523.000000	94.246795 
3522.000000	94.249383 
3521.000000	94.251413 
3520.000000	94.252289 
3519.000000	94.252231 
3518.000000	94.251783 
3517.000000	94.250908 
3516.000000	94.249016 
3515.000000	94.245897 
3514.000000	94.242417 
3513.000000	94.239943 
3512.000000	94.238856 
3511.000000	94.238050 
3510.000000	94.236144 
3509.000000	94.233090 
3508.000000	94.230251 
3507.000000	94.228916 
3506.000000	94.228939 
3505.000000	94.228872 
3504.000000	94.227366 
3503.000000	94.224268 
3502.000000	94.220537 
3501.000000	94.217318 
3500.000000	94.215170 
3499.000000	94.213928 
3498.000000	94.212921 
3497.000000	94.211445 
3496.000000	94.209175 
3495.000000	94.206385 
3494.000000	94.203791 
3493.000000	94.201989 
3492.000000	94.200710 
3491.000000	94.198786 
3490.000000	94.195444 
3489.000000	94.191379 
3488.000000	94.187803 
3487.000000	94.184656 
3486.000000	94.180715 
3485.000000	94.175646 
3484.000000	94.170874 
3483.000000	94.167866 
3482.000000	94.166286 
3481.000000	94.164643 
3480.000000	94.162225 
3479.000000	94.159441 
3478.000000	94.156555 
3477.000000	94.153022 
3476.000000	94.148139 
3475.000000	94.141901 
3474.000000	94.135129 
3473.000000	94.128967 
3472.000000	94.124177 
3471.000000	94.120629 
3470.000000	94.117480 
3469.000000	94.113988 
3468.000000	94.109938 
3467.000000	94.105381 
3466.000000	94.100307 
3465.000000	94.094596 
3464.000000	94.088146 
3463.000000	94.081012 
3462.000000	94.073573 
3461.000000	94.066542 
3460.000000	94.060444 
3459.000000	94.054990 
3458.000000	94.049256 
3457.000000	94.042597 
3456.000000	94.035423 
3455.000000	94.028884 
3454.000000	94.023989 
3453.000000	94.020899 
3452.000000	94.018901 
3451.000000	94.016921 
3450.000000	94.013940 
3449.000000	94.009181 
3448.000000	94.002239 
3447.000000	93.993410 
3446.000000	93.983879 
3445.000000	93.975366 
3444.000000	93.969235 
3443.000000	93.965686 
3442.000000	93.963547 
3441.000000	93.960928 
3440.000000	93.956547 
3439.000000	93.950469 
3438.000000	93.943720 
3437.000000	93.937362 
3436.000000	93.932087 
3435.000000	93.928348 
3434.000000	93.926301 
3433.000000	93.925289 
3432.000000	93.923869 
3431.000000	93.920935 
3430.000000	93.916581 
3429.000000	93.911659 
3428.000000	93.906553 
3427.000000	93.900887 
3426.000000	93.894650 
3425.000000	93.889085 
3424.000000	93.885756 
3423.000000	93.884586 
3422.000000	93.883423 
3421.000000	93.880192 
3420.000000	93.875238 
3419.000000	93.870843 
3418.000000	93.868678 
3417.000000	93.868490 
3416.000000	93.868963 
3415.000000	93.868843 
3414.000000	93.867086 
3413.000000	93.863036 
3412.000000	93.857359 
3411.000000	93.852323 
3410.000000	93.850176 
3409.000000	93.851242 
3408.000000	93.853782 
3407.000000	93.855495 
3406.000000	93.855071 
3405.000000	93.852608 
3404.000000	93.849161 
3403.000000	93.845818 
3402.000000	93.843020 
3401.000000	93.840713 
3400.000000	93.838974 
3399.000000	93.838097 
3398.000000	93.838009 
3397.000000	93.838158 
3396.000000	93.838203 
3395.000000	93.838464 
3394.000000	93.839334 
3393.000000	93.840515 
3392.000000	93.841176 
3391.000000	93.840798 
3390.000000	93.839719 
3389.000000	93.838951 
3388.000000	93.839635 
3387.000000	93.842341 
3386.000000	93.846447 
3385.000000	93.850098 
3384.000000	93.851389 
3383.000000	93.850078 
3382.000000	93.848155 
3381.000000	93.848224 
3380.000000	93.851075 
3379.000000	93.855206 
3378.000000	93.858921 
3377.000000	93.862491 
3376.000000	93.867318 
3375.000000	93.873207 
3374.000000	93.877755 
3373.000000	93.879001 
3372.000000	93.877782 
3371.000000	93.876853 
3370.000000	93.877981 
3369.000000	93.880670 
3368.000000	93.883525 
3367.000000	93.885905 
3366.000000	93.888013 
3365.000000	93.890043 
3364.000000	93.891832 
3363.000000	93.893184 
3362.000000	93.894215 
3361.000000	93.895410 
3360.000000	93.897498 
3359.000000	93.901101 
3358.000000	93.906235 
3357.000000	93.912074 
3356.000000	93.917390 
3355.000000	93.921483 
3354.000000	93.924752 
3353.000000	93.928381 
3352.000000	93.933346 
3351.000000	93.939576 
3350.000000	93.945931 
3349.000000	93.951037 
3348.000000	93.954373 
3347.000000	93.956618 
3346.000000	93.959019 
3345.000000	93.962214 
3344.000000	93.965660 
3343.000000	93.968358 
3342.000000	93.970110 
3341.000000	93.971897 
3340.000000	93.974765 
3339.000000	93.978612 
3338.000000	93.982459 
3337.000000	93.985665 
3336.000000	93.988543 
3335.000000	93.991745 
3334.000000	93.995455 
3333.000000	93.999337 
3332.000000	94.003042 
3331.000000	94.006561 
3330.000000	94.010137 
3329.000000	94.014030 
3328.000000	94.018391 
3327.000000	94.023189 
3326.000000	94.028191 
3325.000000	94.033053 
3324.000000	94.037454 
3323.000000	94.041260 
3322.000000	94.044617 
3321.000000	94.047909 
3320.000000	94.051512 
3319.000000	94.055563 
3318.000000	94.059956 
3317.000000	94.064490 
3316.000000	94.068964 
3315.000000	94.073210 
3314.000000	94.077153 
3313.000000	94.080878 
3312.000000	94.084608 
3311.000000	94.088532 
3310.000000	94.092698 
3309.000000	94.097018 
3308.000000	94.101302 
3307.000000	94.105308 
3306.000000	94.108886 
3305.000000	94.112144 
3304.000000	94.115445 
3303.000000	94.119168 
3302.000000	94.123431 
3301.000000	94.128037 
3300.000000	94.132557 
3299.000000	94.136612 
3298.000000	94.140106 
3297.000000	94.143297 
3296.000000	94.146657 
3295.000000	94.150507 
3294.000000	94.154830 
3293.000000	94.159374 
3292.000000	94.163923 
3291.000000	94.168423 
3290.000000	94.172886 
3289.000000	94.177311 
3288.000000	94.181697 
3287.000000	94.186066 
3286.000000	94.190391 
3285.000000	94.194532 
3284.000000	94.198318 
3283.000000	94.201770 
3282.000000	94.205228 
3281.000000	94.209139 
3280.000000	94.213623 
3279.000000	94.218324 
3278.000000	94.222851 
3277.000000	94.227261 
3276.000000	94.231874 
3275.000000	94.236669 
3274.000000	94.241249 
3273.000000	94.245488 
3272.000000	94.249893 
3271.000000	94.255036 
3270.000000	94.260869 
3269.000000	94.266735 
3268.000000	94.272013 
3267.000000	94.276632 
3266.000000	94.281024 
3265.000000	94.285746 
3264.000000	94.291071 
3263.000000	94.296818 
3262.000000	94.302522 
3261.000000	94.307834 
3260.000000	94.312691 
3259.000000	94.317161 
3258.000000	94.321329 
3257.000000	94.325435 
3256.000000	94.329923 
3255.000000	94.335070 
3254.000000	94.340678 
3253.000000	94.346348 
3252.000000	94.351968 
3251.000000	94.357703 
3250.000000	94.363552 
3249.000000	94.369185 
3248.000000	94.374316 
3247.000000	94.379099 
3246.000000	94.384043 
3245.000000	94.389528 
3244.000000	94.395475 
3243.000000	94.401489 
3242.000000	94.407257 
3241.000000	94.412797 
3240.000000	94.418326 
3239.000000	94.424018 
3238.000000	94.429907 
3237.000000	94.435944 
3236.000000	94.442050 
3235.000000	94.448101 
3234.000000	94.453967 
3233.000000	94.459603 
3232.000000	94.465116 
3231.000000	94.470708 
3230.000000	94.476506 
3229.000000	94.482455 
3228.000000	94.488405 
3227.000000	94.494280 
3226.000000	94.500176 
3225.000000	94.506230 
3224.000000	94.512435 
3223.000000	94.518630 
3222.000000	94.524677 
3221.000000	94.530593 
3220.000000	94.536504 
3219.000000	94.542473 
3218.000000	94.548455 
3217.000000	94.554401 
3216.000000	94.560333 
3215.000000	94.566321 
3214.000000	94.572421 
3213.000000	94.578637 
3212.000000	94.584924 
3211.000000	94.591210 
3210.000000	94.597449 
3209.000000	94.603658 
3208.000000	94.609879 
3207.000000	94.616093 
3206.000000	94.622212 
3205.000000	94.628214 
3204.000000	94.634239 
3203.000000	94.640476 
3202.000000	94.646958 
3201.000000	94.653486 
3200.000000	94.659784 
3199.000000	94.665768 
3198.000000	94.671656 
3197.000000	94.677752 
3196.000000	94.684122 
3195.000000	94.690534 
3194.000000	94.696788 
3193.000000	94.703024 
3192.000000	94.709576 
3191.000000	94.716564 
3190.000000	94.723741 
3189.000000	94.730722 
3188.000000	94.737289 
3187.000000	94.743481 
3186.000000	94.749540 
3185.000000	94.755728 
3184.000000	94.762138 
3183.000000	94.768667 
3182.000000	94.775226 
3181.000000	94.781822 
3180.000000	94.788416 
3179.000000	94.794847 
3178.000000	94.801073 
3177.000000	94.807370 
3176.000000	94.814075 
3175.000000	94.821238 
3174.000000	94.828626 
3173.000000	94.835979 
3172.000000	94.843120 
3171.000000	94.849884 
3170.000000	94.856192 
3169.000000	94.862230 
3168.000000	94.868355 
3167.000000	94.874755 
3166.000000	94.881317 
3165.000000	94.887830 
3164.000000	94.894175 
3163.000000	94.900354 
3162.000000	94.906454 
3161.000000	94.912616 
3160.000000	94.918954 
3159.000000	94.925472 
3158.000000	94.932100 
3157.000000	94.938792 
3156.000000	94.945510 
3155.000000	94.952143 
3154.000000	94.958563 
3153.000000	94.964784 
3152.000000	94.970967 
3151.000000	94.977219 
3150.000000	94.983461 
3149.000000	94.989538 
3148.000000	94.995407 
3147.000000	95.001204 
3146.000000	95.007173 
3145.000000	95.013479 
3144.000000	95.020090 
3143.000000	95.026730 
3142.000000	95.033072 
3141.000000	95.039008 
3140.000000	95.044729 
3139.000000	95.050567 
3138.000000	95.056715 
3137.000000	95.063097 
3136.000000	95.069407 
3135.000000	95.075297 
3134.000000	95.080628 
3133.000000	95.085648 
3132.000000	95.090841 
3131.000000	95.096456 
3130.000000	95.102341 
3129.000000	95.108297 
3128.000000	95.114427 
3127.000000	95.120937 
3126.000000	95.127742 
3125.000000	95.134469 
3124.000000	95.140833 
3123.000000	95.146793 
3122.000000	95.152368 
3121.000000	95.157551 
3120.000000	95.162415 
3119.000000	95.167105 
3118.000000	95.171746 
3117.000000	95.176486 
3116.000000	95.181557 
3115.000000	95.187102 
3114.000000	95.192979 
3113.000000	95.198932 
3112.000000	95.204999 
3111.000000	95.211542 
3110.000000	95.218703 
3109.000000	95.225938 
3108.000000	95.232380 
3107.000000	95.237718 
3106.000000	95.242391 
3105.000000	95.246814 
3104.000000	95.250703 
3103.000000	95.253622 
3102.000000	95.255960 
3101.000000	95.258762 
3100.000000	95.262566 
3099.000000	95.267021 
3098.000000	95.271788 
3097.000000	95.277221 
3096.000000	95.283683 
3095.000000	95.290636 
3094.000000	95.297071 
3093.000000	95.302619 
3092.000000	95.307648 
3091.000000	95.312382 
3090.000000	95.316562 
3089.000000	95.320049 
3088.000000	95.323232 
3087.000000	95.326762 
3086.000000	95.331111 
3085.000000	95.336254 
3084.000000	95.341425 
3083.000000	95.345497 
3082.000000	95.348081 
3081.000000	95.350201 
3080.000000	95.353377 
3079.000000	95.357918 
3078.000000	95.362761 
3077.000000	95.367057 
3076.000000	95.371259 
3075.000000	95.376097 
3074.000000	95.381198 
3073.000000	95.385559 
3072.000000	95.388958 
3071.000000	95.391967 
3070.000000	95.394881 
3069.000000	95.397655 
3068.000000	95.400736 
3067.000000	95.404846 
3066.000000	95.409740 
3065.000000	95.414092 
3064.000000	95.416886 
3063.000000	95.418254 
3062.000000	95.418882 
3061.000000	95.419438 
3060.000000	95.420748 
3059.000000	95.423674 
3058.000000	95.428417 
3057.000000	95.434327 
3056.000000	95.440410 
3055.000000	95.445483 
3054.000000	95.448181 
3053.000000	95.448054 
3052.000000	95.446962 
3051.000000	95.448152 
3050.000000	95.453046 
3049.000000	95.459683 
3048.000000	95.464824 
3047.000000	95.466962 
3046.000000	95.466712 
3045.000000	95.465423 
3044.000000	95.464586 
3043.000000	95.466042 
3042.000000	95.471100 
3041.000000	95.478753 
3040.000000	95.485601 
3039.000000	95.488579 
3038.000000	95.487711 
3037.000000	95.485726 
3036.000000	95.484980 
3035.000000	95.485123 
3034.000000	95.484261 
3033.000000	95.481789 
3032.000000	95.479099 
3031.000000	95.477675 
3030.000000	95.477584 
3029.000000	95.478101 
3028.000000	95.478694 
3027.000000	95.478743 
3026.000000	95.477278 
3025.000000	95.474045 
3024.000000	95.470365 
3023.000000	95.467916 
3022.000000	95.466896 
3021.000000	95.466356 
3020.000000	95.465929 
3019.000000	95.465911 
3018.000000	95.465583 
3017.000000	95.462869 
3016.000000	95.456440 
3015.000000	95.447551 
3014.000000	95.439402 
3013.000000	95.434775 
3012.000000	95.433982 
3011.000000	95.434429 
3010.000000	95.432365 
3009.000000	95.425985 
3008.000000	95.416959 
3007.000000	95.408547 
3006.000000	95.402276 
3005.000000	95.397157 
3004.000000	95.391842 
3003.000000	95.386408 
3002.000000	95.381968 
3001.000000	95.379491 
3000.000000	95.379115 
2999.000000	95.379590 
2998.000000	95.378337 
2997.000000	95.373364 
2996.000000	95.365585 
2995.000000	95.358189 
2994.000000	95.353075 
2993.000000	95.348755 
2992.000000	95.342356 
2991.000000	95.333071 
2990.000000	95.323002 
2989.000000	95.315143 
2988.000000	95.311217 
2987.000000	95.311094 
2986.000000	95.313611 
2985.000000	95.317879 
2984.000000	95.323778 
2983.000000	95.331074 
2982.000000	95.338409 
2981.000000	95.343843 
2980.000000	95.346355 
2979.000000	95.346197 
2978.000000	95.344059 
2977.000000	95.340880 
2976.000000	95.338368 
2975.000000	95.338353 
2974.000000	95.341147 
2973.000000	95.345494 
2972.000000	95.350409 
2971.000000	95.355982 
2970.000000	95.361926 
2969.000000	95.366779 
2968.000000	95.369572 
2967.000000	95.371309 
2966.000000	95.373746 
2965.000000	95.377546 
2964.000000	95.382530 
2963.000000	95.388779 
2962.000000	95.396154 
2961.000000	95.403400 
2960.000000	95.409260 
2959.000000	95.414426 
2958.000000	95.421091 
2957.000000	95.430385 
2956.000000	95.441085 
2955.000000	95.450895 
2954.000000	95.458307 
2953.000000	95.463383 
2952.000000	95.467605 
2951.000000	95.472916 
2950.000000	95.479911 
2949.000000	95.486863 
2948.000000	95.491338 
2947.000000	95.492766 
2946.000000	95.492666 
2945.000000	95.492451 
2944.000000	95.492108 
2943.000000	95.491205 
2942.000000	95.489839 
2941.000000	95.487877 
2940.000000	95.484445 
2939.000000	95.479320 
2938.000000	95.474154 
2937.000000	95.471067 
2936.000000	95.470022 
2935.000000	95.468421 
2934.000000	95.463453 
2933.000000	95.454437 
2932.000000	95.443209 
2931.000000	95.432929 
2930.000000	95.426348 
2929.000000	95.424299 
2928.000000	95.425171 
2927.000000	95.426076 
2926.000000	95.425104 
2925.000000	95.422817 
2924.000000	95.421535 
2923.000000	95.423117 
2922.000000	95.427296 
2921.000000	95.432137 
2920.000000	95.436398 
2919.000000	95.441261 
2918.000000	95.449056 
2917.000000	95.460011 
2916.000000	95.471090 
2915.000000	95.478939 
2914.000000	95.483730 
2913.000000	95.488907 
2912.000000	95.497096 
2911.000000	95.507249 
2910.000000	95.516327 
2909.000000	95.522979 
2908.000000	95.528633 
2907.000000	95.535110 
2906.000000	95.542119 
2905.000000	95.547349 
2904.000000	95.548884 
2903.000000	95.547274 
2902.000000	95.546184 
2901.000000	95.549680 
2900.000000	95.559277 
2899.000000	95.573122 
2898.000000	95.587575 
2897.000000	95.599823 
2896.000000	95.608626 
2895.000000	95.613746 
2894.000000	95.616021 
2893.000000	95.617950 
2892.000000	95.622477 
2891.000000	95.630228 
2890.000000	95.638793 
2889.000000	95.645618 
2888.000000	95.650766 
2887.000000	95.655802 
2886.000000	95.660857 
2885.000000	95.664599 
2884.000000	95.667070 
2883.000000	95.670580 
2882.000000	95.676902 
2881.000000	95.684958 
2880.000000	95.692524 
2879.000000	95.699393 
2878.000000	95.707273 
2877.000000	95.716738 
2876.000000	95.725846 
2875.000000	95.732415 
2874.000000	95.736494 
2873.000000	95.739734 
2872.000000	95.743095 
2871.000000	95.746210 
2870.000000	95.748734 
2869.000000	95.751146 
2868.000000	95.754074 
2867.000000	95.757626 
2866.000000	95.761581 
2865.000000	95.765615 
2864.000000	95.769247 
2863.000000	95.772326 
2862.000000	95.775686 
2861.000000	95.780411 
2860.000000	95.786107 
2859.000000	95.790948 
2858.000000	95.794116 
2857.000000	95.797256 
2856.000000	95.802526 
2855.000000	95.809748 
2854.000000	95.816443 
2853.000000	95.820512 
2852.000000	95.822186 
2851.000000	95.823482 
2850.000000	95.826595 
2849.000000	95.832916 
2848.000000	95.842672 
2847.000000	95.854843 
2846.000000	95.867609 
2845.000000	95.879324 
2844.000000	95.889388 
2843.000000	95.898372 
2842.000000	95.907413 
2841.000000	95.917113 
2840.000000	95.926637 
2839.000000	95.934169 
2838.000000	95.938692 
2837.000000	95.941180 
2836.000000	95.943745 
2835.000000	95.947836 
2834.000000	95.953737 
2833.000000	95.961366 
2832.000000	95.970442 
2831.000000	95.979694 
2830.000000	95.986937 
2829.000000	95.990768 
2828.000000	95.992039 
2827.000000	95.993341 
2826.000000	95.997020 
2825.000000	96.003574 
2824.000000	96.011469 
2823.000000	96.018195 
2822.000000	96.021935 
2821.000000	96.022744 
2820.000000	96.022215 
2819.000000	96.021930 
2818.000000	96.022368 
2817.000000	96.023347 
2816.000000	96.024974 
2815.000000	96.027646 
2814.000000	96.031242 
2813.000000	96.034749 
2812.000000	96.036911 
2811.000000	96.037307 
2810.000000	96.036917 
2809.000000	96.037577 
2808.000000	96.040623 
2807.000000	96.045929 
2806.000000	96.052240 
2805.000000	96.058264 
2804.000000	96.063293 
2803.000000	96.066987 
2802.000000	96.069305 
2801.000000	96.070909 
2800.000000	96.073039 
2799.000000	96.076352 
2798.000000	96.080023 
2797.000000	96.082489 
2796.000000	96.083087 
2795.000000	96.082689 
2794.000000	96.082830 
2793.000000	96.084380 
2792.000000	96.087074 
2791.000000	96.089979 
2790.000000	96.092274 
2789.000000	96.093777 
2788.000000	96.094960 
2787.000000	96.096522 
2786.000000	96.098861 
2785.000000	96.101811 
2784.000000	96.104809 
2783.000000	96.107343 
2782.000000	96.109331 
2781.000000	96.111100 
2780.000000	96.113013 
2779.000000	96.115174 
2778.000000	96.117460 
2777.000000	96.119691 
2776.000000	96.121765 
2775.000000	96.123706 
2774.000000	96.125606 
2773.000000	96.127510 
2772.000000	96.129367 
2771.000000	96.131134 
2770.000000	96.132887 
2769.000000	96.134777 
2768.000000	96.136860 
2767.000000	96.139008 
2766.000000	96.141035 
2765.000000	96.142880 
2764.000000	96.144618 
2763.000000	96.146314 
2762.000000	96.147945 
2761.000000	96.149488 
2760.000000	96.151018 
2759.000000	96.152666 
2758.000000	96.154491 
2757.000000	96.156388 
2756.000000	96.158141 
2755.000000	96.159623 
2754.000000	96.160932 
2753.000000	96.162314 
2752.000000	96.163913 
2751.000000	96.165646 
2750.000000	96.167367 
2749.000000	96.169048 
2748.000000	96.170691 
2747.000000	96.172145 
2746.000000	96.173240 
2745.000000	96.174056 
2744.000000	96.174940 
2743.000000	96.176147 
2742.000000	96.177627 
2741.000000	96.179150 
2740.000000	96.180587 
2739.000000	96.181996 
2738.000000	96.183426 
2737.000000	96.184833 
2736.000000	96.186183 
2735.000000	96.187520 
2734.000000	96.188911 
2733.000000	96.190359 
2732.000000	96.191810 
2731.000000	96.193222 
2730.000000	96.194624 
2729.000000	96.196073 
2728.000000	96.197569 
2727.000000	96.199002 
2726.000000	96.200255 
2725.000000	96.201342 
2724.000000	96.202406 
2723.000000	96.203559 
2722.000000	96.204768 
2721.000000	96.205941 
2720.000000	96.207076 
2719.000000	96.208273 
2718.000000	96.209597 
2717.000000	96.210995 
2716.000000	96.212344 
2715.000000	96.213587 
2714.000000	96.214763 
2713.000000	96.215941 
2712.000000	96.217132 
2711.000000	96.218291 
2710.000000	96.219383 
2709.000000	96.220440 
2708.000000	96.221535 
2707.000000	96.222719 
2706.000000	96.223990 
2705.000000	96.225313 
2704.000000	96.226633 
2703.000000	96.227877 
2702.000000	96.229001 
2701.000000	96.230044 
2700.000000	96.231149 
2699.000000	96.232444 
2698.000000	96.233923 
2697.000000	96.235381 
2696.000000	96.236577 
2695.000000	96.237453 
2694.000000	96.238186 
2693.000000	96.239010 
2692.000000	96.239971 
2691.000000	96.240952 
2690.000000	96.241864 
2689.000000	96.242735 
2688.000000	96.243619 
2687.000000	96.244487 
2686.000000	96.245292 
2685.000000	96.246099 
2684.000000	96.247032 
2683.000000	96.248079 
2682.000000	96.249069 
2681.000000	96.249891 
2680.000000	96.250656 
2679.000000	96.251571 
2678.000000	96.252723 
2677.000000	96.254046 
2676.000000	96.255389 
2675.000000	96.256557 
2674.000000	96.257382 
2673.000000	96.257878 
2672.000000	96.258301 
2671.000000	96.258888 
2670.000000	96.259594 
2669.000000	96.260252 
2668.000000	96.260887 
2667.000000	96.261680 
2666.000000	96.262626 
2665.000000	96.263460 
2664.000000	96.264012 
2663.000000	96.264483 
2662.000000	96.265219 
2661.000000	96.266291 
2660.000000	96.267412 
2659.000000	96.268266 
2658.000000	96.268817 
2657.000000	96.269268 
2656.000000	96.269799 
2655.000000	96.270395 
2654.000000	96.270877 
2653.000000	96.271108 
2652.000000	96.271189 
2651.000000	96.271441 
2650.000000	96.272124 
2649.000000	96.273180 
2648.000000	96.274238 
2647.000000	96.274909 
2646.000000	96.275068 
2645.000000	96.274844 
2644.000000	96.274478 
2643.000000	96.274192 
2642.000000	96.274130 
2641.000000	96.274337 
2640.000000	96.274741 
2639.000000	96.275211 
2638.000000	96.275659 
2637.000000	96.276077 
2636.000000	96.276496 
2635.000000	96.276965 
2634.000000	96.277533 
2633.000000	96.278186 
2632.000000	96.278766 
2631.000000	96.279053 
2630.000000	96.278988 
2629.000000	96.278768 
2628.000000	96.278692 
2627.000000	96.278889 
2626.000000	96.279277 
2625.000000	96.279750 
2624.000000	96.280300 
2623.000000	96.280937 
2622.000000	96.281536 
2621.000000	96.281887 
2620.000000	96.281877 
2619.000000	96.281588 
2618.000000	96.281252 
2617.000000	96.281116 
2616.000000	96.281289 
2615.000000	96.281704 
2614.000000	96.282166 
2613.000000	96.282512 
2612.000000	96.282742 
2611.000000	96.282957 
2610.000000	96.283232 
2609.000000	96.283547 
2608.000000	96.283840 
2607.000000	96.284095 
2606.000000	96.284375 
2605.000000	96.284770 
2604.000000	96.285269 
2603.000000	96.285706 
2602.000000	96.285915 
2601.000000	96.285975 
2600.000000	96.286165 
2599.000000	96.286556 
2598.000000	96.286846 
2597.000000	96.286772 
2596.000000	96.286496 
2595.000000	96.286339 
2594.000000	96.286268 
2593.000000	96.286104 
2592.000000	96.286146 
2591.000000	96.286925 
2590.000000	96.288321 
2589.000000	96.289414 
2588.000000	96.289618 
2587.000000	96.289420 
2586.000000	96.289712 
2585.000000	96.290780 
2584.000000	96.292299 
2583.000000	96.293854 
2582.000000	96.295124 
2581.000000	96.295826 
2580.000000	96.295936 
2579.000000	96.295894 
2578.000000	96.296260 
2577.000000	96.297136 
2576.000000	96.298054 
2575.000000	96.298434 
2574.000000	96.298121 
2573.000000	96.297541 
2572.000000	96.297262 
2571.000000	96.297355 
2570.000000	96.297368 
2569.000000	96.297028 
2568.000000	96.296688 
2567.000000	96.296775 
2566.000000	96.297069 
2565.000000	96.297045 
2564.000000	96.296763 
2563.000000	96.296843 
2562.000000	96.297577 
2561.000000	96.298701 
2560.000000	96.300103 
2559.000000	96.302053 
2558.000000	96.304471 
2557.000000	96.306594 
2556.000000	96.307807 
2555.000000	96.308306 
2554.000000	96.308633 
2553.000000	96.308860 
2552.000000	96.308733 
2551.000000	96.308501 
2550.000000	96.308902 
2549.000000	96.310126 
2548.000000	96.311289 
2547.000000	96.311401 
2546.000000	96.310548 
2545.000000	96.309795 
2544.000000	96.309893 
2543.000000	96.310486 
2542.000000	96.310814 
2541.000000	96.310797 
2540.000000	96.311021 
2539.000000	96.311791 
2538.000000	96.312688 
2537.000000	96.313189 
2536.000000	96.313344 
2535.000000	96.313580 
2534.000000	96.314034 
2533.000000	96.314437 
2532.000000	96.314612 
2531.000000	96.314757 
2530.000000	96.315110 
2529.000000	96.315598 
2528.000000	96.315983 
2527.000000	96.316262 
2526.000000	96.316705 
2525.000000	96.317506 
2524.000000	96.318515 
2523.000000	96.319363 
2522.000000	96.319811 
2521.000000	96.319939 
2520.000000	96.320050 
2519.000000	96.320390 
2518.000000	96.320956 
2517.000000	96.321462 
2516.000000	96.321520 
2515.000000	96.320968 
2514.000000	96.320179 
2513.000000	96.319952 
2512.000000	96.320825 
2511.000000	96.322653 
2510.000000	96.324787 
2509.000000	96.326650 
2508.000000	96.328039 
2507.000000	96.328926 
2506.000000	96.329400 
2505.000000	96.329859 
2504.000000	96.330847 
2503.000000	96.332410 
2502.000000	96.333823 
2501.000000	96.334337 
2500.000000	96.333989 
2499.000000	96.333498 
2498.000000	96.333461 
2497.000000	96.333883 
2496.000000	96.334556 
2495.000000	96.335458 
2494.000000	96.336587 
2493.000000	96.337670 
2492.000000	96.338434 
2491.000000	96.339046 
2490.000000	96.339972 
2489.000000	96.341329 
2488.000000	96.342668 
2487.000000	96.343529 
2486.000000	96.343990 
2485.000000	96.344472 
2484.000000	96.345126 
2483.000000	96.345672 
2482.000000	96.345852 
2481.000000	96.345809 
2480.000000	96.345950 
2479.000000	96.346575 
2478.000000	96.347707 
2477.000000	96.349088 
2476.000000	96.350176 
2475.000000	96.350367 
2474.000000	96.349468 
2473.000000	96.347981 
2472.000000	96.346778 
2471.000000	96.346402 
2470.000000	96.346934 
2469.000000	96.348260 
2468.000000	96.350021 
2467.000000	96.351472 
2466.000000	96.351911 
2465.000000	96.351471 
2464.000000	96.351170 
2463.000000	96.351940 
2462.000000	96.353879 
2461.000000	96.356545 
2460.000000	96.359513 
2459.000000	96.362317 
2458.000000	96.364175 
2457.000000	96.364377 
2456.000000	96.362898 
2455.000000	96.360466 
2454.000000	96.358078 
2453.000000	96.356407 
2452.000000	96.355566 
2451.000000	96.355303 
2450.000000	96.355472 
2449.000000	96.356274 
2448.000000	96.357809 
2447.000000	96.359532 
2446.000000	96.360596 
2445.000000	96.360760 
2444.000000	96.360499 
2443.000000	96.360205 
2442.000000	96.359797 
2441.000000	96.359251 
2440.000000	96.358988 
2439.000000	96.359469 
2438.000000	96.360804 
2437.000000	96.362943 
2436.000000	96.365737 
2435.000000	96.368562 
2434.000000	96.370429 
2433.000000	96.370839 
2432.000000	96.370308 
2431.000000	96.369856 
2430.000000	96.370167 
2429.000000	96.371330 
2428.000000	96.372892 
2427.000000	96.373972 
2426.000000	96.373814 
2425.000000	96.372469 
2424.000000	96.370728 
2423.000000	96.369360 
2422.000000	96.368691 
2421.000000	96.368912 
2420.000000	96.370158 
2419.000000	96.372096 
2418.000000	96.373873 
2417.000000	96.375052 
2416.000000	96.376111 
2415.000000	96.377589 
2414.000000	96.379087 
2413.000000	96.379857 
2412.000000	96.380081 
2411.000000	96.380580 
2410.000000	96.381412 
2409.000000	96.381927 
2408.000000	96.382051 
2407.000000	96.382415 
2406.000000	96.383233 
2405.000000	96.383901 
2404.000000	96.383804 
2403.000000	96.382905 
2402.000000	96.381610 
2401.000000	96.380638 
2400.000000	96.380845 
2399.000000	96.382552 
2398.000000	96.385090 
2397.000000	96.387470 
2396.000000	96.389290 
2395.000000	96.390501 
2394.000000	96.390683 
2393.000000	96.389521 
2392.000000	96.387798 
2391.000000	96.386984 
2390.000000	96.387620 
2389.000000	96.388830 
2388.000000	96.389485 
2387.000000	96.389249 
2386.000000	96.388390 
2385.000000	96.387356 
2384.000000	96.386757 
2383.000000	96.387113 
2382.000000	96.388328 
2381.000000	96.389962 
2380.000000	96.392146 
2379.000000	96.395404 
2378.000000	96.399047 
2377.000000	96.400760 
2376.000000	96.398921 
2375.000000	96.394534 
2374.000000	96.390085 
2373.000000	96.386516 
2372.000000	96.383043 
2371.000000	96.379720 
2370.000000	96.378142 
2369.000000	96.378990 
2368.000000	96.380232 
2367.000000	96.379003 
2366.000000	96.374969 
2365.000000	96.370740 
2364.000000	96.368713 
2363.000000	96.368583 
2362.000000	96.368642 
2361.000000	96.367827 
2360.000000	96.366114 
2359.000000	96.363738 
2358.000000	96.361300 
2357.000000	96.360312 
2356.000000	96.361225 
2355.000000	96.362097 
2354.000000	96.359913 
2353.000000	96.354546 
2352.000000	96.349594 
2351.000000	96.346838 
2350.000000	96.344769 
2349.000000	96.342058 
2348.000000	96.339554 
2347.000000	96.336897 
2346.000000	96.331486 
2345.000000	96.324225 
2344.000000	96.318058 
2343.000000	96.314204 
2342.000000	96.313256 
2341.000000	96.316735 
2340.000000	96.324486 
2339.000000	96.332259 
2338.000000	96.335533 
2337.000000	96.334112 
2336.000000	96.331970 
2335.000000	96.331857 
2334.000000	96.331428 
2333.000000	96.326204 
2332.000000	96.316168 
2331.000000	96.304690 
2330.000000	96.294261 
2329.000000	96.283385 
2328.000000	96.271693 
2327.000000	96.262206 
2326.000000	96.256725 
2325.000000	96.254716 
2324.000000	96.254694 
2323.000000	96.256921 
2322.000000	96.259883 
2321.000000	96.260198 
2320.000000	96.258011 
2319.000000	96.258296 
2318.000000	96.264827 
2317.000000	96.274354 
2316.000000	96.280978 
2315.000000	96.281865 
2314.000000	96.278149 
2313.000000	96.271541 
2312.000000	96.263982 
2311.000000	96.258235 
2310.000000	96.255901 
2309.000000	96.255574 
2308.000000	96.255005 
2307.000000	96.254668 
2306.000000	96.256365 
2305.000000	96.259939 
2304.000000	96.263403 
2303.000000	96.266244 
2302.000000	96.270064 
2301.000000	96.275784 
2300.000000	96.282068 
2299.000000	96.286445 
2298.000000	96.287427 
2297.000000	96.285265 
2296.000000	96.282067 
2295.000000	96.280910 
2294.000000	96.283630 
2293.000000	96.289348 
2292.000000	96.295377 
2291.000000	96.299883 
2290.000000	96.302838 
2289.000000	96.305267 
2288.000000	96.307870 
2287.000000	96.310550 
2286.000000	96.312642 
2285.000000	96.313884 
2284.000000	96.314873 
2283.000000	96.316360 
2282.000000	96.318137 
2281.000000	96.319130 
2280.000000	96.318530 
2279.000000	96.316375 
2278.000000	96.313400 
2277.000000	96.310847 
2276.000000	96.310270 
2275.000000	96.312442 
2274.000000	96.316431 
2273.000000	96.320398 
2272.000000	96.323397 
2271.000000	96.325617 
2270.000000	96.327046 
2269.000000	96.327299 
2268.000000	96.326881 
2267.000000	96.327198 
2266.000000	96.328749 
2265.000000	96.330395 
2264.000000	96.330868 
2263.000000	96.330056 
2262.000000	96.328470 
2261.000000	96.326485 
2260.000000	96.324566 
2259.000000	96.323325 
2258.000000	96.322797 
2257.000000	96.322401 
2256.000000	96.322122 
2255.000000	96.322861 
2254.000000	96.325021 
2253.000000	96.327424 
2252.000000	96.328346 
2251.000000	96.327217 
2250.000000	96.324614 
2249.000000	96.321338 
2248.000000	96.318177 
2247.000000	96.315976 
2246.000000	96.315086 
2245.000000	96.314882 
2244.000000	96.314248 
2243.000000	96.312735 
2242.000000	96.310883 
2241.000000	96.309552 
2240.000000	96.309173 
2239.000000	96.309588 
2238.000000	96.310175 
2237.000000	96.310238 
2236.000000	96.309555 
2235.000000	96.308476 
2234.000000	96.307473 
2233.000000	96.306652 
2232.000000	96.305862 
2231.000000	96.305039 
2230.000000	96.304152 
2229.000000	96.303045 
2228.000000	96.301662 
2227.000000	96.300271 
2226.000000	96.299178 
2225.000000	96.298336 
2224.000000	96.297449 
2223.000000	96.296386 
2222.000000	96.295290 
2221.000000	96.294304 
2220.000000	96.293394 
2219.000000	96.292472 
2218.000000	96.291535 
2217.000000	96.290633 
2216.000000	96.289788 
2215.000000	96.288979 
2214.000000	96.288178 
2213.000000	96.287377 
2212.000000	96.286587 
2211.000000	96.285832 
2210.000000	96.285138 
2209.000000	96.284520 
2208.000000	96.283974 
2207.000000	96.283487 
2206.000000	96.283040 
2205.000000	96.282613 
2204.000000	96.282181 
2203.000000	96.281724 
2202.000000	96.281238 
2201.000000	96.280724 
2200.000000	96.280181 
2199.000000	96.279610 
2198.000000	96.279020 
2197.000000	96.278431 
2196.000000	96.277864 
2195.000000	96.277333 
2194.000000	96.276846 
2193.000000	96.276406 
2192.000000	96.276014 
2191.000000	96.275659 
2190.000000	96.275325 
2189.000000	96.275001 
2188.000000	96.274695 
2187.000000	96.274424 
2186.000000	96.274203 
2185.000000	96.274035 
2184.000000	96.273934 
2183.000000	96.273927 
2182.000000	96.274040 
2181.000000	96.274267 
2180.000000	96.274575 
2179.000000	96.274932 
2178.000000	96.275333 
2177.000000	96.275794 
2176.000000	96.276334 
2175.000000	96.276949 
2174.000000	96.277618 
2173.000000	96.278328 
2172.000000	96.279070 
2171.000000	96.279849 
2170.000000	96.280687 
2169.000000	96.281572 
2168.000000	96.282436 
2167.000000	96.283262 
2166.000000	96.284160 
2165.000000	96.285215 
2164.000000	96.286252 
2163.000000	96.286969 
2162.000000	96.287493 
2161.000000	96.288483 
2160.000000	96.290379 
2159.000000	96.292900 
2158.000000	96.295390 
2157.000000	96.297577 
2156.000000	96.299571 
2155.000000	96.301422 
2154.000000	96.303057 
2153.000000	96.304583 
2152.000000	96.306334 
2151.000000	96.308331 
2150.000000	96.309941 
2149.000000	96.310530 
2148.000000	96.310532 
2147.000000	96.311315 
2146.000000	96.313716 
2145.000000	96.317240 
2144.000000	96.320925 
2143.000000	96.324439 
2142.000000	96.327695 
2141.000000	96.330123 
2140.000000	96.331355 
2139.000000	96.332327 
2138.000000	96.334677 
2137.000000	96.338808 
2136.000000	96.343145 
2135.000000	96.345460 
2134.000000	96.344643 
2133.000000	96.341468 
2132.000000	96.338492 
2131.000000	96.338227 
2130.000000	96.341000 
2129.000000	96.344821 
2128.000000	96.347505 
2127.000000	96.348888 
2126.000000	96.350330 
2125.000000	96.352624 
2124.000000	96.355217 
2123.000000	96.357191 
2122.000000	96.358044 
2121.000000	96.357552 
2120.000000	96.355758 
2119.000000	96.353287 
2118.000000	96.351123 
2117.000000	96.349971 
2116.000000	96.349800 
2115.000000	96.349826 
2114.000000	96.348864 
2113.000000	96.346312 
2112.000000	96.343190 
2111.000000	96.341642 
2110.000000	96.342773 
2109.000000	96.345552 
2108.000000	96.348064 
2107.000000	96.349445 
2106.000000	96.350022 
2105.000000	96.350312 
2104.000000	96.350676 
2103.000000	96.351364 
2102.000000	96.352008 
2101.000000	96.351513 
2100.000000	96.349299 
2099.000000	96.346442 
2098.000000	96.344903 
2097.000000	96.345531 
2096.000000	96.347573 
2095.000000	96.349736 
2094.000000	96.351195 
2093.000000	96.351653 
2092.000000	96.351088 
2091.000000	96.349893 
2090.000000	96.348850 
2089.000000	96.348462 
2088.000000	96.348520 
2087.000000	96.348392 
2086.000000	96.347598 
2085.000000	96.346111 
2084.000000	96.344409 
2083.000000	96.343190 
2082.000000	96.342793 
2081.000000	96.342937 
2080.000000	96.343126 
2079.000000	96.343162 
2078.000000	96.343003 
2077.000000	96.342390 
2076.000000	96.341148 
2075.000000	96.339796 
2074.000000	96.339115 
2073.000000	96.338898 
2072.000000	96.337960 
2071.000000	96.335640 
2070.000000	96.332707 
2069.000000	96.330599 
2068.000000	96.330013 
2067.000000	96.330655 
2066.000000	96.331797 
2065.000000	96.332634 
2064.000000	96.332582 
2063.000000	96.331702 
2062.000000	96.330751 
2061.000000	96.330509 
2060.000000	96.331058 
2059.000000	96.331929 
2058.000000	96.332634 
2057.000000	96.332839 
2056.000000	96.332214 
2055.000000	96.330516 
2054.000000	96.328022 
2053.000000	96.325632 
2052.000000	96.324287 
2051.000000	96.324181 
2050.000000	96.324628 
2049.000000	96.324720 
2048.000000	96.324224 
2047.000000	96.323588 
2046.000000	96.323165 
2045.000000	96.322855 
2044.000000	96.322616 
2043.000000	96.322850 
2042.000000	96.323912 
2041.000000	96.325501 
2040.000000	96.326971 
2039.000000	96.328237 
2038.000000	96.329717 
2037.000000	96.331320 
2036.000000	96.332171 
2035.000000	96.331688 
2034.000000	96.330519 
2033.000000	96.330124 
2032.000000	96.331296 
2031.000000	96.333266 
2030.000000	96.334217 
2029.000000	96.332941 
2028.000000	96.330032 
2027.000000	96.327511 
2026.000000	96.326770 
2025.000000	96.327478 
2024.000000	96.328589 
2023.000000	96.329965 
2022.000000	96.332251 
2021.000000	96.335161 
2020.000000	96.336829 
2019.000000	96.335477 
2018.000000	96.331019 
2017.000000	96.325264 
2016.000000	96.320726 
2015.000000	96.318839 
2014.000000	96.319092 
2013.000000	96.319377 
2012.000000	96.318149 
2011.000000	96.316502 
2010.000000	96.316952 
2009.000000	96.320174 
2008.000000	96.324016 
2007.000000	96.326132 
2006.000000	96.326572 
2005.000000	96.326774 
2004.000000	96.327266 
2003.000000	96.327582 
2002.000000	96.327724 
2001.000000	96.328069 
2000.000000	96.328051 
1999.000000	96.326182 
1998.000000	96.321651 
1997.000000	96.315388 
1996.000000	96.309522 
1995.000000	96.305933 
1994.000000	96.305185 
1993.000000	96.306366 
1992.000000	96.307572 
1991.000000	96.307427 
1990.000000	96.306336 
1989.000000	96.305797 
1988.000000	96.306493 
1987.000000	96.307373 
1986.000000	96.306781 
1985.000000	96.304319 
1984.000000	96.301189 
1983.000000	96.298923 
1982.000000	96.297979 
1981.000000	96.297852 
1980.000000	96.298096 
1979.000000	96.298679 
1978.000000	96.299428 
1977.000000	96.299861 
1976.000000	96.299736 
1975.000000	96.299364 
1974.000000	96.299210 
1973.000000	96.299452 
1972.000000	96.299947 
1971.000000	96.300408 
1970.000000	96.300554 
1969.000000	96.300240 
1968.000000	96.299561 
1967.000000	96.298828 
1966.000000	96.298430 
1965.000000	96.298557 
1964.000000	96.299121 
1963.000000	96.299870 
1962.000000	96.300570 
1961.000000	96.301091 
1960.000000	96.301393 
1959.000000	96.301512 
1958.000000	96.301559 
1957.000000	96.301696 
1956.000000	96.302030 
1955.000000	96.302559 
1954.000000	96.303157 
1953.000000	96.303658 
1952.000000	96.303999 
1951.000000	96.304225 
1950.000000	96.304415 
1949.000000	96.304679 
1948.000000	96.305175 
1947.000000	96.305984 
1946.000000	96.306900 
1945.000000	96.307515 
1944.000000	96.307613 
1943.000000	96.307316 
1942.000000	96.306888 
1941.000000	96.306469 
1940.000000	96.306125 
1939.000000	96.305903 
1938.000000	96.305739 
1937.000000	96.305574 
1936.000000	96.305556 
1935.000000	96.305815 
1934.000000	96.306081 
1933.000000	96.306030 
1932.000000	96.305939 
1931.000000	96.306446 
1930.000000	96.307597 
1929.000000	96.308523 
1928.000000	96.308561 
1927.000000	96.308075 
1926.000000	96.307768 
1925.000000	96.307657 
1924.000000	96.307273 
1923.000000	96.306552 
1922.000000	96.305722 
1921.000000	96.304690 
1920.000000	96.303369 
1919.000000	96.302074 
1918.000000	96.300902 
1917.000000	96.299209 
1916.000000	96.296742 
1915.000000	96.294716 
1914.000000	96.294296 
1913.000000	96.294745 
1912.000000	96.294269 
1911.000000	96.292537 
1910.000000	96.290925 
1909.000000	96.290373 
1908.000000	96.290476 
1907.000000	96.290474 
1906.000000	96.289796 
1905.000000	96.287738 
1904.000000	96.283969 
1903.000000	96.279807 
1902.000000	96.277305 
1901.000000	96.276758 
1900.000000	96.276695 
1899.000000	96.276081 
1898.000000	96.275255 
1897.000000	96.274636 
1896.000000	96.273607 
1895.000000	96.271484 
1894.000000	96.268364 
1893.000000	96.264536 
1892.000000	96.260369 
1891.000000	96.256992 
1890.000000	96.255718 
1889.000000	96.256308 
1888.000000	96.257072 
1887.000000	96.257383 
1886.000000	96.257923 
1885.000000	96.258218 
1884.000000	96.256450 
1883.000000	96.252369 
1882.000000	96.248475 
1881.000000	96.247051 
1880.000000	96.247754 
1879.000000	96.248465 
1878.000000	96.247558 
1877.000000	96.245394 
1876.000000	96.243798 
1875.000000	96.244424 
1874.000000	96.247401 
1873.000000	96.250947 
1872.000000	96.253021 
1871.000000	96.253198 
1870.000000	96.252266 
1869.000000	96.250856 
1868.000000	96.249497 
1867.000000	96.249776 
1866.000000	96.252596 
1865.000000	96.255444 
1864.000000	96.254999 
1863.000000	96.252045 
1862.000000	96.250755 
1861.000000	96.253143 
1860.000000	96.257326 
1859.000000	96.261447 
1858.000000	96.265709 
1857.000000	96.269629 
1856.000000	96.271682 
1855.000000	96.272556 
1854.000000	96.274845 
1853.000000	96.278785 
1852.000000	96.282741 
1851.000000	96.286894 
1850.000000	96.292353 
1849.000000	96.298181 
1848.000000	96.301905 
1847.000000	96.303275 
1846.000000	96.304309 
1845.000000	96.305999 
1844.000000	96.307372 
1843.000000	96.307886 
1842.000000	96.308426 
1841.000000	96.309676 
1840.000000	96.312132 
1839.000000	96.316337 
1838.000000	96.321690 
1837.000000	96.325444 
1836.000000	96.325359 
1835.000000	96.323326 
1834.000000	96.323056 
1833.000000	96.325355 
1832.000000	96.328553 
1831.000000	96.330862 
1830.000000	96.331291 
1829.000000	96.329980 
1828.000000	96.328018 
1827.000000	96.327089 
1826.000000	96.328402 
1825.000000	96.331440 
1824.000000	96.334009 
1823.000000	96.334648 
1822.000000	96.334447 
1821.000000	96.334651 
1820.000000	96.334666 
1819.000000	96.333730 
1818.000000	96.333515 
1817.000000	96.335768 
1816.000000	96.338241 
1815.000000	96.338205 
1814.000000	96.336817 
1813.000000	96.337221 
1812.000000	96.339256 
1811.000000	96.339076 
1810.000000	96.336220 
1809.000000	96.334241 
1808.000000	96.334134 
1807.000000	96.334174 
1806.000000	96.334296 
1805.000000	96.335347 
1804.000000	96.335565 
1803.000000	96.332303 
1802.000000	96.325960 
1801.000000	96.320508 
1800.000000	96.318245 
1799.000000	96.317683 
1798.000000	96.318306 
1797.000000	96.319780 
1796.000000	96.319717 
1795.000000	96.317365 
1794.000000	96.315415 
1793.000000	96.316794 
1792.000000	96.319627 
1791.000000	96.319930 
1790.000000	96.319603 
1789.000000	96.322574 
1788.000000	96.328214 
1787.000000	96.333271 
1786.000000	96.336987 
1785.000000	96.340504 
1784.000000	96.343136 
1783.000000	96.344483 
1782.000000	96.345593 
1781.000000	96.347530 
1780.000000	96.350136 
1779.000000	96.352230 
1778.000000	96.354668 
1777.000000	96.358413 
1776.000000	96.362510 
1775.000000	96.365463 
1774.000000	96.366396 
1773.000000	96.367534 
1772.000000	96.371525 
1771.000000	96.375010 
1770.000000	96.374387 
1769.000000	96.372186 
1768.000000	96.372391 
1767.000000	96.375066 
1766.000000	96.377353 
1765.000000	96.378633 
1764.000000	96.380618 
1763.000000	96.383224 
1762.000000	96.384363 
1761.000000	96.383839 
1760.000000	96.383425 
1759.000000	96.383825 
1758.000000	96.384339 
1757.000000	96.384230 
1756.000000	96.385029 
1755.000000	96.386340 
1754.000000	96.384616 
1753.000000	96.377774 
1752.000000	96.368836 
1751.000000	96.364277 
1750.000000	96.365909 
1749.000000	96.369471 
1748.000000	96.371729 
1747.000000	96.372851 
1746.000000	96.372186 
1745.000000	96.370135 
1744.000000	96.369601 
1743.000000	96.371043 
1742.000000	96.371518 
1741.000000	96.370511 
1740.000000	96.371326 
1739.000000	96.374941 
1738.000000	96.376641 
1737.000000	96.373961 
1736.000000	96.368291 
1735.000000	96.362729 
1734.000000	96.360325 
1733.000000	96.357278 
1732.000000	96.351315 
1731.000000	96.349055 
1730.000000	96.354289 
1729.000000	96.360661 
1728.000000	96.362308 
1727.000000	96.359759 
1726.000000	96.356024 
1725.000000	96.352197 
1724.000000	96.348206 
1723.000000	96.344155 
1722.000000	96.341017 
1721.000000	96.338118 
1720.000000	96.333905 
1719.000000	96.327254 
1718.000000	96.320108 
1717.000000	96.314314 
1716.000000	96.304562 
1715.000000	96.290548 
1714.000000	96.281653 
1713.000000	96.279692 
1712.000000	96.277002 
1711.000000	96.270514 
1710.000000	96.263964 
1709.000000	96.258356 
1708.000000	96.250784 
1707.000000	96.241258 
1706.000000	96.234324 
1705.000000	96.230415 
1704.000000	96.220629 
1703.000000	96.201920 
1702.000000	96.178881 
1701.000000	96.162579 
1700.000000	96.156928 
1699.000000	96.147046 
1698.000000	96.131765 
1697.000000	96.121812 
1696.000000	96.116907 
1695.000000	96.109568 
1694.000000	96.096447 
1693.000000	96.081080 
1692.000000	96.066448 
1691.000000	96.051492 
1690.000000	96.035624 
1689.000000	96.020079 
1688.000000	96.006781 
1687.000000	95.996202 
1686.000000	95.985906 
1685.000000	95.974733 
1684.000000	95.960798 
1683.000000	95.942237 
1682.000000	95.921488 
1681.000000	95.901506 
1680.000000	95.886199 
1679.000000	95.874959 
1678.000000	95.864076 
1677.000000	95.849761 
1676.000000	95.834391 
1675.000000	95.821923 
1674.000000	95.807411 
1673.000000	95.785921 
1672.000000	95.762468 
1671.000000	95.743929 
1670.000000	95.731472 
1669.000000	95.719345 
1668.000000	95.705731 
1667.000000	95.693594 
1666.000000	95.681663 
1665.000000	95.667290 
1664.000000	95.651330 
1663.000000	95.637771 
1662.000000	95.625190 
1661.000000	95.606559 
1660.000000	95.584727 
1659.000000	95.567534 
1658.000000	95.557880 
1657.000000	95.550481 
1656.000000	95.544545 
1655.000000	95.537001 
1654.000000	95.524781 
1653.000000	95.510073 
1652.000000	95.486693 
1651.000000	95.453641 
1650.000000	95.420506 
1649.000000	95.397480 
1648.000000	95.382263 
1647.000000	95.374999 
1646.000000	95.372992 
1645.000000	95.370042 
1644.000000	95.359793 
1643.000000	95.347683 
1642.000000	95.339868 
1641.000000	95.336640 
1640.000000	95.334729 
1639.000000	95.331776 
1638.000000	95.328178 
1637.000000	95.324284 
1636.000000	95.321942 
1635.000000	95.324448 
1634.000000	95.328255 
1633.000000	95.328391 
1632.000000	95.325750 
1631.000000	95.324671 
1630.000000	95.328960 
1629.000000	95.337415 
1628.000000	95.346421 
1627.000000	95.355215 
1626.000000	95.364203 
1625.000000	95.372879 
1624.000000	95.383359 
1623.000000	95.399520 
1622.000000	95.418422 
1621.000000	95.431869 
1620.000000	95.440923 
1619.000000	95.453406 
1618.000000	95.472361 
1617.000000	95.490832 
1616.000000	95.500096 
1615.000000	95.503110 
1614.000000	95.506685 
1613.000000	95.511277 
1612.000000	95.514702 
1611.000000	95.519128 
1610.000000	95.527552 
1609.000000	95.538932 
1608.000000	95.552295 
1607.000000	95.568517 
1606.000000	95.584092 
1605.000000	95.593792 
1604.000000	95.600178 
1603.000000	95.609310 
1602.000000	95.621286 
1601.000000	95.631215 
1600.000000	95.637933 
1599.000000	95.644991 
1598.000000	95.653881 
1597.000000	95.663320 
1596.000000	95.673432 
1595.000000	95.686223 
1594.000000	95.701531 
1593.000000	95.716164 
1592.000000	95.728739 
1591.000000	95.741375 
1590.000000	95.755221 
1589.000000	95.768294 
1588.000000	95.779742 
1587.000000	95.791825 
1586.000000	95.805307 
1585.000000	95.817035 
1584.000000	95.826617 
1583.000000	95.838233 
1582.000000	95.852574 
1581.000000	95.865986 
1580.000000	95.878045 
1579.000000	95.893456 
1578.000000	95.914500 
1577.000000	95.937794 
1576.000000	95.957857 
1575.000000	95.971522 
1574.000000	95.978215 
1573.000000	95.981547 
1572.000000	95.988052 
1571.000000	96.001579 
1570.000000	96.019221 
1569.000000	96.030296 
1568.000000	96.033396 
1567.000000	96.036535 
1566.000000	96.043918 
1565.000000	96.052923 
1564.000000	96.063523 
1563.000000	96.074839 
1562.000000	96.085075 
1561.000000	96.087516 
1560.000000	96.090776 
1559.000000	96.112024 
1558.000000	96.133478 
1557.000000	96.136266 
1556.000000	96.128428 
1555.000000	96.127671 
1554.000000	96.130497 
1553.000000	96.132835 
1552.000000	96.132380 
1551.000000	96.131615 
1550.000000	96.130216 
1549.000000	96.128417 
1548.000000	96.127066 
1547.000000	96.127375 
1546.000000	96.127545 
1545.000000	96.125579 
1544.000000	96.122989 
1543.000000	96.122521 
1542.000000	96.126149 
1541.000000	96.134205 
1540.000000	96.138811 
1539.000000	96.133810 
1538.000000	96.119784 
1537.000000	96.099386 
1536.000000	96.079635 
1535.000000	96.066062 
1534.000000	96.061630 
1533.000000	96.062845 
1532.000000	96.061419 
1531.000000	96.052553 
1530.000000	96.040175 
1529.000000	96.028705 
1528.000000	96.018025 
1527.000000	96.007106 
1526.000000	95.996557 
1525.000000	95.987609 
1524.000000	95.981086 
1523.000000	95.976572 
1522.000000	95.972059 
1521.000000	95.962866 
1520.000000	95.944536 
1519.000000	95.919510 
1518.000000	95.894977 
1517.000000	95.876139 
1516.000000	95.862980 
1515.000000	95.853018 
1514.000000	95.844223 
1513.000000	95.835735 
1512.000000	95.824974 
1511.000000	95.808427 
1510.000000	95.787324 
1509.000000	95.767153 
1508.000000	95.753104 
1507.000000	95.744567 
1506.000000	95.737080 
1505.000000	95.724107 
1504.000000	95.703313 
1503.000000	95.680707 
1502.000000	95.659727 
1501.000000	95.641999 
1500.000000	95.627437 
1499.000000	95.614167 
1498.000000	95.598560 
1497.000000	95.581066 
1496.000000	95.564394 
1495.000000	95.548687 
1494.000000	95.533704 
1493.000000	95.520572 
1492.000000	95.509421 
1491.000000	95.498085 
1490.000000	95.484294 
1489.000000	95.468685 
1488.000000	95.451754 
1487.000000	95.433016 
1486.000000	95.414520 
1485.000000	95.395755 
1484.000000	95.375609 
1483.000000	95.355833 
1482.000000	95.338160 
1481.000000	95.322528 
1480.000000	95.306679 
1479.000000	95.289590 
1478.000000	95.272306 
1477.000000	95.255807 
1476.000000	95.237663 
1475.000000	95.214952 
1474.000000	95.189287 
1473.000000	95.167351 
1472.000000	95.153532 
1471.000000	95.142076 
1470.000000	95.127275 
1469.000000	95.110095 
1468.000000	95.091703 
1467.000000	95.071099 
1466.000000	95.049567 
1465.000000	95.031913 
1464.000000	95.020623 
1463.000000	95.008861 
1462.000000	94.990896 
1461.000000	94.970820 
1460.000000	94.956085 
1459.000000	94.947361 
1458.000000	94.932665 
1457.000000	94.906813 
1456.000000	94.881576 
1455.000000	94.860393 
1454.000000	94.838386 
1453.000000	94.820199 
1452.000000	94.810167 
1451.000000	94.807378 
1450.000000	94.806855 
1449.000000	94.807278 
1448.000000	94.807828 
1447.000000	94.805293 
1446.000000	94.797126 
1445.000000	94.786719 
1444.000000	94.780255 
1443.000000	94.775728 
1442.000000	94.767444 
1441.000000	94.755389 
1440.000000	94.744841 
1439.000000	94.736391 
1438.000000	94.723974 
1437.000000	94.707649 
1436.000000	94.695962 
1435.000000	94.688776 
1434.000000	94.679987 
1433.000000	94.672150 
1432.000000	94.669557 
1431.000000	94.671599 
1430.000000	94.673980 
1429.000000	94.676188 
1428.000000	94.679972 
1427.000000	94.685142 
1426.000000	94.690546 
1425.000000	94.697775 
1424.000000	94.712057 
1423.000000	94.730255 
1422.000000	94.743594 
1421.000000	94.751300 
1420.000000	94.760949 
1419.000000	94.772027 
1418.000000	94.773451 
1417.000000	94.769242 
1416.000000	94.775182 
1415.000000	94.794361 
1414.000000	94.814766 
1413.000000	94.828044 
1412.000000	94.839493 
1411.000000	94.855955 
1410.000000	94.875030 
1409.000000	94.893726 
1408.000000	94.913875 
1407.000000	94.937350 
1406.000000	94.962641 
1405.000000	94.989342 
1404.000000	95.020907 
1403.000000	95.053787 
1402.000000	95.079900 
1401.000000	95.100644 
1400.000000	95.126225 
1399.000000	95.160645 
1398.000000	95.193980 
1397.000000	95.217725 
1396.000000	95.236590 
1395.000000	95.261106 
1394.000000	95.293409 
1393.000000	95.328814 
1392.000000	95.366654 
1391.000000	95.406665 
1390.000000	95.444786 
1389.000000	95.476834 
1388.000000	95.502040 
1387.000000	95.522126 
1386.000000	95.539327 
1385.000000	95.557256 
1384.000000	95.580282 
1383.000000	95.607913 
1382.000000	95.634824 
1381.000000	95.657973 
1380.000000	95.678860 
1379.000000	95.700698 
1378.000000	95.724724 
1377.000000	95.749771 
1376.000000	95.773737 
1375.000000	95.795112 
1374.000000	95.814081 
1373.000000	95.833534 
1372.000000	95.856131 
1371.000000	95.881602 
1370.000000	95.907145 
1369.000000	95.928855 
1368.000000	95.946609 
1367.000000	95.962433 
1366.000000	95.977520 
1365.000000	95.992965 
1364.000000	96.009362 
1363.000000	96.025387 
1362.000000	96.039859 
1361.000000	96.053987 
1360.000000	96.070017 
1359.000000	96.089052 
1358.000000	96.109898 
1357.000000	96.130110 
1356.000000	96.148335 
1355.000000	96.164468 
1354.000000	96.178949 
1353.000000	96.193172 
1352.000000	96.207437 
1351.000000	96.221648 
1350.000000	96.236305 
1349.000000	96.249730 
1348.000000	96.260416 
1347.000000	96.269058 
1346.000000	96.278676 
1345.000000	96.291171 
1344.000000	96.305282 
1343.000000	96.318104 
1342.000000	96.328124 
1341.000000	96.335298 
1340.000000	96.339806 
1339.000000	96.342240 
1338.000000	96.343829 
1337.000000	96.345924 
1336.000000	96.349270 
1335.000000	96.353607 
1334.000000	96.358535 
1333.000000	96.364064 
1332.000000	96.369512 
1331.000000	96.373445 
1330.000000	96.375173 
1329.000000	96.375637 
1328.000000	96.376455 
1327.000000	96.378718 
1326.000000	96.381893 
1325.000000	96.383424 
1324.000000	96.381818 
1323.000000	96.377777 
1322.000000	96.373152 
1321.000000	96.369633 
1320.000000	96.368370 
1319.000000	96.369373 
1318.000000	96.371342 
1317.000000	96.372853 
1316.000000	96.373219 
1315.000000	96.372203 
1314.000000	96.370028 
1313.000000	96.368441 
1312.000000	96.369732 
1311.000000	96.373689 
1310.000000	96.377058 
1309.000000	96.377546 
1308.000000	96.376801 
1307.000000	96.378432 
1306.000000	96.383589 
1305.000000	96.389557 
1304.000000	96.393508 
1303.000000	96.394507 
1302.000000	96.392913 
1301.000000	96.389544 
1300.000000	96.386098 
1299.000000	96.384512 
1298.000000	96.385209 
1297.000000	96.386470 
1296.000000	96.386139 
1295.000000	96.384082 
1294.000000	96.382364 
1293.000000	96.383205 
1292.000000	96.386627 
1291.000000	96.390154 
1290.000000	96.391263 
1289.000000	96.389823 
1288.000000	96.387415 
1287.000000	96.384809 
1286.000000	96.381426 
1285.000000	96.377562 
1284.000000	96.375250 
1283.000000	96.375552 
1282.000000	96.376575 
1281.000000	96.375651 
1280.000000	96.372854 
1279.000000	96.371075 
1278.000000	96.372741 
1277.000000	96.377714 
1276.000000	96.383782 
1275.000000	96.388413 
1274.000000	96.389983 
1273.000000	96.388601 
1272.000000	96.386031 
1271.000000	96.384194 
1270.000000	96.383603 
1269.000000	96.383561 
1268.000000	96.383513 
1267.000000	96.383072 
1266.000000	96.381271 
1265.000000	96.377870 
1264.000000	96.374980 
1263.000000	96.375417 
1262.000000	96.379315 
1261.000000	96.383821 
1260.000000	96.386800 
1259.000000	96.389316 
1258.000000	96.392993 
1257.000000	96.396551 
1256.000000	96.396497 
1255.000000	96.391474 
1254.000000	96.384773 
1253.000000	96.381434 
1252.000000	96.382820 
1251.000000	96.385428 
1250.000000	96.385501 
1249.000000	96.383613 
1248.000000	96.383403 
1247.000000	96.386310 
1246.000000	96.389406 
1245.000000	96.389120 
1244.000000	96.385230 
1243.000000	96.380661 
1242.000000	96.379023 
1241.000000	96.382788 
1240.000000	96.391553 
1239.000000	96.400748 
1238.000000	96.404072 
1237.000000	96.399009 
1236.000000	96.388789 
1235.000000	96.378128 
1234.000000	96.368781 
1233.000000	96.360360 
1232.000000	96.352971 
1231.000000	96.346423 
1230.000000	96.338629 
1229.000000	96.327603 
1228.000000	96.313686 
1227.000000	96.297182 
1226.000000	96.275150 
1225.000000	96.243651 
1224.000000	96.202861 
1223.000000	96.157154 
1222.000000	96.109837 
1221.000000	96.060004 
1220.000000	96.005088 
1219.000000	95.944469 
1218.000000	95.879693 
1217.000000	95.812441 
1216.000000	95.742565 
1215.000000	95.667444 
1214.000000	95.584247 
1213.000000	95.494301 
1212.000000	95.403518 
1211.000000	95.315520 
1210.000000	95.225925 
1209.000000	95.127481 
1208.000000	95.020019 
1207.000000	94.910944 
1206.000000	94.805751 
1205.000000	94.702446 
1204.000000	94.596264 
1203.000000	94.485673 
1202.000000	94.372208 
1201.000000	94.257723 
1200.000000	94.143641 
1199.000000	94.030598 
1198.000000	93.917413 
1197.000000	93.802482 
1196.000000	93.686435 
1195.000000	93.571078 
1194.000000	93.456004 
1193.000000	93.339020 
1192.000000	93.219622 
1191.000000	93.098741 
1190.000000	92.975494 
1189.000000	92.847961 
1188.000000	92.717085 
1187.000000	92.586023 
1186.000000	92.455683 
1185.000000	92.324540 
1184.000000	92.192294 
1183.000000	92.059625 
1182.000000	91.925155 
1181.000000	91.787144 
1180.000000	91.647259 
1179.000000	91.507536 
1178.000000	91.364413 
1177.000000	91.211735 
1176.000000	91.049300 
1175.000000	90.882363 
1174.000000	90.712966 
1173.000000	90.538304 
1172.000000	90.357834 
1171.000000	90.174550 
1170.000000	89.988616 
1169.000000	89.797792 
1168.000000	89.606118 
1167.000000	89.425210 
1166.000000	89.265965 
1165.000000	89.136898 
1164.000000	89.051030 
1163.000000	89.023171 
1162.000000	89.055056 
1161.000000	89.128977 
1160.000000	89.217854 
1159.000000	89.295645 
1158.000000	89.339349 
1157.000000	89.332709 
1156.000000	89.273374 
1155.000000	89.171529 
1154.000000	89.039494 
1153.000000	88.886983 
1152.000000	88.725240 
1151.000000	88.565919 
1150.000000	88.412418 
1149.000000	88.259925 
1148.000000	88.106494 
1147.000000	87.956146 
1146.000000	87.809104 
1145.000000	87.658322 
1144.000000	87.499374 
1143.000000	87.335663 
1142.000000	87.170570 
1141.000000	87.002543 
1140.000000	86.831140 
1139.000000	86.659787 
1138.000000	86.489286 
1137.000000	86.316258 
1136.000000	86.140166 
1135.000000	85.963508 
1134.000000	85.783391 
1133.000000	85.592585 
1132.000000	85.391304 
1131.000000	85.188277 
1130.000000	84.987689 
1129.000000	84.784914 
1128.000000	84.577381 
1127.000000	84.368614 
1126.000000	84.158562 
1125.000000	83.941152 
1124.000000	83.715219 
1123.000000	83.487447 
1122.000000	83.261366 
1121.000000	83.034257 
1120.000000	82.807600 
1119.000000	82.588456 
1118.000000	82.377680 
1117.000000	82.169643 
1116.000000	81.966150 
1115.000000	81.776872 
1114.000000	81.603000 
1113.000000	81.434683 
1112.000000	81.267552 
1111.000000	81.106443 
1110.000000	80.949855 
1109.000000	80.787286 
1108.000000	80.615698 
1107.000000	80.442600 
1106.000000	80.269984 
1105.000000	80.091279 
1104.000000	79.906977 
1103.000000	79.726336 
1102.000000	79.549691 
1101.000000	79.367187 
1100.000000	79.178403 
1099.000000	78.994682 
1098.000000	78.820291 
1097.000000	78.646954 
1096.000000	78.471828 
1095.000000	78.301700 
1094.000000	78.136086 
1093.000000	77.965684 
1092.000000	77.792126 
1091.000000	77.629645 
1090.000000	77.482290 
1089.000000	77.338666 
1088.000000	77.193244 
1087.000000	77.052682 
1086.000000	76.917230 
1085.000000	76.777333 
1084.000000	76.633540 
1083.000000	76.498206 
1082.000000	76.371996 
1081.000000	76.240109 
1080.000000	76.097397 
1079.000000	75.955528 
1078.000000	75.819332 
1077.000000	75.677456 
1076.000000	75.522444 
1075.000000	75.358120 
1074.000000	75.181182 
1073.000000	74.977489 
1072.000000	74.742462 
1071.000000	74.483445 
1070.000000	74.196979 
1069.000000	73.867410 
1068.000000	73.495332 
1067.000000	73.105055 
1066.000000	72.716137 
1065.000000	72.328764 
1064.000000	71.943572 
1063.000000	71.570129 
1062.000000	71.206077 
1061.000000	70.832697 
1060.000000	70.442355 
1059.000000	70.048453 
1058.000000	69.659523 
1057.000000	69.266088 
1056.000000	68.861300 
1055.000000	68.450459 
1054.000000	68.031053 
1053.000000	67.587804 
1052.000000	67.118667 
1051.000000	66.641790 
1050.000000	66.165522 
1049.000000	65.677968 
1048.000000	65.176201 
1047.000000	64.675592 
1046.000000	64.181382 
1045.000000	63.680994 
1044.000000	63.171298 
1043.000000	62.664917 
1042.000000	62.163709 
1041.000000	61.654789 
1040.000000	61.139769 
1039.000000	60.639042 
1038.000000	60.159891 
1037.000000	59.689813 
1036.000000	59.227718 
1035.000000	58.790313 
1034.000000	58.380706 
1033.000000	57.983366 
1032.000000	57.597344 
1031.000000	57.241136 
1030.000000	56.917454 
1029.000000	56.607940 
1028.000000	56.310499 
1027.000000	56.045849 
1026.000000	55.817728 
1025.000000	55.602189 
1024.000000	55.385833 
1023.000000	55.179565 
1022.000000	54.985337 
1021.000000	54.785675 
1020.000000	54.576188 
1019.000000	54.373217 
1018.000000	54.179684 
1017.000000	53.978302 
1016.000000	53.767103 
1015.000000	53.565856 
1014.000000	53.378641 
1013.000000	53.186359 
1012.000000	52.984949 
1011.000000	52.794447 
1010.000000	52.621458 
1009.000000	52.450031 
1008.000000	52.278824 
1007.000000	52.129819 
1006.000000	52.010407 
1005.000000	51.903764 
1004.000000	51.805531 
1003.000000	51.732290 
1002.000000	51.684584 
1001.000000	51.640275 
1000.000000	51.594886 
999.000000	 51.570537 
998.000000	 51.574331 
997.000000	 51.585639 
996.000000	 51.595037 
995.000000	 51.618632 
994.000000	 51.662955 
993.000000	 51.712478 
992.000000	 51.762295 
991.000000	 51.827094 
990.000000	 51.908090 
989.000000	 51.987560 
988.000000	 52.065366 
987.000000	 52.164151 
986.000000	 52.289575 
985.000000	 52.422857 
984.000000	 52.561164 
983.000000	 52.726790 
982.000000	 52.926306 
981.000000	 53.139031 
980.000000	 53.356684 
979.000000	 53.597064 
978.000000	 53.867330 
977.000000	 54.151202 
976.000000	 54.443968 
975.000000	 54.763758 
974.000000	 55.115935 
973.000000	 55.481134 
972.000000	 55.849922 
971.000000	 56.235762 
970.000000	 56.643046 
969.000000	 57.055821 
968.000000	 57.468397 
967.000000	 57.894616 
966.000000	 58.337050 
965.000000	 58.778945 
964.000000	 59.215313 
963.000000	 59.660123 
962.000000	 60.114460 
961.000000	 60.559482 
960.000000	 60.989210 
959.000000	 61.418759 
958.000000	 61.852021 
957.000000	 62.272503 
956.000000	 62.674502 
955.000000	 63.072428 
954.000000	 63.470755 
953.000000	 63.854665 
952.000000	 64.218487 
951.000000	 64.573559 
950.000000	 64.920445 
949.000000	 65.243277 
948.000000	 65.539491 
947.000000	 65.825413 
946.000000	 66.104327 
945.000000	 66.358217 
944.000000	 66.579946 
943.000000	 66.785251 
942.000000	 66.984403 
941.000000	 67.169797 
940.000000	 67.340560 
939.000000	 67.511383 
938.000000	 67.687347 
937.000000	 67.856768 
936.000000	 68.018236 
935.000000	 68.188173 
934.000000	 68.372746 
933.000000	 68.558736 
932.000000	 68.740684 
931.000000	 68.930203 
930.000000	 69.129772 
929.000000	 69.323934 
928.000000	 69.505608 
927.000000	 69.685493 
926.000000	 69.866738 
925.000000	 70.035323 
924.000000	 70.183798 
923.000000	 70.320297 
922.000000	 70.447211 
921.000000	 70.555965 
920.000000	 70.649519 
919.000000	 70.744146 
918.000000	 70.841693 
917.000000	 70.925914 
916.000000	 70.994138 
915.000000	 71.067593 
914.000000	 71.163627 
913.000000	 71.283688 
912.000000	 71.435014 
911.000000	 71.636037 
910.000000	 71.891315 
909.000000	 72.187221 
908.000000	 72.519936 
907.000000	 72.901498 
906.000000	 73.331933 
905.000000	 73.792502 
904.000000	 74.272538 
903.000000	 74.776317 
902.000000	 75.298913 
901.000000	 75.823452 
900.000000	 76.347592 
899.000000	 76.885140 
898.000000	 77.435765 
897.000000	 77.978786 
896.000000	 78.501166 
895.000000	 79.006031 
894.000000	 79.490844 
893.000000	 79.944539 
892.000000	 80.370967 
891.000000	 80.789048 
890.000000	 81.203578 
889.000000	 81.599012 
888.000000	 81.966115 
887.000000	 82.311105 
886.000000	 82.635626 
885.000000	 82.932609 
884.000000	 83.205556 
883.000000	 83.466441 
882.000000	 83.710813 
881.000000	 83.922452 
880.000000	 84.108429 
879.000000	 84.301333 
878.000000	 84.518843 
877.000000	 84.749181 
876.000000	 84.985080 
875.000000	 85.242365 
874.000000	 85.534637 
873.000000	 85.858349 
872.000000	 86.213445 
871.000000	 86.610215 
870.000000	 87.043358 
869.000000	 87.483815 
868.000000	 87.907567 
867.000000	 88.312550 
866.000000	 88.701650 
865.000000	 89.071855 
864.000000	 89.427894 
863.000000	 89.784698 
862.000000	 90.145639 
861.000000	 90.495237 
860.000000	 90.821429 
859.000000	 91.128882 
858.000000	 91.424313 
857.000000	 91.705004 
856.000000	 91.968101 
855.000000	 92.215507 
854.000000	 92.443694 
853.000000	 92.643693 
852.000000	 92.816357 
851.000000	 92.973495 
850.000000	 93.120534 
849.000000	 93.253023 
848.000000	 93.372243 
847.000000	 93.486330 
846.000000	 93.592145 
845.000000	 93.674297 
844.000000	 93.726853 
843.000000	 93.758301 
842.000000	 93.770696 
841.000000	 93.752598 
840.000000	 93.698661 
839.000000	 93.618265 
838.000000	 93.518984 
837.000000	 93.399934 
836.000000	 93.268775 
835.000000	 93.146598 
834.000000	 93.045784 
833.000000	 92.958976 
832.000000	 92.879394 
831.000000	 92.816069 
830.000000	 92.779534 
829.000000	 92.768634 
828.000000	 92.782112 
827.000000	 92.827316 
826.000000	 92.906391 
825.000000	 93.009225 
824.000000	 93.128877 
823.000000	 93.266320 
822.000000	 93.413234 
821.000000	 93.550847 
820.000000	 93.671397 
819.000000	 93.780424 
818.000000	 93.874181 
817.000000	 93.934186 
816.000000	 93.948725 
815.000000	 93.922509 
814.000000	 93.858999 
813.000000	 93.747687 
812.000000	 93.573800 
811.000000	 93.325042 
810.000000	 92.982906 
809.000000	 92.523885 
808.000000	 91.939305 
807.000000	 91.243746 
806.000000	 90.459730 
805.000000	 89.609081 
804.000000	 88.725809 
803.000000	 87.858983 
802.000000	 87.051501 
801.000000	 86.332081 
800.000000	 85.734820 
799.000000	 85.301977 
798.000000	 85.053132 
797.000000	 84.970545 
796.000000	 85.023207 
795.000000	 85.183423 
794.000000	 85.414751 
793.000000	 85.672505 
792.000000	 85.928530 
791.000000	 86.174951 
790.000000	 86.397466 
789.000000	 86.567339 
788.000000	 86.665294 
787.000000	 86.690374 
786.000000	 86.638977 
785.000000	 86.497713 
784.000000	 86.265838 
783.000000	 85.966741 
782.000000	 85.632807 
781.000000	 85.299571 
780.000000	 85.016988 
779.000000	 84.837637 
778.000000	 84.782056 
777.000000	 84.836728 
776.000000	 84.989930 
775.000000	 85.241212 
774.000000	 85.569510 
773.000000	 85.924726 
772.000000	 86.265326 
771.000000	 86.580372 
770.000000	 86.866136 
769.000000	 87.108576 
768.000000	 87.300914 
767.000000	 87.453704 
766.000000	 87.574206 
765.000000	 87.657171 
764.000000	 87.707644 
763.000000	 87.750856 
762.000000	 87.806030 
761.000000	 87.869168 
760.000000	 87.932542 
759.000000	 88.001133 
758.000000	 88.079355 
757.000000	 88.162882 
756.000000	 88.255441 
755.000000	 88.372792 
754.000000	 88.516691 
753.000000	 88.663260 
752.000000	 88.789697 
751.000000	 88.897075 
750.000000	 88.998874 
749.000000	 89.104902 
748.000000	 89.224774 
747.000000	 89.368009 
746.000000	 89.530509 
745.000000	 89.698120 
744.000000	 89.872002 
743.000000	 90.071979 
742.000000	 90.306695 
741.000000	 90.560229 
740.000000	 90.816535 
739.000000	 91.076647 
738.000000	 91.342145 
737.000000	 91.600923 
736.000000	 91.840345 
735.000000	 92.058587 
734.000000	 92.254785 
733.000000	 92.424033 
732.000000	 92.568435 
731.000000	 92.696632 
730.000000	 92.807252 
729.000000	 92.890081 
728.000000	 92.949437 
727.000000	 93.007774 
726.000000	 93.081168 
725.000000	 93.169951 
724.000000	 93.274526 
723.000000	 93.397940 
722.000000	 93.529795 
721.000000	 93.651442 
720.000000	 93.763143 
719.000000	 93.881980 
718.000000	 94.007366 
717.000000	 94.116573 
716.000000	 94.199166 
715.000000	 94.269526 
714.000000	 94.339579 
713.000000	 94.404490 
712.000000	 94.464340 
711.000000	 94.532750 
710.000000	 94.611550 
709.000000	 94.680437 
708.000000	 94.723819 
707.000000	 94.745335 
706.000000	 94.744911 
705.000000	 94.708447 
704.000000	 94.631477 
703.000000	 94.524706 
702.000000	 94.381849 
701.000000	 94.166960 
700.000000	 93.850285 
699.000000	 93.440400 
698.000000	 92.973634 
697.000000	 92.500716 
696.000000	 92.094903 
695.000000	 91.836753 
694.000000	 91.765365 
693.000000	 91.856305 
692.000000	 92.054985 
691.000000	 92.313611 
690.000000	 92.589306 
689.000000	 92.840206 
688.000000	 93.047508 
687.000000	 93.222412 
686.000000	 93.376848 
685.000000	 93.507768 
684.000000	 93.618693 
683.000000	 93.728300 
682.000000	 93.845508 
681.000000	 93.962211 
680.000000	 94.078389 
679.000000	 94.207731 
678.000000	 94.346910 
677.000000	 94.473437 
676.000000	 94.588768 
675.000000	 94.718471 
674.000000	 94.865391 
673.000000	 94.998755 
672.000000	 95.105788 
671.000000	 95.216122 
670.000000	 95.369682 
669.000000	 95.557337 
668.000000	 95.710129 
667.000000	 95.800717 
666.000000	 95.873506 
665.000000	 95.933821 
664.000000	 95.984922 
663.000000	 96.050600 
662.000000	 96.145833 
661.000000	 96.243677 
660.000000	 96.321911 
659.000000	 96.393974 
658.000000	 96.466853 
657.000000	 96.509440 
656.000000	 96.502672 
655.000000	 96.469196 
654.000000	 96.429324 
653.000000	 96.370669 
652.000000	 96.299006 
651.000000	 96.270689 
650.000000	 96.319842 

