4000.000000	97.470088 
3999.000000	97.468462 
3998.000000	97.465827 
3997.000000	97.463139 
3996.000000	97.461082 
3995.000000	97.459858 
3994.000000	97.459294 
3993.000000	97.458979 
3992.000000	97.458405 
3991.000000	97.457193 
3990.000000	97.455394 
3989.000000	97.453467 
3988.000000	97.451922 
3987.000000	97.451164 
3986.000000	97.451490 
3985.000000	97.452808 
3984.000000	97.454392 
3983.000000	97.455341 
3982.000000	97.455549 
3981.000000	97.455780 
3980.000000	97.456491 
3979.000000	97.456997 
3978.000000	97.456296 
3977.000000	97.454425 
3976.000000	97.452541 
3975.000000	97.451553 
3974.000000	97.451147 
3973.000000	97.450325 
3972.000000	97.448449 
3971.000000	97.445673 
3970.000000	97.442714 
3969.000000	97.440519 
3968.000000	97.439806 
3967.000000	97.440672 
3966.000000	97.442562 
3965.000000	97.444470 
3964.000000	97.445317 
3963.000000	97.444492 
3962.000000	97.442298 
3961.000000	97.439865 
3960.000000	97.438196 
3959.000000	97.437378 
3958.000000	97.436835 
3957.000000	97.436173 
3956.000000	97.435336 
3955.000000	97.434269 
3954.000000	97.432932 
3953.000000	97.431480 
3952.000000	97.430200 
3951.000000	97.429143 
3950.000000	97.428070 
3949.000000	97.426782 
3948.000000	97.425392 
3947.000000	97.424333 
3946.000000	97.423936 
3945.000000	97.423988 
3944.000000	97.423762 
3943.000000	97.422781 
3942.000000	97.421487 
3941.000000	97.420797 
3940.000000	97.421104 
3939.000000	97.421982 
3938.000000	97.422697 
3937.000000	97.422983 
3936.000000	97.422913 
3935.000000	97.422260 
3934.000000	97.420669 
3933.000000	97.418347 
3932.000000	97.416218 
3931.000000	97.414889 
3930.000000	97.414179 
3929.000000	97.413897 
3928.000000	97.414225 
3927.000000	97.415065 
3926.000000	97.415384 
3925.000000	97.414266 
3924.000000	97.412245 
3923.000000	97.410560 
3922.000000	97.409520 
3921.000000	97.408686 
3920.000000	97.407953 
3919.000000	97.407632 
3918.000000	97.407468 
3917.000000	97.406840 
3916.000000	97.405830 
3915.000000	97.405190 
3914.000000	97.405145 
3913.000000	97.405218 
3912.000000	97.404983 
3911.000000	97.404595 
3910.000000	97.404175 
3909.000000	97.403675 
3908.000000	97.403087 
3907.000000	97.402440 
3906.000000	97.401430 
3905.000000	97.399450 
3904.000000	97.396486 
3903.000000	97.393437 
3902.000000	97.391308 
3901.000000	97.390313 
3900.000000	97.390003 
3899.000000	97.389934 
3898.000000	97.389924 
3897.000000	97.389763 
3896.000000	97.389237 
3895.000000	97.388447 
3894.000000	97.387636 
3893.000000	97.386916 
3892.000000	97.386108 
3891.000000	97.385101 
3890.000000	97.384035 
3889.000000	97.383083 
3888.000000	97.382241 
3887.000000	97.381402 
3886.000000	97.380545 
3885.000000	97.379716 
3884.000000	97.378907 
3883.000000	97.378089 
3882.000000	97.377260 
3881.000000	97.376427 
3880.000000	97.375602 
3879.000000	97.374796 
3878.000000	97.374005 
3877.000000	97.373217 
3876.000000	97.372417 
3875.000000	97.371599 
3874.000000	97.370770 
3873.000000	97.369941 
3872.000000	97.369124 
3871.000000	97.368323 
3870.000000	97.367551 
3869.000000	97.366830 
3868.000000	97.366173 
3867.000000	97.365571 
3866.000000	97.365003 
3865.000000	97.364465 
3864.000000	97.363962 
3863.000000	97.363492 
3862.000000	97.363039 
3861.000000	97.362586 
3860.000000	97.362127 
3859.000000	97.361657 
3858.000000	97.361174 
3857.000000	97.360687 
3856.000000	97.360207 
3855.000000	97.359755 
3854.000000	97.359307 
3853.000000	97.358856 
3852.000000	97.358498 
3851.000000	97.358289 
3850.000000	97.358180 
3849.000000	97.358109 
3848.000000	97.358143 
3847.000000	97.358366 
3846.000000	97.358616 
3845.000000	97.358632 
3844.000000	97.358273 
3843.000000	97.357556 
3842.000000	97.356667 
3841.000000	97.355910 
3840.000000	97.355408 
3839.000000	97.355268 
3838.000000	97.355519 
3837.000000	97.355848 
3836.000000	97.355898 
3835.000000	97.355740 
3834.000000	97.355801 
3833.000000	97.356328 
3832.000000	97.357169 
3831.000000	97.358097 
3830.000000	97.358943 
3829.000000	97.359653 
3828.000000	97.360176 
3827.000000	97.360312 
3826.000000	97.359921 
3825.000000	97.359439 
3824.000000	97.359303 
3823.000000	97.359278 
3822.000000	97.358641 
3821.000000	97.357483 
3820.000000	97.356925 
3819.000000	97.357487 
3818.000000	97.358720 
3817.000000	97.359690 
3816.000000	97.360530 
3815.000000	97.362313 
3814.000000	97.364762 
3813.000000	97.366142 
3812.000000	97.365696 
3811.000000	97.364785 
3810.000000	97.365415 
3809.000000	97.367720 
3808.000000	97.369344 
3807.000000	97.368271 
3806.000000	97.365170 
3805.000000	97.362213 
3804.000000	97.360408 
3803.000000	97.359268 
3802.000000	97.358104 
3801.000000	97.357983 
3800.000000	97.359767 
3799.000000	97.361888 
3798.000000	97.362654 
3797.000000	97.362521 
3796.000000	97.363705 
3795.000000	97.367171 
3794.000000	97.371235 
3793.000000	97.373573 
3792.000000	97.374050 
3791.000000	97.374280 
3790.000000	97.374790 
3789.000000	97.374395 
3788.000000	97.372468 
3787.000000	97.370052 
3786.000000	97.368346 
3785.000000	97.367211 
3784.000000	97.366158 
3783.000000	97.365573 
3782.000000	97.365393 
3781.000000	97.364605 
3780.000000	97.362904 
3779.000000	97.362113 
3778.000000	97.363709 
3777.000000	97.366464 
3776.000000	97.367199 
3775.000000	97.364317 
3774.000000	97.359763 
3773.000000	97.356992 
3772.000000	97.356553 
3771.000000	97.355805 
3770.000000	97.353683 
3769.000000	97.352411 
3768.000000	97.352955 
3767.000000	97.352924 
3766.000000	97.349600 
3765.000000	97.343803 
3764.000000	97.339645 
3763.000000	97.339372 
3762.000000	97.340373 
3761.000000	97.339372 
3760.000000	97.337247 
3759.000000	97.336785 
3758.000000	97.335857 
3757.000000	97.330985 
3756.000000	97.323363 
3755.000000	97.315997 
3754.000000	97.308948 
3753.000000	97.300632 
3752.000000	97.293536 
3751.000000	97.290782 
3750.000000	97.287726 
3749.000000	97.279515 
3748.000000	97.271693 
3747.000000	97.272462 
3746.000000	97.280292 
3745.000000	97.285778 
3744.000000	97.289355 
3743.000000	97.296446 
3742.000000	97.302639 
3741.000000	97.301325 
3740.000000	97.294126 
3739.000000	97.290241 
3738.000000	97.293337 
3737.000000	97.295887 
3736.000000	97.292415 
3735.000000	97.289455 
3734.000000	97.294372 
3733.000000	97.303223 
3732.000000	97.308780 
3731.000000	97.310510 
3730.000000	97.311504 
3729.000000	97.312428 
3728.000000	97.311133 
3727.000000	97.306864 
3726.000000	97.302927 
3725.000000	97.302061 
3724.000000	97.302977 
3723.000000	97.303869 
3722.000000	97.305551 
3721.000000	97.309013 
3720.000000	97.312870 
3719.000000	97.315828 
3718.000000	97.317040 
3717.000000	97.316399 
3716.000000	97.314483 
3715.000000	97.310665 
3714.000000	97.303765 
3713.000000	97.295046 
3712.000000	97.288854 
3711.000000	97.288045 
3710.000000	97.290586 
3709.000000	97.292985 
3708.000000	97.293093 
3707.000000	97.290049 
3706.000000	97.284894 
3705.000000	97.279873 
3704.000000	97.276666 
3703.000000	97.274956 
3702.000000	97.272475 
3701.000000	97.267071 
3700.000000	97.259072 
3699.000000	97.251183 
3698.000000	97.244976 
3697.000000	97.239737 
3696.000000	97.235152 
3695.000000	97.231123 
3694.000000	97.225720 
3693.000000	97.217723 
3692.000000	97.209740 
3691.000000	97.206127 
3690.000000	97.206981 
3689.000000	97.208228 
3688.000000	97.207420 
3687.000000	97.205553 
3686.000000	97.203586 
3685.000000	97.199833 
3684.000000	97.193492 
3683.000000	97.187644 
3682.000000	97.184830 
3681.000000	97.180935 
3680.000000	97.170252 
3679.000000	97.154462 
3678.000000	97.141413 
3677.000000	97.132343 
3676.000000	97.121643 
3675.000000	97.110542 
3674.000000	97.103997 
3673.000000	97.101727 
3672.000000	97.098739 
3671.000000	97.091231 
3670.000000	97.083172 
3669.000000	97.080617 
3668.000000	97.080797 
3667.000000	97.078127 
3666.000000	97.072876 
3665.000000	97.068084 
3664.000000	97.064440 
3663.000000	97.059924 
3662.000000	97.051918 
3661.000000	97.039742 
3660.000000	97.026006 
3659.000000	97.013481 
3658.000000	97.002162 
3657.000000	96.988087 
3656.000000	96.969624 
3655.000000	96.950717 
3654.000000	96.935565 
3653.000000	96.924024 
3652.000000	96.911803 
3651.000000	96.895691 
3650.000000	96.878585 
3649.000000	96.865272 
3648.000000	96.856427 
3647.000000	96.852097 
3646.000000	96.853797 
3645.000000	96.861215 
3644.000000	96.870550 
3643.000000	96.877109 
3642.000000	96.877984 
3641.000000	96.873231 
3640.000000	96.863990 
3639.000000	96.850881 
3638.000000	96.835889 
3637.000000	96.822101 
3636.000000	96.810095 
3635.000000	96.795662 
3634.000000	96.775557 
3633.000000	96.753142 
3632.000000	96.734525 
3631.000000	96.720183 
3630.000000	96.704593 
3629.000000	96.688648 
3628.000000	96.680875 
3627.000000	96.682667 
3626.000000	96.688083 
3625.000000	96.693674 
3624.000000	96.700724 
3623.000000	96.711436 
3622.000000	96.723694 
3621.000000	96.730106 
3620.000000	96.724264 
3619.000000	96.707436 
3618.000000	96.687242 
3617.000000	96.672140 
3616.000000	96.667730 
3615.000000	96.673692 
3614.000000	96.684725 
3613.000000	96.695573 
3612.000000	96.704082 
3611.000000	96.709613 
3610.000000	96.711674 
3609.000000	96.710981 
3608.000000	96.710209 
3607.000000	96.711694 
3606.000000	96.715221 
3605.000000	96.720069 
3604.000000	96.726787 
3603.000000	96.735575 
3602.000000	96.744478 
3601.000000	96.749832 
3600.000000	96.749919 
3599.000000	96.746039 
3598.000000	96.740881 
3597.000000	96.737022 
3596.000000	96.736216 
3595.000000	96.737371 
3594.000000	96.738206 
3593.000000	96.738194 
3592.000000	96.738818 
3591.000000	96.741366 
3590.000000	96.744466 
3589.000000	96.744810 
3588.000000	96.741582 
3587.000000	96.738382 
3586.000000	96.738819 
3585.000000	96.743178 
3584.000000	96.750167 
3583.000000	96.758526 
3582.000000	96.767016 
3581.000000	96.773620 
3580.000000	96.776203 
3579.000000	96.773954 
3578.000000	96.768095 
3577.000000	96.761353 
3576.000000	96.756176 
3575.000000	96.753318 
3574.000000	96.751655 
3573.000000	96.749707 
3572.000000	96.746511 
3571.000000	96.741774 
3570.000000	96.735085 
3569.000000	96.725798 
3568.000000	96.715345 
3567.000000	96.708614 
3566.000000	96.709522 
3565.000000	96.717102 
3564.000000	96.727379 
3563.000000	96.736819 
3562.000000	96.743670 
3561.000000	96.747614 
3560.000000	96.748988 
3559.000000	96.748549 
3558.000000	96.747268 
3557.000000	96.745990 
3556.000000	96.744871 
3555.000000	96.743312 
3554.000000	96.740534 
3553.000000	96.736587 
3552.000000	96.732686 
3551.000000	96.730153 
3550.000000	96.729335 
3549.000000	96.729662 
3548.000000	96.730250 
3547.000000	96.730178 
3546.000000	96.728663 
3545.000000	96.725846 
3544.000000	96.723297 
3543.000000	96.722853 
3542.000000	96.724847 
3541.000000	96.728136 
3540.000000	96.731437 
3539.000000	96.733965 
3538.000000	96.735113 
3537.000000	96.734516 
3536.000000	96.732756 
3535.000000	96.730985 
3534.000000	96.729977 
3533.000000	96.729726 
3532.000000	96.730139 
3531.000000	96.731336 
3530.000000	96.733001 
3529.000000	96.734070 
3528.000000	96.733638 
3527.000000	96.731953 
3526.000000	96.730057 
3525.000000	96.728819 
3524.000000	96.728611 
3523.000000	96.729507 
3522.000000	96.731192 
3521.000000	96.732999 
3520.000000	96.734297 
3519.000000	96.734794 
3518.000000	96.734498 
3517.000000	96.733395 
3516.000000	96.731516 
3515.000000	96.729228 
3514.000000	96.727291 
3513.000000	96.726248 
3512.000000	96.725790 
3511.000000	96.725033 
3510.000000	96.723523 
3509.000000	96.721791 
3508.000000	96.720807 
3507.000000	96.720972 
3506.000000	96.721684 
3505.000000	96.721838 
3504.000000	96.720896 
3503.000000	96.719494 
3502.000000	96.718895 
3501.000000	96.719919 
3500.000000	96.722491 
3499.000000	96.725894 
3498.000000	96.729193 
3497.000000	96.731477 
3496.000000	96.731969 
3495.000000	96.730354 
3494.000000	96.727272 
3493.000000	96.724199 
3492.000000	96.722307 
3491.000000	96.721623 
3490.000000	96.721548 
3489.000000	96.721788 
3488.000000	96.722295 
3487.000000	96.722569 
3486.000000	96.721830 
3485.000000	96.720133 
3484.000000	96.718677 
3483.000000	96.718620 
3482.000000	96.720000 
3481.000000	96.722064 
3480.000000	96.724141 
3479.000000	96.725692 
3478.000000	96.725954 
3477.000000	96.724282 
3476.000000	96.720796 
3475.000000	96.716392 
3474.000000	96.712117 
3473.000000	96.708811 
3472.000000	96.707060 
3471.000000	96.706910 
3470.000000	96.707599 
3469.000000	96.707992 
3468.000000	96.707472 
3467.000000	96.706391 
3466.000000	96.705558 
3465.000000	96.705305 
3464.000000	96.705137 
3463.000000	96.704215 
3462.000000	96.702146 
3461.000000	96.699270 
3460.000000	96.696235 
3459.000000	96.693333 
3458.000000	96.690378 
3457.000000	96.687160 
3456.000000	96.683963 
3455.000000	96.681440 
3454.000000	96.679978 
3453.000000	96.679103 
3452.000000	96.677869 
3451.000000	96.675828 
3450.000000	96.673316 
3449.000000	96.670776 
3448.000000	96.668107 
3447.000000	96.664984 
3446.000000	96.661630 
3445.000000	96.658965 
3444.000000	96.657868 
3443.000000	96.658384 
3442.000000	96.659549 
3441.000000	96.659980 
3440.000000	96.658823 
3439.000000	96.656181 
3438.000000	96.652862 
3437.000000	96.649780 
3436.000000	96.647563 
3435.000000	96.646498 
3434.000000	96.646521 
3433.000000	96.647078 
3432.000000	96.647351 
3431.000000	96.646885 
3430.000000	96.645853 
3429.000000	96.644680 
3428.000000	96.643467 
3427.000000	96.641987 
3426.000000	96.640231 
3425.000000	96.638649 
3424.000000	96.637664 
3423.000000	96.637078 
3422.000000	96.636223 
3421.000000	96.634750 
3420.000000	96.633025 
3419.000000	96.631636 
3418.000000	96.630723 
3417.000000	96.630045 
3416.000000	96.629470 
3415.000000	96.629064 
3414.000000	96.628719 
3413.000000	96.628050 
3412.000000	96.626835 
3411.000000	96.625353 
3410.000000	96.624127 
3409.000000	96.623455 
3408.000000	96.623208 
3407.000000	96.622980 
3406.000000	96.622404 
3405.000000	96.621499 
3404.000000	96.620718 
3403.000000	96.620480 
3402.000000	96.620678 
3401.000000	96.620768 
3400.000000	96.620401 
3399.000000	96.619764 
3398.000000	96.619191 
3397.000000	96.618677 
3396.000000	96.617956 
3395.000000	96.616933 
3394.000000	96.615717 
3393.000000	96.614317 
3392.000000	96.612548 
3391.000000	96.610357 
3390.000000	96.608138 
3389.000000	96.606615 
3388.000000	96.606355 
3387.000000	96.607299 
3386.000000	96.608584 
3385.000000	96.608870 
3384.000000	96.607272 
3383.000000	96.604361 
3382.000000	96.602218 
3381.000000	96.602816 
3380.000000	96.606204 
3379.000000	96.610250 
3378.000000	96.612701 
3377.000000	96.613441 
3376.000000	96.613976 
3375.000000	96.615130 
3374.000000	96.616067 
3373.000000	96.615803 
3372.000000	96.614806 
3371.000000	96.614499 
3370.000000	96.615612 
3369.000000	96.617629 
3368.000000	96.619569 
3367.000000	96.620665 
3366.000000	96.620366 
3365.000000	96.618406 
3364.000000	96.615198 
3363.000000	96.611818 
3362.000000	96.609257 
3361.000000	96.607779 
3360.000000	96.607111 
3359.000000	96.607033 
3358.000000	96.607591 
3357.000000	96.608824 
3356.000000	96.610563 
3355.000000	96.612668 
3354.000000	96.615351 
3353.000000	96.619071 
3352.000000	96.623911 
3351.000000	96.629093 
3350.000000	96.633290 
3349.000000	96.635554 
3348.000000	96.636049 
3347.000000	96.635925 
3346.000000	96.636334 
3345.000000	96.637366 
3344.000000	96.637989 
3343.000000	96.637226 
3342.000000	96.635487 
3341.000000	96.634479 
3340.000000	96.635362 
3339.000000	96.637245 
3338.000000	96.638005 
3337.000000	96.636544 
3336.000000	96.633783 
3335.000000	96.631544 
3334.000000	96.630849 
3333.000000	96.631494 
3332.000000	96.632821 
3331.000000	96.634381 
3330.000000	96.635964 
3329.000000	96.637395 
3328.000000	96.638563 
3327.000000	96.639575 
3326.000000	96.640706 
3325.000000	96.642100 
3324.000000	96.643515 
3323.000000	96.644475 
3322.000000	96.644753 
3321.000000	96.644661 
3320.000000	96.644787 
3319.000000	96.645487 
3318.000000	96.646720 
3317.000000	96.648229 
3316.000000	96.649734 
3315.000000	96.650949 
3314.000000	96.651622 
3313.000000	96.651686 
3312.000000	96.651369 
3311.000000	96.651134 
3310.000000	96.651450 
3309.000000	96.652505 
3308.000000	96.653982 
3307.000000	96.655158 
3306.000000	96.655422 
3305.000000	96.654742 
3304.000000	96.653680 
3303.000000	96.653019 
3302.000000	96.653279 
3301.000000	96.654508 
3300.000000	96.656220 
3299.000000	96.657530 
3298.000000	96.657687 
3297.000000	96.656680 
3296.000000	96.655405 
3295.000000	96.655001 
3294.000000	96.655973 
3293.000000	96.658034 
3292.000000	96.660593 
3291.000000	96.663215 
3290.000000	96.665625 
3289.000000	96.667564 
3288.000000	96.668883 
3287.000000	96.669678 
3286.000000	96.670149 
3285.000000	96.670289 
3284.000000	96.669917 
3283.000000	96.669164 
3282.000000	96.668782 
3281.000000	96.669566 
3280.000000	96.671378 
3279.000000	96.673097 
3278.000000	96.673892 
3277.000000	96.674270 
3276.000000	96.675393 
3275.000000	96.677598 
3274.000000	96.680198 
3273.000000	96.682693 
3272.000000	96.685421 
3271.000000	96.688722 
3270.000000	96.692009 
3269.000000	96.694145 
3268.000000	96.694613 
3267.000000	96.694074 
3266.000000	96.693941 
3265.000000	96.695357 
3264.000000	96.698362 
3263.000000	96.701781 
3262.000000	96.704185 
3261.000000	96.705140 
3260.000000	96.705267 
3259.000000	96.705282 
3258.000000	96.705410 
3257.000000	96.705765 
3256.000000	96.706649 
3255.000000	96.707939 
3254.000000	96.708704 
3253.000000	96.708173 
3252.000000	96.706962 
3251.000000	96.706665 
3250.000000	96.708033 
3249.000000	96.710102 
3248.000000	96.711284 
3247.000000	96.711132 
3246.000000	96.710687 
3245.000000	96.711197 
3244.000000	96.712779 
3243.000000	96.714454 
3242.000000	96.715310 
3241.000000	96.715364 
3240.000000	96.715321 
3239.000000	96.715878 
3238.000000	96.717471 
3237.000000	96.720391 
3236.000000	96.724621 
3235.000000	96.729375 
3234.000000	96.733127 
3233.000000	96.734518 
3232.000000	96.733314 
3231.000000	96.730560 
3230.000000	96.727777 
3229.000000	96.725905 
3228.000000	96.725051 
3227.000000	96.725154 
3226.000000	96.726542 
3225.000000	96.729507 
3224.000000	96.733546 
3223.000000	96.737561 
3222.000000	96.740991 
3221.000000	96.744296 
3220.000000	96.748008 
3219.000000	96.751802 
3218.000000	96.754943 
3217.000000	96.757184 
3216.000000	96.758650 
3215.000000	96.759357 
3214.000000	96.759482 
3213.000000	96.759764 
3212.000000	96.760786 
3211.000000	96.761897 
3210.000000	96.761629 
3209.000000	96.759364 
3208.000000	96.756136 
3207.000000	96.753735 
3206.000000	96.753248 
3205.000000	96.754557 
3204.000000	96.756805 
3203.000000	96.759156 
3202.000000	96.761303 
3201.000000	96.763353 
3200.000000	96.765369 
3199.000000	96.767320 
3198.000000	96.769413 
3197.000000	96.771913 
3196.000000	96.774454 
3195.000000	96.776174 
3194.000000	96.776947 
3193.000000	96.777926 
3192.000000	96.780183 
3191.000000	96.783164 
3190.000000	96.785194 
3189.000000	96.785417 
3188.000000	96.784569 
3187.000000	96.784018 
3186.000000	96.784544 
3185.000000	96.786060 
3184.000000	96.787961 
3183.000000	96.789686 
3182.000000	96.791253 
3181.000000	96.793195 
3180.000000	96.795803 
3179.000000	96.798593 
3178.000000	96.800794 
3177.000000	96.802259 
3176.000000	96.803535 
3175.000000	96.805206 
3174.000000	96.807476 
3173.000000	96.810256 
3172.000000	96.813187 
3171.000000	96.815631 
3170.000000	96.817101 
3169.000000	96.817834 
3168.000000	96.818723 
3167.000000	96.820472 
3166.000000	96.822966 
3165.000000	96.825479 
3164.000000	96.827277 
3163.000000	96.828095 
3162.000000	96.828372 
3161.000000	96.829065 
3160.000000	96.830879 
3159.000000	96.833632 
3158.000000	96.836544 
3157.000000	96.839192 
3156.000000	96.841785 
3155.000000	96.844476 
3154.000000	96.846966 
3153.000000	96.849007 
3152.000000	96.850723 
3151.000000	96.852075 
3150.000000	96.852495 
3149.000000	96.851545 
3148.000000	96.849741 
3147.000000	96.848420 
3146.000000	96.848778 
3145.000000	96.851144 
3144.000000	96.854881 
3143.000000	96.858676 
3142.000000	96.861489 
3141.000000	96.863473 
3140.000000	96.865631 
3139.000000	96.868478 
3138.000000	96.871464 
3137.000000	96.873876 
3136.000000	96.875771 
3135.000000	96.877684 
3134.000000	96.879890 
3133.000000	96.882339 
3132.000000	96.884948 
3131.000000	96.887543 
3130.000000	96.889809 
3129.000000	96.891623 
3128.000000	96.893248 
3127.000000	96.895005 
3126.000000	96.896969 
3125.000000	96.899095 
3124.000000	96.901283 
3123.000000	96.903111 
3122.000000	96.903981 
3121.000000	96.903931 
3120.000000	96.903996 
3119.000000	96.905182 
3118.000000	96.907392 
3117.000000	96.909727 
3116.000000	96.911564 
3115.000000	96.912983 
3114.000000	96.914298 
3113.000000	96.915725 
3112.000000	96.917463 
3111.000000	96.919643 
3110.000000	96.922043 
3109.000000	96.924147 
3108.000000	96.925650 
3107.000000	96.926761 
3106.000000	96.927865 
3105.000000	96.929021 
3104.000000	96.930049 
3103.000000	96.930955 
3102.000000	96.931972 
3101.000000	96.933230 
3100.000000	96.934574 
3099.000000	96.935770 
3098.000000	96.936867 
3097.000000	96.938213 
3096.000000	96.939997 
3095.000000	96.941936 
3094.000000	96.943539 
3093.000000	96.944616 
3092.000000	96.945410 
3091.000000	96.946264 
3090.000000	96.947307 
3089.000000	96.948494 
3088.000000	96.949750 
3087.000000	96.951019 
3086.000000	96.952276 
3085.000000	96.953541 
3084.000000	96.954833 
3083.000000	96.956113 
3082.000000	96.957354 
3081.000000	96.958666 
3080.000000	96.960236 
3079.000000	96.962001 
3078.000000	96.963605 
3077.000000	96.964952 
3076.000000	96.966472 
3075.000000	96.968395 
3074.000000	96.970092 
3073.000000	96.970802 
3072.000000	96.970740 
3071.000000	96.970874 
3070.000000	96.971807 
3069.000000	96.973509 
3068.000000	96.975810 
3067.000000	96.978338 
3066.000000	96.980106 
3065.000000	96.980129 
3064.000000	96.978562 
3063.000000	96.976630 
3062.000000	96.975297 
3061.000000	96.974643 
3060.000000	96.974570 
3059.000000	96.975330 
3058.000000	96.977185 
3057.000000	96.980111 
3056.000000	96.983799 
3055.000000	96.987297 
3054.000000	96.988926 
3053.000000	96.987619 
3052.000000	96.984665 
3051.000000	96.983167 
3050.000000	96.984901 
3049.000000	96.988524 
3048.000000	96.991356 
3047.000000	96.992319 
3046.000000	96.992242 
3045.000000	96.992030 
3044.000000	96.991863 
3043.000000	96.992121 
3042.000000	96.993720 
3041.000000	96.996731 
3040.000000	96.999400 
3039.000000	96.999621 
3038.000000	96.997217 
3037.000000	96.994050 
3036.000000	96.991707 
3035.000000	96.989593 
3034.000000	96.986041 
3033.000000	96.980798 
3032.000000	96.975548 
3031.000000	96.972035 
3030.000000	96.970470 
3029.000000	96.969950 
3028.000000	96.969515 
3027.000000	96.968330 
3026.000000	96.965664 
3025.000000	96.961557 
3024.000000	96.957247 
3023.000000	96.954165 
3022.000000	96.952622 
3021.000000	96.952080 
3020.000000	96.952326 
3019.000000	96.953451 
3018.000000	96.954703 
3017.000000	96.954415 
3016.000000	96.951566 
3015.000000	96.946914 
3014.000000	96.942448 
3013.000000	96.939829 
3012.000000	96.939206 
3011.000000	96.939047 
3010.000000	96.937221 
3009.000000	96.932758 
3008.000000	96.926592 
3007.000000	96.920417 
3006.000000	96.914907 
3005.000000	96.909526 
3004.000000	96.903921 
3003.000000	96.898826 
3002.000000	96.895542 
3001.000000	96.894856 
3000.000000	96.896279 
2999.000000	96.897820 
2998.000000	96.896965 
2997.000000	96.892714 
2996.000000	96.886673 
2995.000000	96.881589 
2994.000000	96.878786 
2993.000000	96.877524 
2992.000000	96.876457 
2991.000000	96.874855 
2990.000000	96.872520 
2989.000000	96.869579 
2988.000000	96.866826 
2987.000000	96.865483 
2986.000000	96.866247 
2985.000000	96.868945 
2984.000000	96.873104 
2983.000000	96.878176 
2982.000000	96.883050 
2981.000000	96.886060 
2980.000000	96.885953 
2979.000000	96.882626 
2978.000000	96.876977 
2977.000000	96.870595 
2976.000000	96.865465 
2975.000000	96.863054 
2974.000000	96.863356 
2973.000000	96.865278 
2972.000000	96.868031 
2971.000000	96.871489 
2970.000000	96.875192 
2969.000000	96.878124 
2968.000000	96.879908 
2967.000000	96.881258 
2966.000000	96.882719 
2965.000000	96.883870 
2964.000000	96.884401 
2963.000000	96.885064 
2962.000000	96.886632 
2961.000000	96.888552 
2960.000000	96.889783 
2959.000000	96.890756 
2958.000000	96.893543 
2957.000000	96.899807 
2956.000000	96.908951 
2955.000000	96.918181 
2954.000000	96.924384 
2953.000000	96.926488 
2952.000000	96.926441 
2951.000000	96.927686 
2950.000000	96.931861 
2949.000000	96.937111 
2948.000000	96.940140 
2947.000000	96.939416 
2946.000000	96.935932 
2945.000000	96.931515 
2944.000000	96.927347 
2943.000000	96.923878 
2942.000000	96.921011 
2941.000000	96.918146 
2940.000000	96.914924 
2939.000000	96.912189 
2938.000000	96.911407 
2937.000000	96.912767 
2936.000000	96.914612 
2935.000000	96.915255 
2934.000000	96.914680 
2933.000000	96.913868 
2932.000000	96.913110 
2931.000000	96.911893 
2930.000000	96.910190 
2929.000000	96.908845 
2928.000000	96.908356 
2927.000000	96.907907 
2926.000000	96.906186 
2925.000000	96.903188 
2924.000000	96.900788 
2923.000000	96.901235 
2922.000000	96.905022 
2921.000000	96.910325 
2920.000000	96.914737 
2919.000000	96.917604 
2918.000000	96.920195 
2917.000000	96.923526 
2916.000000	96.926702 
2915.000000	96.928028 
2914.000000	96.927416 
2913.000000	96.926816 
2912.000000	96.928022 
2911.000000	96.930720 
2910.000000	96.933173 
2909.000000	96.934424 
2908.000000	96.935147 
2907.000000	96.936372 
2906.000000	96.937983 
2905.000000	96.938918 
2904.000000	96.938453 
2903.000000	96.937382 
2902.000000	96.937578 
2901.000000	96.940355 
2900.000000	96.945593 
2899.000000	96.951882 
2898.000000	96.957794 
2897.000000	96.962707 
2896.000000	96.966415 
2895.000000	96.968567 
2894.000000	96.969165 
2893.000000	96.969364 
2892.000000	96.970898 
2891.000000	96.974296 
2890.000000	96.978259 
2889.000000	96.981202 
2888.000000	96.982920 
2887.000000	96.984155 
2886.000000	96.985095 
2885.000000	96.985396 
2884.000000	96.985661 
2883.000000	96.987595 
2882.000000	96.992048 
2881.000000	96.997786 
2880.000000	97.002976 
2879.000000	97.007535 
2878.000000	97.012811 
2877.000000	97.019120 
2876.000000	97.024860 
2875.000000	97.028535 
2874.000000	97.030558 
2873.000000	97.032389 
2872.000000	97.034564 
2871.000000	97.036460 
2870.000000	97.037650 
2869.000000	97.038478 
2868.000000	97.039387 
2867.000000	97.040433 
2866.000000	97.041516 
2865.000000	97.042468 
2864.000000	97.042961 
2863.000000	97.043098 
2862.000000	97.044054 
2861.000000	97.047145 
2860.000000	97.052038 
2859.000000	97.056893 
2858.000000	97.060796 
2857.000000	97.065070 
2856.000000	97.071304 
2855.000000	97.078941 
2854.000000	97.085772 
2853.000000	97.090577 
2852.000000	97.094154 
2851.000000	97.097856 
2850.000000	97.102002 
2849.000000	97.105907 
2848.000000	97.108864 
2847.000000	97.110722 
2846.000000	97.111807 
2845.000000	97.112592 
2844.000000	97.113423 
2843.000000	97.114608 
2842.000000	97.116619 
2841.000000	97.119740 
2840.000000	97.123338 
2839.000000	97.126092 
2838.000000	97.127445 
2837.000000	97.128456 
2836.000000	97.130656 
2835.000000	97.134416 
2834.000000	97.139057 
2833.000000	97.144165 
2832.000000	97.149867 
2831.000000	97.155794 
2830.000000	97.160732 
2829.000000	97.163694 
2828.000000	97.164865 
2827.000000	97.165368 
2826.000000	97.166503 
2825.000000	97.169159 
2824.000000	97.173267 
2823.000000	97.177537 
2822.000000	97.180320 
2821.000000	97.181055 
2820.000000	97.180484 
2819.000000	97.179472 
2818.000000	97.178252 
2817.000000	97.177122 
2816.000000	97.177035 
2815.000000	97.178702 
2814.000000	97.181387 
2813.000000	97.183225 
2812.000000	97.182850 
2811.000000	97.180504 
2810.000000	97.177821 
2809.000000	97.176728 
2808.000000	97.178312 
2807.000000	97.182348 
2806.000000	97.187717 
2805.000000	97.193285 
2804.000000	97.198277 
2803.000000	97.202031 
2802.000000	97.204221 
2801.000000	97.205649 
2800.000000	97.208017 
2799.000000	97.212051 
2798.000000	97.216230 
2797.000000	97.218286 
2796.000000	97.217683 
2795.000000	97.215885 
2794.000000	97.214482 
2793.000000	97.213846 
2792.000000	97.213728 
2791.000000	97.214040 
2790.000000	97.214503 
2789.000000	97.214315 
2788.000000	97.212959 
2787.000000	97.211036 
2786.000000	97.209719 
2785.000000	97.209463 
2784.000000	97.209687 
2783.000000	97.209706 
2782.000000	97.209627 
2781.000000	97.210290 
2780.000000	97.212549 
2779.000000	97.216547 
2778.000000	97.221430 
2777.000000	97.225768 
2776.000000	97.228599 
2775.000000	97.230172 
2774.000000	97.231541 
2773.000000	97.233355 
2772.000000	97.235215 
2771.000000	97.236418 
2770.000000	97.237128 
2769.000000	97.238386 
2768.000000	97.240806 
2767.000000	97.243627 
2766.000000	97.245477 
2765.000000	97.245977 
2764.000000	97.246111 
2763.000000	97.246867 
2762.000000	97.247917 
2761.000000	97.248120 
2760.000000	97.247156 
2759.000000	97.246084 
2758.000000	97.246060 
2757.000000	97.246813 
2756.000000	97.246900 
2755.000000	97.245459 
2754.000000	97.243255 
2753.000000	97.241870 
2752.000000	97.242079 
2751.000000	97.243479 
2750.000000	97.245452 
2749.000000	97.247820 
2748.000000	97.250302 
2747.000000	97.251940 
2746.000000	97.251835 
2745.000000	97.250313 
2744.000000	97.248876 
2743.000000	97.248707 
2742.000000	97.249675 
2741.000000	97.250917 
2740.000000	97.251889 
2739.000000	97.252487 
2738.000000	97.252586 
2737.000000	97.252074 
2736.000000	97.251262 
2735.000000	97.250795 
2734.000000	97.250992 
2733.000000	97.251537 
2732.000000	97.251905 
2731.000000	97.251938 
2730.000000	97.251933 
2729.000000	97.252287 
2728.000000	97.253090 
2727.000000	97.253966 
2726.000000	97.254350 
2725.000000	97.254068 
2724.000000	97.253607 
2723.000000	97.253615 
2722.000000	97.254179 
2721.000000	97.254848 
2720.000000	97.255377 
2719.000000	97.256118 
2718.000000	97.257482 
2717.000000	97.259277 
2716.000000	97.260866 
2715.000000	97.261946 
2714.000000	97.262853 
2713.000000	97.264017 
2712.000000	97.265352 
2711.000000	97.266394 
2710.000000	97.266879 
2709.000000	97.266964 
2708.000000	97.266926 
2707.000000	97.266922 
2706.000000	97.267059 
2705.000000	97.267414 
2704.000000	97.267863 
2703.000000	97.268062 
2702.000000	97.267826 
2701.000000	97.267473 
2700.000000	97.267642 
2699.000000	97.268653 
2698.000000	97.270161 
2697.000000	97.271342 
2696.000000	97.271597 
2695.000000	97.270977 
2694.000000	97.270060 
2693.000000	97.269475 
2692.000000	97.269413 
2691.000000	97.269674 
2690.000000	97.269987 
2689.000000	97.270221 
2688.000000	97.270320 
2687.000000	97.270218 
2686.000000	97.269946 
2685.000000	97.269708 
2684.000000	97.269721 
2683.000000	97.269956 
2682.000000	97.270156 
2681.000000	97.270122 
2680.000000	97.269904 
2679.000000	97.269716 
2678.000000	97.269740 
2677.000000	97.269992 
2676.000000	97.270267 
2675.000000	97.270193 
2674.000000	97.269483 
2673.000000	97.268218 
2672.000000	97.266825 
2671.000000	97.265684 
2670.000000	97.264841 
2669.000000	97.264145 
2668.000000	97.263546 
2667.000000	97.263100 
2666.000000	97.262716 
2665.000000	97.262099 
2664.000000	97.261078 
2663.000000	97.259916 
2662.000000	97.259124 
2661.000000	97.258875 
2660.000000	97.258743 
2659.000000	97.258126 
2658.000000	97.256865 
2657.000000	97.255326 
2656.000000	97.253968 
2655.000000	97.252896 
2654.000000	97.251927 
2653.000000	97.250916 
2652.000000	97.249906 
2651.000000	97.249086 
2650.000000	97.248670 
2649.000000	97.248730 
2648.000000	97.249071 
2647.000000	97.249266 
2646.000000	97.248933 
2645.000000	97.247997 
2644.000000	97.246693 
2643.000000	97.245429 
2642.000000	97.244527 
2641.000000	97.244034 
2640.000000	97.243730 
2639.000000	97.243324 
2638.000000	97.242749 
2637.000000	97.242195 
2636.000000	97.241866 
2635.000000	97.241780 
2634.000000	97.241814 
2633.000000	97.241830 
2632.000000	97.241691 
2631.000000	97.241261 
2630.000000	97.240520 
2629.000000	97.239666 
2628.000000	97.238995 
2627.000000	97.238628 
2626.000000	97.238488 
2625.000000	97.238514 
2624.000000	97.238755 
2623.000000	97.239210 
2622.000000	97.239717 
2621.000000	97.240038 
2620.000000	97.239962 
2619.000000	97.239355 
2618.000000	97.238309 
2617.000000	97.237306 
2616.000000	97.236939 
2615.000000	97.237370 
2614.000000	97.238198 
2613.000000	97.238926 
2612.000000	97.239471 
2611.000000	97.240046 
2610.000000	97.240759 
2609.000000	97.241477 
2608.000000	97.241943 
2607.000000	97.241945 
2606.000000	97.241517 
2605.000000	97.241028 
2604.000000	97.240869 
2603.000000	97.241004 
2602.000000	97.241106 
2601.000000	97.241133 
2600.000000	97.241347 
2599.000000	97.241681 
2598.000000	97.241622 
2597.000000	97.240974 
2596.000000	97.240224 
2595.000000	97.239814 
2594.000000	97.239485 
2593.000000	97.238888 
2592.000000	97.238481 
2591.000000	97.239075 
2590.000000	97.240703 
2589.000000	97.242543 
2588.000000	97.243888 
2587.000000	97.244770 
2586.000000	97.245531 
2585.000000	97.246296 
2584.000000	97.246941 
2583.000000	97.247269 
2582.000000	97.247163 
2581.000000	97.246790 
2580.000000	97.246676 
2579.000000	97.247338 
2578.000000	97.248796 
2577.000000	97.250470 
2576.000000	97.251572 
2575.000000	97.251608 
2574.000000	97.250597 
2573.000000	97.249043 
2572.000000	97.247652 
2571.000000	97.246840 
2570.000000	97.246619 
2569.000000	97.246928 
2568.000000	97.247832 
2567.000000	97.249240 
2566.000000	97.250656 
2565.000000	97.251531 
2564.000000	97.251775 
2563.000000	97.251682 
2562.000000	97.251473 
2561.000000	97.251257 
2560.000000	97.251351 
2559.000000	97.252202 
2558.000000	97.253797 
2557.000000	97.255461 
2556.000000	97.256520 
2555.000000	97.256964 
2554.000000	97.257187 
2553.000000	97.257249 
2552.000000	97.256807 
2551.000000	97.255882 
2550.000000	97.255204 
2549.000000	97.255436 
2548.000000	97.256263 
2547.000000	97.256670 
2546.000000	97.256199 
2545.000000	97.255509 
2544.000000	97.255401 
2543.000000	97.255718 
2542.000000	97.255740 
2541.000000	97.255471 
2540.000000	97.255792 
2539.000000	97.257190 
2538.000000	97.259023 
2537.000000	97.260343 
2536.000000	97.261115 
2535.000000	97.261974 
2534.000000	97.263006 
2533.000000	97.263442 
2532.000000	97.262724 
2531.000000	97.261233 
2530.000000	97.259800 
2529.000000	97.258830 
2528.000000	97.258191 
2527.000000	97.257746 
2526.000000	97.257656 
2525.000000	97.258139 
2524.000000	97.259153 
2523.000000	97.260386 
2522.000000	97.261462 
2521.000000	97.262127 
2520.000000	97.262350 
2519.000000	97.262333 
2518.000000	97.262376 
2517.000000	97.262581 
2516.000000	97.262700 
2515.000000	97.262449 
2514.000000	97.262007 
2513.000000	97.262003 
2512.000000	97.262846 
2511.000000	97.264324 
2510.000000	97.265904 
2509.000000	97.267245 
2508.000000	97.268220 
2507.000000	97.268636 
2506.000000	97.268387 
2505.000000	97.267883 
2504.000000	97.267912 
2503.000000	97.268815 
2502.000000	97.270152 
2501.000000	97.271228 
2500.000000	97.271860 
2499.000000	97.272352 
2498.000000	97.272910 
2497.000000	97.273419 
2496.000000	97.273775 
2495.000000	97.274110 
2494.000000	97.274567 
2493.000000	97.275079 
2492.000000	97.275549 
2491.000000	97.276134 
2490.000000	97.277152 
2489.000000	97.278644 
2488.000000	97.280114 
2487.000000	97.280898 
2486.000000	97.280808 
2485.000000	97.280337 
2484.000000	97.280178 
2483.000000	97.280636 
2482.000000	97.281637 
2481.000000	97.283035 
2480.000000	97.284669 
2479.000000	97.286245 
2478.000000	97.287540 
2477.000000	97.288594 
2476.000000	97.289355 
2475.000000	97.289359 
2474.000000	97.288302 
2473.000000	97.286753 
2472.000000	97.285618 
2471.000000	97.284907 
2470.000000	97.283909 
2469.000000	97.282679 
2468.000000	97.282352 
2467.000000	97.283481 
2466.000000	97.284888 
2465.000000	97.284879 
2464.000000	97.283256 
2463.000000	97.281551 
2462.000000	97.281480 
2461.000000	97.283610 
2460.000000	97.287161 
2459.000000	97.290506 
2458.000000	97.292031 
2457.000000	97.290933 
2456.000000	97.287496 
2455.000000	97.282817 
2454.000000	97.278355 
2453.000000	97.275375 
2452.000000	97.274276 
2451.000000	97.274354 
2450.000000	97.274593 
2449.000000	97.274694 
2448.000000	97.274916 
2447.000000	97.275200 
2446.000000	97.275245 
2445.000000	97.275310 
2444.000000	97.275985 
2443.000000	97.277160 
2442.000000	97.278175 
2441.000000	97.279040 
2440.000000	97.280548 
2439.000000	97.283120 
2438.000000	97.286523 
2437.000000	97.290720 
2436.000000	97.295751 
2435.000000	97.300532 
2434.000000	97.303089 
2433.000000	97.302547 
2432.000000	97.300020 
2431.000000	97.297283 
2430.000000	97.295331 
2429.000000	97.294524 
2428.000000	97.294895 
2427.000000	97.295605 
2426.000000	97.295120 
2425.000000	97.292811 
2424.000000	97.289855 
2423.000000	97.288054 
2422.000000	97.288374 
2421.000000	97.290905 
2420.000000	97.295305 
2419.000000	97.300502 
2418.000000	97.304794 
2417.000000	97.307401 
2416.000000	97.309147 
2415.000000	97.311044 
2414.000000	97.312830 
2413.000000	97.313803 
2412.000000	97.314311 
2411.000000	97.315029 
2410.000000	97.315597 
2409.000000	97.315452 
2408.000000	97.315285 
2407.000000	97.316207 
2406.000000	97.317874 
2405.000000	97.318777 
2404.000000	97.318034 
2403.000000	97.315919 
2402.000000	97.313309 
2401.000000	97.311671 
2400.000000	97.312804 
2399.000000	97.317213 
2398.000000	97.323118 
2397.000000	97.328295 
2396.000000	97.332314 
2395.000000	97.335749 
2394.000000	97.338090 
2393.000000	97.338288 
2392.000000	97.337014 
2391.000000	97.336505 
2390.000000	97.337708 
2389.000000	97.339106 
2388.000000	97.338639 
2387.000000	97.335609 
2386.000000	97.330627 
2385.000000	97.325031 
2384.000000	97.320782 
2383.000000	97.319866 
2382.000000	97.323368 
2381.000000	97.331686 
2380.000000	97.345376 
2379.000000	97.364201 
2378.000000	97.384646 
2377.000000	97.400128 
2376.000000	97.405357 
2375.000000	97.400160 
2374.000000	97.388471 
2373.000000	97.374252 
2372.000000	97.360015 
2371.000000	97.348290 
2370.000000	97.341590 
2369.000000	97.339528 
2368.000000	97.337757 
2367.000000	97.331765 
2366.000000	97.322425 
2365.000000	97.316467 
2364.000000	97.318665 
2363.000000	97.324752 
2362.000000	97.327865 
2361.000000	97.326532 
2360.000000	97.322459 
2359.000000	97.317108 
2358.000000	97.310259 
2357.000000	97.304683 
2356.000000	97.304179 
2355.000000	97.306676 
2354.000000	97.308599 
2353.000000	97.308542 
2352.000000	97.311502 
2351.000000	97.318230 
2350.000000	97.320625 
2349.000000	97.312546 
2348.000000	97.294943 
2347.000000	97.277387 
2346.000000	97.265520 
2345.000000	97.258851 
2344.000000	97.255920 
2343.000000	97.253452 
2342.000000	97.254594 
2341.000000	97.260809 
2340.000000	97.270880 
2339.000000	97.278563 
2338.000000	97.278867 
2337.000000	97.273259 
2336.000000	97.266572 
2335.000000	97.262074 
2334.000000	97.257423 
2333.000000	97.249507 
2332.000000	97.238084 
2331.000000	97.227620 
2330.000000	97.217241 
2329.000000	97.206918 
2328.000000	97.190764 
2327.000000	97.172035 
2326.000000	97.152836 
2325.000000	97.138774 
2324.000000	97.133811 
2323.000000	97.138273 
2322.000000	97.148430 
2321.000000	97.155501 
2320.000000	97.156625 
2319.000000	97.155799 
2318.000000	97.157463 
2317.000000	97.161767 
2316.000000	97.164318 
2315.000000	97.165066 
2314.000000	97.163149 
2313.000000	97.159953 
2312.000000	97.153451 
2311.000000	97.146758 
2310.000000	97.140817 
2309.000000	97.137886 
2308.000000	97.136607 
2307.000000	97.138536 
2306.000000	97.142228 
2305.000000	97.145149 
2304.000000	97.143728 
2303.000000	97.140342 
2302.000000	97.139361 
2301.000000	97.143824 
2300.000000	97.150364 
2299.000000	97.154827 
2298.000000	97.153768 
2297.000000	97.148371 
2296.000000	97.141015 
2295.000000	97.136139 
2294.000000	97.135561 
2293.000000	97.138517 
2292.000000	97.141385 
2291.000000	97.142169 
2290.000000	97.141635 
2289.000000	97.142080 
2288.000000	97.144447 
2287.000000	97.147817 
2286.000000	97.151091 
2285.000000	97.154119 
2284.000000	97.157790 
2283.000000	97.162464 
2282.000000	97.167401 
2281.000000	97.170958 
2280.000000	97.172101 
2279.000000	97.170868 
2278.000000	97.168444 
2277.000000	97.166597 
2276.000000	97.166808 
2275.000000	97.169359 
2274.000000	97.173125 
2273.000000	97.176887 
2272.000000	97.180396 
2271.000000	97.183936 
2270.000000	97.186955 
2269.000000	97.188584 
2268.000000	97.189254 
2267.000000	97.190468 
2266.000000	97.192402 
2265.000000	97.193347 
2264.000000	97.191986 
2263.000000	97.189062 
2262.000000	97.186048 
2261.000000	97.183517 
2260.000000	97.181615 
2259.000000	97.180820 
2258.000000	97.181452 
2257.000000	97.182952 
2256.000000	97.184878 
2255.000000	97.187530 
2254.000000	97.190854 
2253.000000	97.193416 
2252.000000	97.193562 
2251.000000	97.191120 
2250.000000	97.187054 
2249.000000	97.182462 
2248.000000	97.178514 
2247.000000	97.176466 
2246.000000	97.176597 
2245.000000	97.177581 
2244.000000	97.177506 
2243.000000	97.175777 
2242.000000	97.173289 
2241.000000	97.171196 
2240.000000	97.169891 
2239.000000	97.169140 
2238.000000	97.168565 
2237.000000	97.167827 
2236.000000	97.166756 
2235.000000	97.165474 
2234.000000	97.164224 
2233.000000	97.163058 
2232.000000	97.161866 
2231.000000	97.160604 
2230.000000	97.159253 
2229.000000	97.157671 
2228.000000	97.155780 
2227.000000	97.153773 
2226.000000	97.151932 
2225.000000	97.150311 
2224.000000	97.148745 
2223.000000	97.147066 
2222.000000	97.145305 
2221.000000	97.143625 
2220.000000	97.142065 
2219.000000	97.140484 
2218.000000	97.138768 
2217.000000	97.137009 
2216.000000	97.135404 
2215.000000	97.134003 
2214.000000	97.132671 
2213.000000	97.131245 
2212.000000	97.129707 
2211.000000	97.128170 
2210.000000	97.126752 
2209.000000	97.125462 
2208.000000	97.124151 
2207.000000	97.122534 
2206.000000	97.120537 
2205.000000	97.118796 
2204.000000	97.118422 
2203.000000	97.119776 
2202.000000	97.121905 
2201.000000	97.123708 
2200.000000	97.123911 
2199.000000	97.120912 
2198.000000	97.114504 
2197.000000	97.107125 
2196.000000	97.101857 
2195.000000	97.099215 
2194.000000	97.097372 
2193.000000	97.095599 
2192.000000	97.095438 
2191.000000	97.097478 
2190.000000	97.099185 
2189.000000	97.097929 
2188.000000	97.094761 
2187.000000	97.092502 
2186.000000	97.090869 
2185.000000	97.086765 
2184.000000	97.080184 
2183.000000	97.076751 
2182.000000	97.081854 
2181.000000	97.093715 
2180.000000	97.104442 
2179.000000	97.108126 
2178.000000	97.106102 
2177.000000	97.104230 
2176.000000	97.106421 
2175.000000	97.111197 
2174.000000	97.114098 
2173.000000	97.112801 
2172.000000	97.109350 
2171.000000	97.107072 
2170.000000	97.106033 
2169.000000	97.102914 
2168.000000	97.095788 
2167.000000	97.087466 
2166.000000	97.082325 
2165.000000	97.080252 
2164.000000	97.076084 
2163.000000	97.066749 
2162.000000	97.058150 
2161.000000	97.062414 
2160.000000	97.087281 
2159.000000	97.128512 
2158.000000	97.171557 
2157.000000	97.202631 
2156.000000	97.217512 
2155.000000	97.219737 
2154.000000	97.215594 
2153.000000	97.211380 
2152.000000	97.210983 
2151.000000	97.213026 
2150.000000	97.212012 
2149.000000	97.205037 
2148.000000	97.196693 
2147.000000	97.194547 
2146.000000	97.200398 
2145.000000	97.209340 
2144.000000	97.217581 
2143.000000	97.227262 
2142.000000	97.241436 
2141.000000	97.257591 
2140.000000	97.269628 
2139.000000	97.275309 
2138.000000	97.278843 
2137.000000	97.285994 
2136.000000	97.297870 
2135.000000	97.309512 
2134.000000	97.314088 
2133.000000	97.309094 
2132.000000	97.299062 
2131.000000	97.291555 
2130.000000	97.290162 
2129.000000	97.292247 
2128.000000	97.293355 
2127.000000	97.292183 
2126.000000	97.290524 
2125.000000	97.290061 
2124.000000	97.290817 
2123.000000	97.291873 
2122.000000	97.291912 
2121.000000	97.289332 
2120.000000	97.283361 
2119.000000	97.275205 
2118.000000	97.267297 
2117.000000	97.261233 
2116.000000	97.256498 
2115.000000	97.251238 
2114.000000	97.244033 
2113.000000	97.235312 
2112.000000	97.227601 
2111.000000	97.223907 
2110.000000	97.225283 
2109.000000	97.230116 
2108.000000	97.235881 
2107.000000	97.240880 
2106.000000	97.244237 
2105.000000	97.245945 
2104.000000	97.247450 
2103.000000	97.250180 
2102.000000	97.252486 
2101.000000	97.250204 
2100.000000	97.242202 
2099.000000	97.233881 
2098.000000	97.232599 
2097.000000	97.240086 
2096.000000	97.251109 
2095.000000	97.259135 
2094.000000	97.261748 
2093.000000	97.260263 
2092.000000	97.256705 
2091.000000	97.252408 
2090.000000	97.248434 
2089.000000	97.245476 
2088.000000	97.243089 
2087.000000	97.239898 
2086.000000	97.235055 
2085.000000	97.229467 
2084.000000	97.225284 
2083.000000	97.223835 
2082.000000	97.224260 
2081.000000	97.224625 
2080.000000	97.224272 
2079.000000	97.224076 
2078.000000	97.224185 
2077.000000	97.222996 
2076.000000	97.219309 
2075.000000	97.214395 
2074.000000	97.210380 
2073.000000	97.207202 
2072.000000	97.203150 
2071.000000	97.197874 
2070.000000	97.193081 
2069.000000	97.190356 
2068.000000	97.189782 
2067.000000	97.190696 
2066.000000	97.192270 
2065.000000	97.192909 
2064.000000	97.190794 
2063.000000	97.186105 
2062.000000	97.181718 
2061.000000	97.180559 
2060.000000	97.182602 
2059.000000	97.185499 
2058.000000	97.187247 
2057.000000	97.187454 
2056.000000	97.186109 
2055.000000	97.182408 
2054.000000	97.175811 
2053.000000	97.167738 
2052.000000	97.161247 
2051.000000	97.158274 
2050.000000	97.157937 
2049.000000	97.157764 
2048.000000	97.156330 
2047.000000	97.154347 
2046.000000	97.153140 
2045.000000	97.153031 
2044.000000	97.153546 
2043.000000	97.154438 
2042.000000	97.155853 
2041.000000	97.157807 
2040.000000	97.160183 
2039.000000	97.163154 
2038.000000	97.166810 
2037.000000	97.170257 
2036.000000	97.171902 
2035.000000	97.171091 
2034.000000	97.169240 
2033.000000	97.168936 
2032.000000	97.171448 
2031.000000	97.175354 
2030.000000	97.177689 
2029.000000	97.176772 
2028.000000	97.173539 
2027.000000	97.170234 
2026.000000	97.168087 
2025.000000	97.166923 
2024.000000	97.166697 
2023.000000	97.168293 
2022.000000	97.172391 
2021.000000	97.177836 
2020.000000	97.181724 
2019.000000	97.181697 
2018.000000	97.177630 
2017.000000	97.171767 
2016.000000	97.167155 
2015.000000	97.165274 
2014.000000	97.165132 
2013.000000	97.164313 
2012.000000	97.161707 
2011.000000	97.159327 
2010.000000	97.160496 
2009.000000	97.166234 
2008.000000	97.173943 
2007.000000	97.179854 
2006.000000	97.182285 
2005.000000	97.181756 
2004.000000	97.179529 
2003.000000	97.176983 
2002.000000	97.175622 
2001.000000	97.175982 
2000.000000	97.176415 
1999.000000	97.173981 
1998.000000	97.167004 
1997.000000	97.157046 
1996.000000	97.148308 
1995.000000	97.144450 
1994.000000	97.145751 
1993.000000	97.148861 
1992.000000	97.149789 
1991.000000	97.148101 
1990.000000	97.147190 
1989.000000	97.149809 
1988.000000	97.154315 
1987.000000	97.156079 
1986.000000	97.152380 
1985.000000	97.145001 
1984.000000	97.137791 
1983.000000	97.132562 
1982.000000	97.128458 
1981.000000	97.124818 
1980.000000	97.123401 
1979.000000	97.126585 
1978.000000	97.133754 
1977.000000	97.141216 
1976.000000	97.146059 
1975.000000	97.149187 
1974.000000	97.153750 
1973.000000	97.161571 
1972.000000	97.171481 
1971.000000	97.180358 
1970.000000	97.185021 
1969.000000	97.183625 
1968.000000	97.176642 
1967.000000	97.167533 
1966.000000	97.161731 
1965.000000	97.162931 
1964.000000	97.170635 
1963.000000	97.181251 
1962.000000	97.191428 
1961.000000	97.199936 
1960.000000	97.206098 
1959.000000	97.208290 
1958.000000	97.205881 
1957.000000	97.201632 
1956.000000	97.199684 
1955.000000	97.201064 
1954.000000	97.203204 
1953.000000	97.203895 
1952.000000	97.203367 
1951.000000	97.202381 
1950.000000	97.201017 
1949.000000	97.200148 
1948.000000	97.201971 
1947.000000	97.207339 
1946.000000	97.213685 
1945.000000	97.217265 
1944.000000	97.216998 
1943.000000	97.214960 
1942.000000	97.213742 
1941.000000	97.213981 
1940.000000	97.214636 
1939.000000	97.214586 
1938.000000	97.213802 
1937.000000	97.213760 
1936.000000	97.216141 
1935.000000	97.220542 
1934.000000	97.224328 
1933.000000	97.225899 
1932.000000	97.226822 
1931.000000	97.229377 
1930.000000	97.233210 
1929.000000	97.235977 
1928.000000	97.237416 
1927.000000	97.239707 
1926.000000	97.243589 
1925.000000	97.246851 
1924.000000	97.247409 
1923.000000	97.246091 
1922.000000	97.244555 
1921.000000	97.242331 
1920.000000	97.238484 
1919.000000	97.234044 
1918.000000	97.231038 
1917.000000	97.229829 
1916.000000	97.229327 
1915.000000	97.229477 
1914.000000	97.230699 
1913.000000	97.232188 
1912.000000	97.232547 
1911.000000	97.231634 
1910.000000	97.230428 
1909.000000	97.229450 
1908.000000	97.228944 
1907.000000	97.229229 
1906.000000	97.229794 
1905.000000	97.228858 
1904.000000	97.225281 
1903.000000	97.221002 
1902.000000	97.219118 
1901.000000	97.219983 
1900.000000	97.221504 
1899.000000	97.222198 
1898.000000	97.222325 
1897.000000	97.222297 
1896.000000	97.221433 
1895.000000	97.219104 
1894.000000	97.215714 
1893.000000	97.212102 
1892.000000	97.209013 
1891.000000	97.207200 
1890.000000	97.207172 
1889.000000	97.208521 
1888.000000	97.210225 
1887.000000	97.211806 
1886.000000	97.213219 
1885.000000	97.213932 
1884.000000	97.213244 
1883.000000	97.211469 
1882.000000	97.209976 
1881.000000	97.209774 
1880.000000	97.210685 
1879.000000	97.211691 
1878.000000	97.211923 
1877.000000	97.211671 
1876.000000	97.212156 
1875.000000	97.214175 
1874.000000	97.217263 
1873.000000	97.220086 
1872.000000	97.221746 
1871.000000	97.222350 
1870.000000	97.222442 
1869.000000	97.222583 
1868.000000	97.223431 
1867.000000	97.225576 
1866.000000	97.228727 
1865.000000	97.231466 
1864.000000	97.232633 
1863.000000	97.232641 
1862.000000	97.233048 
1861.000000	97.234801 
1860.000000	97.237592 
1859.000000	97.240823 
1858.000000	97.244250 
1857.000000	97.247576 
1856.000000	97.250477 
1855.000000	97.253034 
1854.000000	97.255439 
1853.000000	97.257435 
1852.000000	97.259079 
1851.000000	97.261330 
1850.000000	97.264895 
1849.000000	97.269260 
1848.000000	97.273190 
1847.000000	97.276262 
1846.000000	97.279034 
1845.000000	97.281949 
1844.000000	97.284770 
1843.000000	97.287128 
1842.000000	97.289081 
1841.000000	97.290935 
1840.000000	97.293225 
1839.000000	97.296403 
1838.000000	97.300129 
1837.000000	97.303038 
1836.000000	97.304131 
1835.000000	97.304287 
1834.000000	97.305413 
1833.000000	97.308178 
1832.000000	97.311761 
1831.000000	97.314846 
1830.000000	97.316779 
1829.000000	97.318137 
1828.000000	97.319731 
1827.000000	97.321777 
1826.000000	97.323891 
1825.000000	97.325514 
1824.000000	97.326241 
1823.000000	97.326176 
1822.000000	97.326023 
1821.000000	97.326187 
1820.000000	97.326397 
1819.000000	97.326612 
1818.000000	97.328020 
1817.000000	97.331254 
1816.000000	97.334398 
1815.000000	97.335815 
1814.000000	97.336537 
1813.000000	97.338609 
1812.000000	97.341636 
1811.000000	97.342814 
1810.000000	97.341653 
1809.000000	97.340260 
1808.000000	97.339625 
1807.000000	97.339663 
1806.000000	97.341034 
1805.000000	97.343839 
1804.000000	97.345581 
1803.000000	97.343676 
1802.000000	97.338523 
1801.000000	97.333665 
1800.000000	97.331433 
1799.000000	97.330795 
1798.000000	97.330777 
1797.000000	97.330707 
1796.000000	97.329437 
1795.000000	97.327321 
1794.000000	97.326348 
1793.000000	97.327493 
1792.000000	97.328356 
1791.000000	97.326853 
1790.000000	97.325972 
1789.000000	97.329272 
1788.000000	97.336194 
1787.000000	97.343261 
1786.000000	97.347920 
1785.000000	97.350180 
1784.000000	97.350996 
1783.000000	97.351771 
1782.000000	97.352939 
1781.000000	97.354335 
1780.000000	97.356309 
1779.000000	97.359157 
1778.000000	97.363306 
1777.000000	97.367909 
1776.000000	97.371429 
1775.000000	97.372981 
1774.000000	97.372503 
1773.000000	97.371501 
1772.000000	97.372103 
1771.000000	97.373785 
1770.000000	97.375145 
1769.000000	97.376358 
1768.000000	97.378202 
1767.000000	97.381009 
1766.000000	97.384354 
1765.000000	97.388037 
1764.000000	97.391966 
1763.000000	97.395415 
1762.000000	97.397716 
1761.000000	97.399799 
1760.000000	97.402566 
1759.000000	97.405297 
1758.000000	97.406741 
1757.000000	97.406658 
1756.000000	97.407095 
1755.000000	97.409100 
1754.000000	97.411052 
1753.000000	97.411084 
1752.000000	97.409442 
1751.000000	97.408594 
1750.000000	97.410360 
1749.000000	97.413960 
1748.000000	97.417542 
1747.000000	97.420257 
1746.000000	97.421664 
1745.000000	97.422146 
1744.000000	97.422842 
1743.000000	97.424038 
1742.000000	97.425185 
1741.000000	97.426438 
1740.000000	97.428400 
1739.000000	97.430821 
1738.000000	97.432767 
1737.000000	97.433942 
1736.000000	97.434224 
1735.000000	97.433127 
1734.000000	97.431408 
1733.000000	97.430136 
1732.000000	97.429887 
1731.000000	97.431217 
1730.000000	97.433647 
1729.000000	97.435264 
1728.000000	97.435226 
1727.000000	97.434493 
1726.000000	97.433946 
1725.000000	97.434030 
1724.000000	97.434518 
1723.000000	97.434802 
1722.000000	97.434951 
1721.000000	97.435081 
1720.000000	97.434944 
1719.000000	97.433887 
1718.000000	97.431802 
1717.000000	97.429150 
1716.000000	97.424987 
1715.000000	97.419879 
1714.000000	97.416495 
1713.000000	97.415369 
1712.000000	97.414496 
1711.000000	97.413057 
1710.000000	97.411799 
1709.000000	97.410741 
1708.000000	97.409182 
1707.000000	97.407296 
1706.000000	97.406016 
1705.000000	97.404815 
1704.000000	97.401543 
1703.000000	97.395767 
1702.000000	97.389012 
1701.000000	97.384102 
1700.000000	97.382316 
1699.000000	97.380791 
1698.000000	97.378764 
1697.000000	97.377155 
1696.000000	97.375472 
1695.000000	97.373186 
1694.000000	97.370508 
1693.000000	97.367877 
1692.000000	97.365262 
1691.000000	97.362336 
1690.000000	97.359033 
1689.000000	97.355548 
1688.000000	97.352221 
1687.000000	97.349119 
1686.000000	97.346146 
1685.000000	97.343332 
1684.000000	97.340294 
1683.000000	97.336778 
1682.000000	97.333162 
1681.000000	97.329648 
1680.000000	97.326418 
1679.000000	97.323485 
1678.000000	97.320606 
1677.000000	97.317555 
1676.000000	97.314431 
1675.000000	97.311518 
1674.000000	97.308524 
1673.000000	97.305120 
1672.000000	97.301619 
1671.000000	97.298576 
1670.000000	97.296077 
1669.000000	97.293463 
1668.000000	97.290661 
1667.000000	97.288191 
1666.000000	97.285878 
1665.000000	97.283450 
1664.000000	97.281248 
1663.000000	97.279892 
1662.000000	97.278556 
1661.000000	97.275410 
1660.000000	97.271177 
1659.000000	97.268218 
1658.000000	97.266958 
1657.000000	97.265946 
1656.000000	97.263892 
1655.000000	97.260223 
1654.000000	97.255431 
1653.000000	97.253426 
1652.000000	97.251507 
1651.000000	97.247185 
1650.000000	97.241662 
1649.000000	97.237948 
1648.000000	97.236184 
1647.000000	97.235088 
1646.000000	97.233435 
1645.000000	97.230680 
1644.000000	97.226934 
1643.000000	97.223648 
1642.000000	97.222410 
1641.000000	97.222504 
1640.000000	97.222910 
1639.000000	97.222556 
1638.000000	97.221143 
1637.000000	97.219187 
1636.000000	97.218216 
1635.000000	97.219873 
1634.000000	97.222260 
1633.000000	97.222845 
1632.000000	97.220359 
1631.000000	97.216411 
1630.000000	97.213591 
1629.000000	97.213111 
1628.000000	97.214274 
1627.000000	97.216481 
1626.000000	97.218673 
1625.000000	97.219713 
1624.000000	97.220577 
1623.000000	97.223270 
1622.000000	97.226811 
1621.000000	97.227922 
1620.000000	97.227007 
1619.000000	97.226788 
1618.000000	97.228692 
1617.000000	97.231080 
1616.000000	97.232010 
1615.000000	97.232706 
1614.000000	97.234248 
1613.000000	97.235240 
1612.000000	97.234962 
1611.000000	97.235072 
1610.000000	97.236386 
1609.000000	97.238143 
1608.000000	97.241597 
1607.000000	97.248621 
1606.000000	97.256327 
1605.000000	97.260323 
1604.000000	97.262056 
1603.000000	97.265381 
1602.000000	97.270610 
1601.000000	97.275569 
1600.000000	97.280042 
1599.000000	97.285265 
1598.000000	97.290495 
1597.000000	97.294392 
1596.000000	97.297620 
1595.000000	97.301830 
1594.000000	97.306911 
1593.000000	97.311328 
1592.000000	97.314962 
1591.000000	97.318978 
1590.000000	97.323237 
1589.000000	97.326707 
1588.000000	97.330539 
1587.000000	97.336790 
1586.000000	97.344230 
1585.000000	97.348477 
1584.000000	97.349310 
1583.000000	97.351058 
1582.000000	97.355027 
1581.000000	97.358922 
1580.000000	97.362557 
1579.000000	97.368301 
1578.000000	97.376943 
1577.000000	97.387467 
1576.000000	97.397386 
1575.000000	97.402865 
1574.000000	97.402176 
1573.000000	97.398545 
1572.000000	97.397417 
1571.000000	97.401901 
1570.000000	97.408665 
1569.000000	97.409868 
1568.000000	97.406782 
1567.000000	97.405667 
1566.000000	97.406460 
1565.000000	97.405779 
1564.000000	97.404553 
1563.000000	97.403459 
1562.000000	97.401562 
1561.000000	97.393267 
1560.000000	97.387450 
1559.000000	97.390748 
1558.000000	97.392181 
1557.000000	97.390164 
1556.000000	97.390587 
1555.000000	97.394258 
1554.000000	97.397246 
1553.000000	97.396904 
1552.000000	97.394139 
1551.000000	97.387333 
1550.000000	97.375923 
1549.000000	97.364232 
1548.000000	97.357320 
1547.000000	97.354751 
1546.000000	97.350680 
1545.000000	97.341130 
1544.000000	97.329552 
1543.000000	97.321914 
1542.000000	97.320922 
1541.000000	97.324235 
1540.000000	97.321507 
1539.000000	97.308590 
1538.000000	97.291073 
1537.000000	97.273207 
1536.000000	97.257132 
1535.000000	97.245482 
1534.000000	97.238982 
1533.000000	97.234806 
1532.000000	97.228647 
1531.000000	97.219234 
1530.000000	97.208696 
1529.000000	97.198682 
1528.000000	97.188310 
1527.000000	97.176876 
1526.000000	97.165462 
1525.000000	97.155906 
1524.000000	97.148819 
1523.000000	97.142671 
1522.000000	97.134162 
1521.000000	97.120779 
1520.000000	97.104226 
1519.000000	97.088284 
1518.000000	97.074203 
1517.000000	97.061101 
1516.000000	97.048525 
1515.000000	97.037779 
1514.000000	97.029488 
1513.000000	97.022437 
1512.000000	97.014205 
1511.000000	97.002748 
1510.000000	96.988926 
1509.000000	96.974584 
1508.000000	96.961396 
1507.000000	96.949238 
1506.000000	96.938541 
1505.000000	96.928192 
1504.000000	96.916717 
1503.000000	96.904205 
1502.000000	96.891229 
1501.000000	96.878351 
1500.000000	96.866621 
1499.000000	96.856245 
1498.000000	96.845927 
1497.000000	96.835047 
1496.000000	96.823689 
1495.000000	96.812083 
1494.000000	96.801385 
1493.000000	96.793085 
1492.000000	96.787017 
1491.000000	96.780388 
1490.000000	96.769957 
1489.000000	96.756466 
1488.000000	96.742150 
1487.000000	96.727542 
1486.000000	96.713495 
1485.000000	96.698953 
1484.000000	96.684238 
1483.000000	96.672377 
1482.000000	96.664059 
1481.000000	96.656639 
1480.000000	96.646695 
1479.000000	96.634156 
1478.000000	96.621090 
1477.000000	96.608793 
1476.000000	96.596108 
1475.000000	96.582137 
1474.000000	96.568502 
1473.000000	96.557924 
1472.000000	96.551140 
1471.000000	96.544589 
1470.000000	96.535658 
1469.000000	96.524657 
1468.000000	96.512042 
1467.000000	96.498398 
1466.000000	96.485952 
1465.000000	96.476600 
1464.000000	96.469867 
1463.000000	96.461662 
1462.000000	96.449993 
1461.000000	96.438316 
1460.000000	96.431707 
1459.000000	96.430176 
1458.000000	96.424954 
1457.000000	96.410293 
1456.000000	96.393996 
1455.000000	96.380817 
1454.000000	96.368165 
1453.000000	96.357727 
1452.000000	96.353395 
1451.000000	96.355528 
1450.000000	96.361021 
1449.000000	96.367046 
1448.000000	96.370729 
1447.000000	96.370683 
1446.000000	96.367911 
1445.000000	96.365639 
1444.000000	96.366951 
1443.000000	96.369390 
1442.000000	96.369541 
1441.000000	96.368186 
1440.000000	96.368694 
1439.000000	96.370119 
1438.000000	96.367723 
1437.000000	96.361224 
1436.000000	96.356948 
1435.000000	96.356766 
1434.000000	96.357945 
1433.000000	96.360244 
1432.000000	96.364056 
1431.000000	96.368052 
1430.000000	96.370770 
1429.000000	96.374305 
1428.000000	96.380694 
1427.000000	96.389744 
1426.000000	96.399918 
1425.000000	96.410482 
1424.000000	96.422795 
1423.000000	96.434204 
1422.000000	96.441371 
1421.000000	96.446627 
1420.000000	96.454876 
1419.000000	96.462011 
1418.000000	96.459663 
1417.000000	96.454118 
1416.000000	96.458107 
1415.000000	96.472952 
1414.000000	96.489662 
1413.000000	96.501171 
1412.000000	96.509602 
1411.000000	96.518863 
1410.000000	96.528271 
1409.000000	96.537529 
1408.000000	96.548531 
1407.000000	96.562354 
1406.000000	96.577541 
1405.000000	96.593289 
1404.000000	96.611694 
1403.000000	96.630684 
1402.000000	96.645530 
1401.000000	96.657287 
1400.000000	96.672014 
1399.000000	96.691930 
1398.000000	96.711782 
1397.000000	96.727622 
1396.000000	96.741985 
1395.000000	96.759322 
1394.000000	96.779166 
1393.000000	96.799151 
1392.000000	96.820800 
1391.000000	96.844836 
1390.000000	96.868228 
1389.000000	96.887199 
1388.000000	96.900441 
1387.000000	96.909842 
1386.000000	96.918766 
1385.000000	96.930341 
1384.000000	96.946538 
1383.000000	96.965964 
1382.000000	96.984987 
1381.000000	97.001485 
1380.000000	97.015484 
1379.000000	97.028287 
1378.000000	97.041581 
1377.000000	97.056473 
1376.000000	97.072264 
1375.000000	97.086769 
1374.000000	97.098599 
1373.000000	97.110014 
1372.000000	97.124162 
1371.000000	97.141557 
1370.000000	97.159703 
1369.000000	97.174995 
1368.000000	97.186991 
1367.000000	97.197729 
1366.000000	97.209227 
1365.000000	97.222636 
1364.000000	97.236439 
1363.000000	97.246589 
1362.000000	97.251687 
1361.000000	97.255983 
1360.000000	97.264581 
1359.000000	97.278478 
1358.000000	97.294898 
1357.000000	97.310731 
1356.000000	97.324696 
1355.000000	97.336412 
1354.000000	97.345549 
1353.000000	97.353487 
1352.000000	97.361596 
1351.000000	97.370415 
1350.000000	97.379260 
1349.000000	97.386012 
1348.000000	97.390397 
1347.000000	97.394801 
1346.000000	97.402231 
1345.000000	97.413533 
1344.000000	97.426647 
1343.000000	97.438360 
1342.000000	97.446275 
1341.000000	97.449246 
1340.000000	97.447471 
1339.000000	97.443228 
1338.000000	97.439963 
1337.000000	97.440130 
1336.000000	97.443756 
1335.000000	97.448617 
1334.000000	97.452378 
1333.000000	97.454750 
1332.000000	97.456928 
1331.000000	97.459940 
1330.000000	97.463760 
1329.000000	97.467865 
1328.000000	97.471621 
1327.000000	97.474569 
1326.000000	97.476003 
1325.000000	97.474981 
1324.000000	97.471955 
1323.000000	97.468291 
1322.000000	97.464868 
1321.000000	97.462103 
1320.000000	97.460580 
1319.000000	97.460483 
1318.000000	97.461108 
1317.000000	97.461910 
1316.000000	97.462812 
1315.000000	97.462956 
1314.000000	97.460866 
1313.000000	97.457288 
1312.000000	97.455693 
1311.000000	97.458287 
1310.000000	97.462975 
1309.000000	97.466398 
1308.000000	97.468078 
1307.000000	97.470166 
1306.000000	97.473638 
1305.000000	97.476848 
1304.000000	97.478232 
1303.000000	97.477567 
1302.000000	97.475212 
1301.000000	97.471907 
1300.000000	97.469358 
1299.000000	97.469131 
1298.000000	97.470659 
1297.000000	97.471554 
1296.000000	97.470154 
1295.000000	97.467299 
1294.000000	97.465334 
1293.000000	97.466073 
1292.000000	97.469405 
1291.000000	97.473173 
1290.000000	97.474895 
1289.000000	97.474029 
1288.000000	97.472023 
1287.000000	97.469989 
1286.000000	97.467518 
1285.000000	97.464655 
1284.000000	97.463427 
1283.000000	97.465402 
1282.000000	97.468815 
1281.000000	97.469968 
1280.000000	97.467486 
1279.000000	97.463808 
1278.000000	97.462539 
1277.000000	97.465287 
1276.000000	97.470603 
1275.000000	97.475099 
1274.000000	97.475858 
1273.000000	97.473000 
1272.000000	97.469784 
1271.000000	97.469163 
1270.000000	97.470592 
1269.000000	97.471235 
1268.000000	97.469726 
1267.000000	97.466973 
1266.000000	97.464035 
1265.000000	97.461630 
1264.000000	97.461146 
1263.000000	97.463489 
1262.000000	97.466904 
1261.000000	97.468074 
1260.000000	97.466409 
1259.000000	97.465347 
1258.000000	97.468064 
1257.000000	97.473327 
1256.000000	97.476648 
1255.000000	97.475180 
1254.000000	97.470844 
1253.000000	97.468157 
1252.000000	97.468821 
1251.000000	97.469358 
1250.000000	97.465050 
1249.000000	97.455629 
1248.000000	97.445576 
1247.000000	97.438689 
1246.000000	97.434345 
1245.000000	97.430014 
1244.000000	97.424837 
1243.000000	97.419038 
1242.000000	97.412022 
1241.000000	97.403353 
1240.000000	97.394118 
1239.000000	97.385112 
1238.000000	97.374881 
1237.000000	97.361670 
1236.000000	97.346192 
1235.000000	97.330376 
1234.000000	97.314402 
1233.000000	97.297144 
1232.000000	97.278581 
1231.000000	97.259418 
1230.000000	97.239129 
1229.000000	97.216575 
1228.000000	97.191497 
1227.000000	97.163119 
1226.000000	97.128459 
1225.000000	97.084843 
1224.000000	97.033586 
1223.000000	96.978456 
1222.000000	96.920683 
1221.000000	96.858265 
1220.000000	96.790418 
1219.000000	96.719775 
1218.000000	96.649122 
1217.000000	96.577983 
1216.000000	96.503122 
1215.000000	96.421058 
1214.000000	96.330575 
1213.000000	96.235048 
1212.000000	96.141560 
1211.000000	96.054372 
1210.000000	95.969521 
1209.000000	95.879359 
1208.000000	95.782230 
1207.000000	95.683947 
1206.000000	95.589601 
1205.000000	95.497948 
1204.000000	95.405001 
1203.000000	95.309404 
1202.000000	95.212778 
1201.000000	95.117559 
1200.000000	95.025703 
1199.000000	94.936992 
1198.000000	94.847877 
1197.000000	94.754667 
1196.000000	94.658157 
1195.000000	94.562537 
1194.000000	94.469830 
1193.000000	94.378101 
1192.000000	94.284921 
1191.000000	94.189242 
1190.000000	94.090024 
1189.000000	93.986557 
1188.000000	93.880398 
1187.000000	93.773915 
1186.000000	93.666996 
1185.000000	93.558023 
1184.000000	93.447084 
1183.000000	93.334708 
1182.000000	93.218865 
1181.000000	93.097459 
1180.000000	92.972503 
1179.000000	92.846979 
1178.000000	92.718741 
1177.000000	92.583109 
1176.000000	92.440526 
1175.000000	92.295571 
1174.000000	92.149060 
1173.000000	91.997923 
1172.000000	91.843050 
1171.000000	91.689815 
1170.000000	91.539980 
1169.000000	91.390684 
1168.000000	91.243148 
1167.000000	91.105313 
1166.000000	90.984535 
1165.000000	90.885482 
1164.000000	90.816697 
1163.000000	90.789893 
1162.000000	90.808044 
1161.000000	90.859313 
1160.000000	90.924367 
1159.000000	90.984067 
1158.000000	91.020315 
1157.000000	91.018936 
1156.000000	90.976429 
1155.000000	90.899870 
1154.000000	90.798665 
1153.000000	90.680213 
1152.000000	90.553008 
1151.000000	90.426271 
1150.000000	90.303813 
1149.000000	90.184123 
1148.000000	90.067851 
1147.000000	89.958173 
1146.000000	89.852421 
1145.000000	89.741707 
1144.000000	89.622109 
1143.000000	89.499400 
1142.000000	89.380000 
1141.000000	89.263981 
1140.000000	89.149460 
1139.000000	89.036467 
1138.000000	88.923461 
1137.000000	88.807011 
1136.000000	88.687870 
1135.000000	88.570806 
1134.000000	88.456197 
1133.000000	88.338902 
1132.000000	88.217480 
1131.000000	88.096749 
1130.000000	87.978842 
1129.000000	87.859804 
1128.000000	87.737843 
1127.000000	87.616692 
1126.000000	87.497505 
1125.000000	87.375470 
1124.000000	87.248210 
1123.000000	87.120269 
1122.000000	86.995796 
1121.000000	86.873739 
1120.000000	86.752951 
1119.000000	86.634446 
1118.000000	86.516180 
1117.000000	86.393895 
1116.000000	86.269579 
1115.000000	86.150931 
1114.000000	86.040334 
1113.000000	85.932733 
1112.000000	85.825749 
1111.000000	85.722244 
1110.000000	85.621460 
1109.000000	85.518305 
1108.000000	85.412660 
1107.000000	85.308912 
1106.000000	85.205652 
1105.000000	85.096628 
1104.000000	84.982499 
1103.000000	84.870750 
1102.000000	84.762828 
1101.000000	84.654078 
1100.000000	84.545821 
1099.000000	84.445694 
1098.000000	84.355464 
1097.000000	84.269329 
1096.000000	84.185135 
1095.000000	84.104207 
1094.000000	84.021261 
1093.000000	83.929339 
1092.000000	83.835452 
1091.000000	83.756015 
1090.000000	83.695003 
1089.000000	83.640963 
1088.000000	83.586526 
1087.000000	83.535454 
1086.000000	83.489071 
1085.000000	83.442368 
1084.000000	83.396534 
1083.000000	83.359636 
1082.000000	83.331562 
1081.000000	83.303170 
1080.000000	83.272963 
1079.000000	83.249139 
1078.000000	83.232051 
1077.000000	83.210025 
1076.000000	83.175910 
1075.000000	83.132876 
1074.000000	83.081238 
1073.000000	83.014768 
1072.000000	82.932560 
1071.000000	82.838863 
1070.000000	82.727967 
1069.000000	82.585052 
1068.000000	82.406482 
1067.000000	82.205736 
1066.000000	81.996316 
1065.000000	81.782738 
1064.000000	81.571021 
1063.000000	81.370757 
1062.000000	81.180792 
1061.000000	80.988527 
1060.000000	80.789412 
1059.000000	80.593356 
1058.000000	80.407836 
1057.000000	80.229330 
1056.000000	80.055106 
1055.000000	79.887869 
1054.000000	79.724524 
1053.000000	79.556101 
1052.000000	79.383889 
1051.000000	79.219789 
1050.000000	79.065814 
1049.000000	78.910895 
1048.000000	78.751689 
1047.000000	78.596596 
1046.000000	78.446360 
1045.000000	78.290677 
1044.000000	78.126403 
1043.000000	77.960950 
1042.000000	77.795807 
1041.000000	77.624635 
1040.000000	77.450192 
1039.000000	77.285203 
1038.000000	77.133518 
1037.000000	76.988077 
1036.000000	76.849532 
1035.000000	76.728183 
1034.000000	76.625269 
1033.000000	76.531387 
1032.000000	76.445375 
1031.000000	76.375011 
1030.000000	76.317216 
1029.000000	76.258544 
1028.000000	76.198198 
1027.000000	76.149642 
1026.000000	76.116185 
1025.000000	76.085733 
1024.000000	76.052753 
1023.000000	76.024359 
1022.000000	76.000972 
1021.000000	75.972227 
1020.000000	75.936068 
1019.000000	75.901641 
1018.000000	75.869932 
1017.000000	75.831916 
1016.000000	75.788888 
1015.000000	75.753801 
1014.000000	75.728979 
1013.000000	75.703110 
1012.000000	75.673424 
1011.000000	75.650045 
1010.000000	75.635213 
1009.000000	75.619548 
1008.000000	75.602500 
1007.000000	75.595561 
1006.000000	75.601676 
1005.000000	75.612150 
1004.000000	75.626626 
1003.000000	75.654485 
1002.000000	75.693281 
1001.000000	75.728119 
1000.000000	75.756782 
999.000000	 75.793603 
998.000000	 75.843843 
997.000000	 75.896114 
996.000000	 75.945046 
995.000000	 76.000138 
994.000000	 76.066444 
993.000000	 76.136962 
992.000000	 76.209298 
991.000000	 76.289863 
990.000000	 76.376852 
989.000000	 76.459239 
988.000000	 76.537450 
987.000000	 76.625263 
986.000000	 76.727254 
985.000000	 76.834795 
984.000000	 76.947934 
983.000000	 77.079387 
982.000000	 77.231304 
981.000000	 77.389115 
980.000000	 77.544385 
979.000000	 77.703877 
978.000000	 77.870435 
977.000000	 78.036132 
976.000000	 78.201217 
975.000000	 78.379569 
974.000000	 78.577168 
973.000000	 78.783208 
972.000000	 78.989625 
971.000000	 79.201953 
970.000000	 79.423523 
969.000000	 79.646025 
968.000000	 79.863575 
967.000000	 80.081161 
966.000000	 80.302397 
965.000000	 80.523036 
964.000000	 80.742123 
963.000000	 80.965589 
962.000000	 81.193680 
961.000000	 81.418135 
960.000000	 81.635805 
959.000000	 81.851737 
958.000000	 82.065659 
957.000000	 82.269403 
956.000000	 82.461197 
955.000000	 82.649229 
954.000000	 82.838106 
953.000000	 83.024508 
952.000000	 83.207924 
951.000000	 83.391612 
950.000000	 83.571152 
949.000000	 83.736642 
948.000000	 83.888479 
947.000000	 84.037013 
946.000000	 84.184779 
945.000000	 84.323614 
944.000000	 84.451501 
943.000000	 84.577310 
942.000000	 84.706047 
941.000000	 84.833829 
940.000000	 84.960503 
939.000000	 85.092345 
938.000000	 85.228627 
937.000000	 85.359957 
936.000000	 85.483999 
935.000000	 85.609335 
934.000000	 85.740146 
933.000000	 85.870287 
932.000000	 85.996109 
931.000000	 86.122029 
930.000000	 86.249769 
929.000000	 86.374703 
928.000000	 86.496522 
927.000000	 86.621310 
926.000000	 86.749574 
925.000000	 86.873627 
924.000000	 86.989460 
923.000000	 87.100058 
922.000000	 87.205590 
921.000000	 87.302490 
920.000000	 87.394020 
919.000000	 87.489253 
918.000000	 87.589112 
917.000000	 87.685070 
916.000000	 87.774061 
915.000000	 87.863600 
914.000000	 87.960226 
913.000000	 88.063832 
912.000000	 88.174916 
911.000000	 88.296518 
910.000000	 88.427738 
909.000000	 88.565980 
908.000000	 88.715289 
907.000000	 88.881212 
906.000000	 89.058935 
905.000000	 89.238820 
904.000000	 89.421695 
903.000000	 89.614825 
902.000000	 89.814753 
901.000000	 90.009314 
900.000000	 90.196252 
899.000000	 90.384832 
898.000000	 90.578604 
897.000000	 90.770582 
896.000000	 90.955816 
895.000000	 91.134992 
894.000000	 91.305647 
893.000000	 91.463790 
892.000000	 91.614363 
891.000000	 91.766079 
890.000000	 91.915067 
889.000000	 92.046994 
888.000000	 92.155550 
887.000000	 92.246011 
886.000000	 92.321983 
885.000000	 92.383151 
884.000000	 92.435328 
883.000000	 92.486500 
882.000000	 92.532843 
881.000000	 92.566526 
880.000000	 92.598625 
879.000000	 92.654504 
878.000000	 92.742617 
877.000000	 92.847317 
876.000000	 92.956550 
875.000000	 93.076291 
874.000000	 93.212499 
873.000000	 93.361279 
872.000000	 93.524607 
871.000000	 93.713822 
870.000000	 93.926790 
869.000000	 94.139935 
868.000000	 94.333751 
867.000000	 94.511062 
866.000000	 94.681625 
865.000000	 94.844598 
864.000000	 94.996820 
863.000000	 95.144626 
862.000000	 95.294764 
861.000000	 95.442966 
860.000000	 95.582433 
859.000000	 95.715849 
858.000000	 95.849386 
857.000000	 95.981326 
856.000000	 96.104867 
855.000000	 96.216445 
854.000000	 96.314749 
853.000000	 96.397783 
852.000000	 96.467587 
851.000000	 96.533020 
850.000000	 96.602610 
849.000000	 96.678651 
848.000000	 96.760208 
847.000000	 96.844600 
846.000000	 96.923764 
845.000000	 96.988193 
844.000000	 97.038332 
843.000000	 97.084278 
842.000000	 97.131024 
841.000000	 97.172175 
840.000000	 97.201114 
839.000000	 97.219100 
838.000000	 97.228857 
837.000000	 97.229901 
836.000000	 97.225392 
835.000000	 97.224863 
834.000000	 97.233845 
833.000000	 97.247592 
832.000000	 97.260087 
831.000000	 97.272129 
830.000000	 97.285889 
829.000000	 97.299383 
828.000000	 97.312620 
827.000000	 97.332316 
826.000000	 97.363658 
825.000000	 97.402975 
824.000000	 97.443251 
823.000000	 97.479900 
822.000000	 97.507830 
821.000000	 97.521712 
820.000000	 97.522353 
819.000000	 97.513896 
818.000000	 97.492055 
817.000000	 97.443420 
816.000000	 97.359300 
815.000000	 97.243043 
814.000000	 97.100404 
813.000000	 96.928715 
812.000000	 96.717627 
811.000000	 96.452715 
810.000000	 96.115316 
809.000000	 95.688254 
808.000000	 95.169433 
807.000000	 94.576524 
806.000000	 93.935046 
805.000000	 93.267263 
804.000000	 92.595280 
803.000000	 91.945024 
802.000000	 91.340875 
801.000000	 90.804847 
800.000000	 90.363783 
799.000000	 90.042987 
798.000000	 89.845715 
797.000000	 89.751154 
796.000000	 89.736615 
795.000000	 89.787799 
794.000000	 89.885860 
793.000000	 90.003824 
792.000000	 90.122470 
791.000000	 90.234754 
790.000000	 90.330001 
789.000000	 90.388258 
788.000000	 90.394162 
787.000000	 90.343012 
786.000000	 90.231204 
785.000000	 90.055661 
784.000000	 89.826491 
783.000000	 89.566569 
782.000000	 89.295999 
781.000000	 89.031722 
780.000000	 88.802857 
779.000000	 88.645727 
778.000000	 88.577316 
777.000000	 88.590736 
776.000000	 88.679380 
775.000000	 88.843560 
774.000000	 89.068127 
773.000000	 89.317704 
772.000000	 89.564842 
771.000000	 89.804844 
770.000000	 90.036165 
769.000000	 90.247084 
768.000000	 90.431091 
767.000000	 90.596078 
766.000000	 90.747612 
765.000000	 90.880546 
764.000000	 90.997873 
763.000000	 91.120273 
762.000000	 91.263312 
761.000000	 91.418805 
760.000000	 91.570842 
759.000000	 91.717478 
758.000000	 91.865352 
757.000000	 92.015686 
756.000000	 92.167982 
755.000000	 92.326347 
754.000000	 92.489158 
753.000000	 92.640921 
752.000000	 92.766116 
751.000000	 92.865438 
750.000000	 92.951237 
749.000000	 93.034457 
748.000000	 93.122656 
747.000000	 93.221633 
746.000000	 93.330200 
745.000000	 93.439835 
744.000000	 93.546178 
743.000000	 93.654573 
742.000000	 93.769613 
741.000000	 93.887720 
740.000000	 94.005570 
739.000000	 94.127013 
738.000000	 94.254654 
737.000000	 94.380925 
736.000000	 94.493523 
735.000000	 94.585537 
734.000000	 94.657655 
733.000000	 94.716154 
732.000000	 94.770159 
731.000000	 94.824313 
730.000000	 94.872556 
729.000000	 94.905244 
728.000000	 94.924676 
727.000000	 94.946094 
726.000000	 94.982385 
725.000000	 95.037223 
724.000000	 95.110716 
723.000000	 95.198995 
722.000000	 95.289034 
721.000000	 95.368065 
720.000000	 95.440139 
719.000000	 95.518537 
718.000000	 95.601314 
717.000000	 95.672765 
716.000000	 95.728749 
715.000000	 95.782870 
714.000000	 95.845212 
713.000000	 95.911465 
712.000000	 95.979373 
711.000000	 96.057584 
710.000000	 96.148113 
709.000000	 96.235992 
708.000000	 96.306334 
707.000000	 96.358967 
706.000000	 96.395177 
705.000000	 96.405276 
704.000000	 96.380943 
703.000000	 96.324198 
702.000000	 96.232401 
701.000000	 96.085075 
700.000000	 95.858787 
699.000000	 95.553365 
698.000000	 95.197452 
697.000000	 94.840422 
696.000000	 94.544935 
695.000000	 94.367782 
694.000000	 94.333078 
693.000000	 94.422888 
692.000000	 94.596274 
691.000000	 94.815215 
690.000000	 95.050855 
689.000000	 95.280331 
688.000000	 95.488074 
687.000000	 95.664364 
686.000000	 95.802435 
685.000000	 95.903959 
684.000000	 95.986254 
683.000000	 96.072517 
682.000000	 96.169788 
681.000000	 96.268196 
680.000000	 96.360100 
679.000000	 96.449913 
678.000000	 96.537388 
677.000000	 96.613713 
676.000000	 96.688751 
675.000000	 96.780611 
674.000000	 96.882296 
673.000000	 96.967225 
672.000000	 97.027878 
671.000000	 97.098553 
670.000000	 97.226838 
669.000000	 97.433004 
668.000000	 97.613510 
667.000000	 97.634125 
666.000000	 97.556100 
665.000000	 97.477083 
664.000000	 97.416992 
663.000000	 97.388773 
662.000000	 97.402555 
661.000000	 97.438163 
660.000000	 97.474595 
659.000000	 97.514515 
658.000000	 97.558464 
657.000000	 97.580040 
656.000000	 97.565526 
655.000000	 97.530431 
654.000000	 97.489112 
653.000000	 97.438531 
652.000000	 97.388329 
651.000000	 97.373690 
650.000000	 97.409001 

