4000.000000	96.765820 
3999.000000	96.765564 
3998.000000	96.763081 
3997.000000	96.758900 
3996.000000	96.754089 
3995.000000	96.749945 
3994.000000	96.747478 
3993.000000	96.746731 
3992.000000	96.746741 
3991.000000	96.746418 
3990.000000	96.745526 
3989.000000	96.744591 
3988.000000	96.744047 
3987.000000	96.743943 
3986.000000	96.744288 
3985.000000	96.745080 
3984.000000	96.745907 
3983.000000	96.746131 
3982.000000	96.745820 
3981.000000	96.745823 
3980.000000	96.746498 
3979.000000	96.746844 
3978.000000	96.745539 
3977.000000	96.742673 
3976.000000	96.739874 
3975.000000	96.738460 
3974.000000	96.738120 
3973.000000	96.737573 
3972.000000	96.735995 
3971.000000	96.733605 
3970.000000	96.731289 
3969.000000	96.730139 
3968.000000	96.730868 
3967.000000	96.733371 
3966.000000	96.736666 
3965.000000	96.739208 
3964.000000	96.739633 
3963.000000	96.737645 
3962.000000	96.734524 
3961.000000	96.732431 
3960.000000	96.732460 
3959.000000	96.733709 
3958.000000	96.734448 
3957.000000	96.733968 
3956.000000	96.732615 
3955.000000	96.730717 
3954.000000	96.728198 
3953.000000	96.724996 
3952.000000	96.721490 
3951.000000	96.718246 
3950.000000	96.715728 
3949.000000	96.714126 
3948.000000	96.713348 
3947.000000	96.713282 
3946.000000	96.713773 
3945.000000	96.714196 
3944.000000	96.713710 
3943.000000	96.712456 
3942.000000	96.711896 
3941.000000	96.713293 
3940.000000	96.716290 
3939.000000	96.719395 
3938.000000	96.721447 
3937.000000	96.722510 
3936.000000	96.722708 
3935.000000	96.721140 
3934.000000	96.717020 
3933.000000	96.711350 
3932.000000	96.706718 
3931.000000	96.704553 
3930.000000	96.704267 
3929.000000	96.704982 
3928.000000	96.706447 
3927.000000	96.708032 
3926.000000	96.708054 
3925.000000	96.705902 
3924.000000	96.703341 
3923.000000	96.701944 
3922.000000	96.701057 
3921.000000	96.699712 
3920.000000	96.698764 
3919.000000	96.699659 
3918.000000	96.701743 
3917.000000	96.702999 
3916.000000	96.702835 
3915.000000	96.702374 
3914.000000	96.702297 
3913.000000	96.702301 
3912.000000	96.701992 
3911.000000	96.701569 
3910.000000	96.701084 
3909.000000	96.700423 
3908.000000	96.699536 
3907.000000	96.698438 
3906.000000	96.696964 
3905.000000	96.695021 
3904.000000	96.693073 
3903.000000	96.691719 
3902.000000	96.691019 
3901.000000	96.690611 
3900.000000	96.690236 
3899.000000	96.689914 
3898.000000	96.689614 
3897.000000	96.689192 
3896.000000	96.688635 
3895.000000	96.688039 
3894.000000	96.687452 
3893.000000	96.686873 
3892.000000	96.686300 
3891.000000	96.685725 
3890.000000	96.685147 
3889.000000	96.684572 
3888.000000	96.683999 
3887.000000	96.683425 
3886.000000	96.682847 
3885.000000	96.682273 
3884.000000	96.681703 
3883.000000	96.681128 
3882.000000	96.680535 
3881.000000	96.679931 
3880.000000	96.679344 
3879.000000	96.678793 
3878.000000	96.678281 
3877.000000	96.677794 
3876.000000	96.677320 
3875.000000	96.676858 
3874.000000	96.676424 
3873.000000	96.676036 
3872.000000	96.675701 
3871.000000	96.675416 
3870.000000	96.675181 
3869.000000	96.675004 
3868.000000	96.674875 
3867.000000	96.674769 
3866.000000	96.674665 
3865.000000	96.674571 
3864.000000	96.674506 
3863.000000	96.674470 
3862.000000	96.674441 
3861.000000	96.674406 
3860.000000	96.674369 
3859.000000	96.674333 
3858.000000	96.674299 
3857.000000	96.674267 
3856.000000	96.674245 
3855.000000	96.674237 
3854.000000	96.674248 
3853.000000	96.674292 
3852.000000	96.674376 
3851.000000	96.674499 
3850.000000	96.674657 
3849.000000	96.674845 
3848.000000	96.675057 
3847.000000	96.675281 
3846.000000	96.675501 
3845.000000	96.675700 
3844.000000	96.675873 
3843.000000	96.676025 
3842.000000	96.676175 
3841.000000	96.676344 
3840.000000	96.676545 
3839.000000	96.676773 
3838.000000	96.677015 
3837.000000	96.677252 
3836.000000	96.677479 
3835.000000	96.677696 
3834.000000	96.677909 
3833.000000	96.678121 
3832.000000	96.678330 
3831.000000	96.678529 
3830.000000	96.678703 
3829.000000	96.678841 
3828.000000	96.678933 
3827.000000	96.678979 
3826.000000	96.678985 
3825.000000	96.678973 
3824.000000	96.678963 
3823.000000	96.678959 
3822.000000	96.678953 
3821.000000	96.678950 
3820.000000	96.678970 
3819.000000	96.679024 
3818.000000	96.679100 
3817.000000	96.679175 
3816.000000	96.679242 
3815.000000	96.679307 
3814.000000	96.679368 
3813.000000	96.679409 
3812.000000	96.679420 
3811.000000	96.679411 
3810.000000	96.679393 
3809.000000	96.679364 
3808.000000	96.679307 
3807.000000	96.679213 
3806.000000	96.679094 
3805.000000	96.678975 
3804.000000	96.678878 
3803.000000	96.678810 
3802.000000	96.678782 
3801.000000	96.678803 
3800.000000	96.678865 
3799.000000	96.678935 
3798.000000	96.678985 
3797.000000	96.679006 
3796.000000	96.679004 
3795.000000	96.678974 
3794.000000	96.678899 
3793.000000	96.678760 
3792.000000	96.678556 
3791.000000	96.678290 
3790.000000	96.677962 
3789.000000	96.677582 
3788.000000	96.677167 
3787.000000	96.676735 
3786.000000	96.676297 
3785.000000	96.675854 
3784.000000	96.675414 
3783.000000	96.674999 
3782.000000	96.674613 
3781.000000	96.674202 
3780.000000	96.673730 
3779.000000	96.673294 
3778.000000	96.673012 
3777.000000	96.672786 
3776.000000	96.672319 
3775.000000	96.671478 
3774.000000	96.670498 
3773.000000	96.669738 
3772.000000	96.669164 
3771.000000	96.668444 
3770.000000	96.667548 
3769.000000	96.666805 
3768.000000	96.666276 
3767.000000	96.665595 
3766.000000	96.664504 
3765.000000	96.663275 
3764.000000	96.662456 
3763.000000	96.662134 
3762.000000	96.661752 
3761.000000	96.660836 
3760.000000	96.659625 
3759.000000	96.658628 
3758.000000	96.657596 
3757.000000	96.656076 
3756.000000	96.654281 
3755.000000	96.652637 
3754.000000	96.651017 
3753.000000	96.649116 
3752.000000	96.647558 
3751.000000	96.646953 
3750.000000	96.646411 
3749.000000	96.645211 
3748.000000	96.644425 
3747.000000	96.644944 
3746.000000	96.645702 
3745.000000	96.645130 
3744.000000	96.644122 
3743.000000	96.643954 
3742.000000	96.643761 
3741.000000	96.642352 
3740.000000	96.639984 
3739.000000	96.638236 
3738.000000	96.637609 
3737.000000	96.636684 
3736.000000	96.634774 
3735.000000	96.633586 
3734.000000	96.634416 
3733.000000	96.635877 
3732.000000	96.636073 
3731.000000	96.635037 
3730.000000	96.633760 
3729.000000	96.632407 
3728.000000	96.630157 
3727.000000	96.626918 
3726.000000	96.624334 
3725.000000	96.623608 
3724.000000	96.623858 
3723.000000	96.623852 
3722.000000	96.623924 
3721.000000	96.624685 
3720.000000	96.625352 
3719.000000	96.624824 
3718.000000	96.622419 
3717.000000	96.618792 
3716.000000	96.615357 
3715.000000	96.611843 
3714.000000	96.606558 
3713.000000	96.599805 
3712.000000	96.595373 
3711.000000	96.595630 
3710.000000	96.597748 
3709.000000	96.597872 
3708.000000	96.594333 
3707.000000	96.587628 
3706.000000	96.580131 
3705.000000	96.574555 
3704.000000	96.572038 
3703.000000	96.571245 
3702.000000	96.568979 
3701.000000	96.562256 
3700.000000	96.551167 
3699.000000	96.539041 
3698.000000	96.528330 
3697.000000	96.519644 
3696.000000	96.514298 
3695.000000	96.511729 
3694.000000	96.507611 
3693.000000	96.499888 
3692.000000	96.493570 
3691.000000	96.495242 
3690.000000	96.502668 
3689.000000	96.506884 
3688.000000	96.504093 
3687.000000	96.498806 
3686.000000	96.494785 
3685.000000	96.489464 
3684.000000	96.480622 
3683.000000	96.472081 
3682.000000	96.466740 
3681.000000	96.458427 
3680.000000	96.441121 
3679.000000	96.420458 
3678.000000	96.406560 
3677.000000	96.395072 
3676.000000	96.376636 
3675.000000	96.357207 
3674.000000	96.345618 
3673.000000	96.340230 
3672.000000	96.332074 
3671.000000	96.316014 
3670.000000	96.301405 
3669.000000	96.296534 
3668.000000	96.292859 
3667.000000	96.281268 
3666.000000	96.263885 
3665.000000	96.246818 
3664.000000	96.232440 
3663.000000	96.218894 
3662.000000	96.203217 
3661.000000	96.184987 
3660.000000	96.167163 
3659.000000	96.151407 
3658.000000	96.135096 
3657.000000	96.112935 
3656.000000	96.085903 
3655.000000	96.060882 
3654.000000	96.041642 
3653.000000	96.024888 
3652.000000	96.003859 
3651.000000	95.978296 
3650.000000	95.957516 
3649.000000	95.944454 
3648.000000	95.930588 
3647.000000	95.913816 
3646.000000	95.901476 
3645.000000	95.897496 
3644.000000	95.897560 
3643.000000	95.895190 
3642.000000	95.887497 
3641.000000	95.875697 
3640.000000	95.860523 
3639.000000	95.841605 
3638.000000	95.821937 
3637.000000	95.806157 
3636.000000	95.793351 
3635.000000	95.775665 
3634.000000	95.750091 
3633.000000	95.724666 
3632.000000	95.707459 
3631.000000	95.692817 
3630.000000	95.668192 
3629.000000	95.639999 
3628.000000	95.626015 
3627.000000	95.626231 
3626.000000	95.628971 
3625.000000	95.629517 
3624.000000	95.632521 
3623.000000	95.643644 
3622.000000	95.659404 
3621.000000	95.667296 
3620.000000	95.658668 
3619.000000	95.637801 
3618.000000	95.615593 
3617.000000	95.601524 
3616.000000	95.600994 
3615.000000	95.612363 
3614.000000	95.629377 
3613.000000	95.647239 
3612.000000	95.664080 
3611.000000	95.677824 
3610.000000	95.685821 
3609.000000	95.688535 
3608.000000	95.690477 
3607.000000	95.695111 
3606.000000	95.701803 
3605.000000	95.710189 
3604.000000	95.722169 
3603.000000	95.738118 
3602.000000	95.753855 
3601.000000	95.763295 
3600.000000	95.765880 
3599.000000	95.766391 
3598.000000	95.769231 
3597.000000	95.775209 
3596.000000	95.782505 
3595.000000	95.787379 
3594.000000	95.788384 
3593.000000	95.787815 
3592.000000	95.789151 
3591.000000	95.793338 
3590.000000	95.796396 
3589.000000	95.792993 
3588.000000	95.783986 
3587.000000	95.776582 
3586.000000	95.775410 
3585.000000	95.779278 
3584.000000	95.785277 
3583.000000	95.791128 
3582.000000	95.795450 
3581.000000	95.797463 
3580.000000	95.797642 
3579.000000	95.797187 
3578.000000	95.796795 
3577.000000	95.796176 
3576.000000	95.794822 
3575.000000	95.792762 
3574.000000	95.790471 
3573.000000	95.788623 
3572.000000	95.787114 
3571.000000	95.784717 
3570.000000	95.778699 
3569.000000	95.766252 
3568.000000	95.749136 
3567.000000	95.735225 
3566.000000	95.730884 
3565.000000	95.735647 
3564.000000	95.745228 
3563.000000	95.755308 
3562.000000	95.762997 
3561.000000	95.767051 
3560.000000	95.767676 
3559.000000	95.766152 
3558.000000	95.763834 
3557.000000	95.761514 
3556.000000	95.759328 
3555.000000	95.756989 
3554.000000	95.753997 
3553.000000	95.750325 
3552.000000	95.746736 
3551.000000	95.743919 
3550.000000	95.741689 
3549.000000	95.739492 
3548.000000	95.737482 
3547.000000	95.736395 
3546.000000	95.736223 
3545.000000	95.736177 
3544.000000	95.736372 
3543.000000	95.738081 
3542.000000	95.741816 
3541.000000	95.746481 
3540.000000	95.750530 
3539.000000	95.753023 
3538.000000	95.753388 
3537.000000	95.751352 
3536.000000	95.747683 
3535.000000	95.743848 
3534.000000	95.740855 
3533.000000	95.738553 
3532.000000	95.736674 
3531.000000	95.735553 
3530.000000	95.735378 
3529.000000	95.735462 
3528.000000	95.735175 
3527.000000	95.735170 
3526.000000	95.736521 
3525.000000	95.739285 
3524.000000	95.742956 
3523.000000	95.747502 
3522.000000	95.752849 
3521.000000	95.758223 
3520.000000	95.762537 
3519.000000	95.765165 
3518.000000	95.766317 
3517.000000	95.766529 
3516.000000	95.766159 
3515.000000	95.765435 
3514.000000	95.764913 
3513.000000	95.764973 
3512.000000	95.765018 
3511.000000	95.763997 
3510.000000	95.761859 
3509.000000	95.760017 
3508.000000	95.760291 
3507.000000	95.763436 
3506.000000	95.768471 
3505.000000	95.773217 
3504.000000	95.775710 
3503.000000	95.775252 
3502.000000	95.772528 
3501.000000	95.769075 
3500.000000	95.766390 
3499.000000	95.765068 
3498.000000	95.764677 
3497.000000	95.764494 
3496.000000	95.764130 
3495.000000	95.763552 
3494.000000	95.762927 
3493.000000	95.762533 
3492.000000	95.762417 
3491.000000	95.762220 
3490.000000	95.761652 
3489.000000	95.760873 
3488.000000	95.760101 
3487.000000	95.758977 
3486.000000	95.756878 
3485.000000	95.753936 
3484.000000	95.751119 
3483.000000	95.749033 
3482.000000	95.747274 
3481.000000	95.745408 
3480.000000	95.744093 
3479.000000	95.744394 
3478.000000	95.746013 
3477.000000	95.746911 
3476.000000	95.745059 
3475.000000	95.740269 
3474.000000	95.734246 
3473.000000	95.729204 
3472.000000	95.726272 
3471.000000	95.724978 
3470.000000	95.723849 
3469.000000	95.721414 
3468.000000	95.717007 
3467.000000	95.711189 
3466.000000	95.705494 
3465.000000	95.701342 
3464.000000	95.699024 
3463.000000	95.697653 
3462.000000	95.696092 
3461.000000	95.693881 
3460.000000	95.691262 
3459.000000	95.688533 
3458.000000	95.685605 
3457.000000	95.682172 
3456.000000	95.678254 
3455.000000	95.674448 
3454.000000	95.671528 
3453.000000	95.669635 
3452.000000	95.668133 
3451.000000	95.666247 
3450.000000	95.663728 
3449.000000	95.660822 
3448.000000	95.657817 
3447.000000	95.654864 
3446.000000	95.652125 
3445.000000	95.649890 
3444.000000	95.648363 
3443.000000	95.647370 
3442.000000	95.646376 
3441.000000	95.644845 
3440.000000	95.642572 
3439.000000	95.639704 
3438.000000	95.636538 
3437.000000	95.633352 
3436.000000	95.630417 
3435.000000	95.628039 
3434.000000	95.626430 
3433.000000	95.625479 
3432.000000	95.624784 
3431.000000	95.623890 
3430.000000	95.622476 
3429.000000	95.620393 
3428.000000	95.617619 
3427.000000	95.614325 
3426.000000	95.611014 
3425.000000	95.608444 
3424.000000	95.607133 
3423.000000	95.606855 
3422.000000	95.606642 
3421.000000	95.605712 
3420.000000	95.604277 
3419.000000	95.603109 
3418.000000	95.602483 
3417.000000	95.601919 
3416.000000	95.600944 
3415.000000	95.599639 
3414.000000	95.598275 
3413.000000	95.596783 
3412.000000	95.594891 
3411.000000	95.592618 
3410.000000	95.590415 
3409.000000	95.588876 
3408.000000	95.588274 
3407.000000	95.588163 
3406.000000	95.587551 
3405.000000	95.585810 
3404.000000	95.583367 
3403.000000	95.581229 
3402.000000	95.579954 
3401.000000	95.579417 
3400.000000	95.579440 
3399.000000	95.579992 
3398.000000	95.580719 
3397.000000	95.580928 
3396.000000	95.580384 
3395.000000	95.579733 
3394.000000	95.579566 
3393.000000	95.579187 
3392.000000	95.576882 
3391.000000	95.571780 
3390.000000	95.565313 
3389.000000	95.560435 
3388.000000	95.559108 
3387.000000	95.560767 
3386.000000	95.562963 
3385.000000	95.563487 
3384.000000	95.561879 
3383.000000	95.559276 
3382.000000	95.557595 
3381.000000	95.558473 
3380.000000	95.562014 
3379.000000	95.566340 
3378.000000	95.569237 
3377.000000	95.570657 
3376.000000	95.572569 
3375.000000	95.576089 
3374.000000	95.579826 
3373.000000	95.581797 
3372.000000	95.582094 
3371.000000	95.582734 
3370.000000	95.585272 
3369.000000	95.589430 
3368.000000	95.593732 
3367.000000	95.596573 
3366.000000	95.596710 
3365.000000	95.593691 
3364.000000	95.588380 
3363.000000	95.582760 
3362.000000	95.578799 
3361.000000	95.577412 
3360.000000	95.578373 
3359.000000	95.580738 
3358.000000	95.583371 
3357.000000	95.585456 
3356.000000	95.586803 
3355.000000	95.587844 
3354.000000	95.589561 
3353.000000	95.593284 
3352.000000	95.599868 
3351.000000	95.608640 
3350.000000	95.617514 
3349.000000	95.624659 
3348.000000	95.629928 
3347.000000	95.634348 
3346.000000	95.638456 
3345.000000	95.641620 
3344.000000	95.642916 
3343.000000	95.642101 
3342.000000	95.639897 
3341.000000	95.637747 
3340.000000	95.637020 
3339.000000	95.637875 
3338.000000	95.638968 
3337.000000	95.638644 
3336.000000	95.636428 
3335.000000	95.633261 
3334.000000	95.630609 
3333.000000	95.629582 
3332.000000	95.630584 
3331.000000	95.633231 
3330.000000	95.636544 
3329.000000	95.639664 
3328.000000	95.642555 
3327.000000	95.645735 
3326.000000	95.649306 
3325.000000	95.652520 
3324.000000	95.654437 
3323.000000	95.654866 
3322.000000	95.654639 
3321.000000	95.655006 
3320.000000	95.656693 
3319.000000	95.659425 
3318.000000	95.662318 
3317.000000	95.664678 
3316.000000	95.666374 
3315.000000	95.667447 
3314.000000	95.667695 
3313.000000	95.666938 
3312.000000	95.665581 
3311.000000	95.664609 
3310.000000	95.664861 
3309.000000	95.666357 
3308.000000	95.668364 
3307.000000	95.669951 
3306.000000	95.670563 
3305.000000	95.670187 
3304.000000	95.669298 
3303.000000	95.668730 
3302.000000	95.669305 
3301.000000	95.671330 
3300.000000	95.674278 
3299.000000	95.676954 
3298.000000	95.678371 
3297.000000	95.678523 
3296.000000	95.678368 
3295.000000	95.679032 
3294.000000	95.680905 
3293.000000	95.683531 
3292.000000	95.686113 
3291.000000	95.688114 
3290.000000	95.689419 
3289.000000	95.690164 
3288.000000	95.690551 
3287.000000	95.690730 
3286.000000	95.690684 
3285.000000	95.690225 
3284.000000	95.689226 
3283.000000	95.688009 
3282.000000	95.687424 
3281.000000	95.688277 
3280.000000	95.690515 
3279.000000	95.693241 
3278.000000	95.695731 
3277.000000	95.698186 
3276.000000	95.701103 
3275.000000	95.704247 
3274.000000	95.706844 
3273.000000	95.708816 
3272.000000	95.711178 
3271.000000	95.714808 
3270.000000	95.719125 
3269.000000	95.722423 
3268.000000	95.723591 
3267.000000	95.723192 
3266.000000	95.722987 
3265.000000	95.724395 
3264.000000	95.727440 
3263.000000	95.730954 
3262.000000	95.733630 
3261.000000	95.735016 
3260.000000	95.735524 
3259.000000	95.735891 
3258.000000	95.736799 
3257.000000	95.738801 
3256.000000	95.742162 
3255.000000	95.746374 
3254.000000	95.750153 
3253.000000	95.752442 
3252.000000	95.753399 
3251.000000	95.754223 
3250.000000	95.755957 
3249.000000	95.758607 
3248.000000	95.761392 
3247.000000	95.763564 
3246.000000	95.764934 
3245.000000	95.765788 
3244.000000	95.766360 
3243.000000	95.766394 
3242.000000	95.765430 
3241.000000	95.763605 
3240.000000	95.762013 
3239.000000	95.762097 
3238.000000	95.764651 
3237.000000	95.769354 
3236.000000	95.775038 
3235.000000	95.780273 
3234.000000	95.783973 
3233.000000	95.785899 
3232.000000	95.786944 
3231.000000	95.788681 
3230.000000	95.792131 
3229.000000	95.796691 
3228.000000	95.800430 
3227.000000	95.801849 
3226.000000	95.801168 
3225.000000	95.799750 
3224.000000	95.798374 
3223.000000	95.796591 
3222.000000	95.794037 
3221.000000	95.791608 
3220.000000	95.790708 
3219.000000	95.791776 
3218.000000	95.794116 
3217.000000	95.796924 
3216.000000	95.799935 
3215.000000	95.803310 
3214.000000	95.807499 
3213.000000	95.813067 
3212.000000	95.820081 
3211.000000	95.827692 
3210.000000	95.834743 
3209.000000	95.840808 
3208.000000	95.846095 
3207.000000	95.850409 
3206.000000	95.852978 
3205.000000	95.853679 
3204.000000	95.853975 
3203.000000	95.855986 
3202.000000	95.860470 
3201.000000	95.865939 
3200.000000	95.869929 
3199.000000	95.871246 
3198.000000	95.870859 
3197.000000	95.870611 
3196.000000	95.871384 
3195.000000	95.873007 
3194.000000	95.875667 
3193.000000	95.880368 
3192.000000	95.887447 
3191.000000	95.895195 
3190.000000	95.900879 
3189.000000	95.903184 
3188.000000	95.903222 
3187.000000	95.903516 
3186.000000	95.906037 
3185.000000	95.910899 
3184.000000	95.916449 
3183.000000	95.920760 
3182.000000	95.923319 
3181.000000	95.925093 
3180.000000	95.927010 
3179.000000	95.928790 
3178.000000	95.929665 
3177.000000	95.929695 
3176.000000	95.929727 
3175.000000	95.930393 
3174.000000	95.931720 
3173.000000	95.933418 
3172.000000	95.934955 
3171.000000	95.935654 
3170.000000	95.935478 
3169.000000	95.935521 
3168.000000	95.936944 
3167.000000	95.939484 
3166.000000	95.941823 
3165.000000	95.943425 
3164.000000	95.945146 
3163.000000	95.947892 
3162.000000	95.951500 
3161.000000	95.955230 
3160.000000	95.958649 
3159.000000	95.961610 
3158.000000	95.963988 
3157.000000	95.965894 
3156.000000	95.967768 
3155.000000	95.969957 
3154.000000	95.972498 
3153.000000	95.975389 
3152.000000	95.978493 
3151.000000	95.981007 
3150.000000	95.981677 
3149.000000	95.979967 
3148.000000	95.976731 
3147.000000	95.973682 
3146.000000	95.972538 
3145.000000	95.974554 
3144.000000	95.979988 
3143.000000	95.987353 
3142.000000	95.993944 
3141.000000	95.998241 
3140.000000	96.001307 
3139.000000	96.005270 
3138.000000	96.010862 
3137.000000	96.016856 
3136.000000	96.021554 
3135.000000	96.024370 
3134.000000	96.026130 
3133.000000	96.028262 
3132.000000	96.031694 
3131.000000	96.036358 
3130.000000	96.041673 
3129.000000	96.047260 
3128.000000	96.052945 
3127.000000	96.058243 
3126.000000	96.062319 
3125.000000	96.064643 
3124.000000	96.065486 
3123.000000	96.065543 
3122.000000	96.065286 
3121.000000	96.065004 
3120.000000	96.065184 
3119.000000	96.066454 
3118.000000	96.069145 
3117.000000	96.073018 
3116.000000	96.077321 
3115.000000	96.081150 
3114.000000	96.083944 
3113.000000	96.085855 
3112.000000	96.087726 
3111.000000	96.090545 
3110.000000	96.094635 
3109.000000	96.099219 
3108.000000	96.102954 
3107.000000	96.105147 
3106.000000	96.106357 
3105.000000	96.107642 
3104.000000	96.109432 
3103.000000	96.111418 
3102.000000	96.113251 
3101.000000	96.114883 
3100.000000	96.116228 
3099.000000	96.117074 
3098.000000	96.117709 
3097.000000	96.119144 
3096.000000	96.122149 
3095.000000	96.126229 
3094.000000	96.129978 
3093.000000	96.132493 
3092.000000	96.133908 
3091.000000	96.134646 
3090.000000	96.134797 
3089.000000	96.134335 
3088.000000	96.133511 
3087.000000	96.132907 
3086.000000	96.133289 
3085.000000	96.135216 
3084.000000	96.138369 
3083.000000	96.141407 
3082.000000	96.143167 
3081.000000	96.144007 
3080.000000	96.145300 
3079.000000	96.147495 
3078.000000	96.149511 
3077.000000	96.150421 
3076.000000	96.150775 
3075.000000	96.151563 
3074.000000	96.152635 
3073.000000	96.153109 
3072.000000	96.152876 
3071.000000	96.152749 
3070.000000	96.153408 
3069.000000	96.155027 
3068.000000	96.157616 
3067.000000	96.160830 
3066.000000	96.163559 
3065.000000	96.164585 
3064.000000	96.163680 
3063.000000	96.161539 
3062.000000	96.158886 
3061.000000	96.156348 
3060.000000	96.154854 
3059.000000	96.155203 
3058.000000	96.157187 
3057.000000	96.159846 
3056.000000	96.162546 
3055.000000	96.165113 
3054.000000	96.167283 
3053.000000	96.169044 
3052.000000	96.171329 
3051.000000	96.175209 
3050.000000	96.180223 
3049.000000	96.184398 
3048.000000	96.186283 
3047.000000	96.186215 
3046.000000	96.185441 
3045.000000	96.184789 
3044.000000	96.184695 
3043.000000	96.185830 
3042.000000	96.188681 
3041.000000	96.192505 
3040.000000	96.195439 
3039.000000	96.196191 
3038.000000	96.195298 
3037.000000	96.194447 
3036.000000	96.194568 
3035.000000	96.194917 
3034.000000	96.194283 
3033.000000	96.192615 
3032.000000	96.191004 
3031.000000	96.190367 
3030.000000	96.190723 
3029.000000	96.191674 
3028.000000	96.192831 
3027.000000	96.193569 
3026.000000	96.193117 
3025.000000	96.191401 
3024.000000	96.189458 
3023.000000	96.188446 
3022.000000	96.188484 
3021.000000	96.188990 
3020.000000	96.189809 
3019.000000	96.191243 
3018.000000	96.192938 
3017.000000	96.193571 
3016.000000	96.192069 
3015.000000	96.188750 
3014.000000	96.185231 
3013.000000	96.183195 
3012.000000	96.183137 
3011.000000	96.184106 
3010.000000	96.184536 
3009.000000	96.183700 
3008.000000	96.182255 
3007.000000	96.181214 
3006.000000	96.180525 
3005.000000	96.179145 
3004.000000	96.176535 
3003.000000	96.173603 
3002.000000	96.171953 
3001.000000	96.172437 
3000.000000	96.174466 
2999.000000	96.176352 
2998.000000	96.176409 
2997.000000	96.174132 
2996.000000	96.170533 
2995.000000	96.167220 
2994.000000	96.165014 
2993.000000	96.163556 
2992.000000	96.162025 
2991.000000	96.159931 
2990.000000	96.157424 
2989.000000	96.155319 
2988.000000	96.154611 
2987.000000	96.155455 
2986.000000	96.156816 
2985.000000	96.157735 
2984.000000	96.158726 
2983.000000	96.161145 
2982.000000	96.165223 
2981.000000	96.169448 
2980.000000	96.172021 
2979.000000	96.172347 
2978.000000	96.171042 
2977.000000	96.169193 
2976.000000	96.167797 
2975.000000	96.167307 
2974.000000	96.167528 
2973.000000	96.168283 
2972.000000	96.170086 
2971.000000	96.173449 
2970.000000	96.177518 
2969.000000	96.180386 
2968.000000	96.181276 
2967.000000	96.181526 
2966.000000	96.182924 
2965.000000	96.185822 
2964.000000	96.189450 
2963.000000	96.193282 
2962.000000	96.197299 
2961.000000	96.201260 
2960.000000	96.204718 
2959.000000	96.207809 
2958.000000	96.211239 
2957.000000	96.215212 
2956.000000	96.218792 
2955.000000	96.220703 
2954.000000	96.220753 
2953.000000	96.220335 
2952.000000	96.221569 
2951.000000	96.225812 
2950.000000	96.232745 
2949.000000	96.240573 
2948.000000	96.247215 
2947.000000	96.251531 
2946.000000	96.253578 
2945.000000	96.254081 
2944.000000	96.253927 
2943.000000	96.253983 
2942.000000	96.254899 
2941.000000	96.256727 
2940.000000	96.258926 
2939.000000	96.261107 
2938.000000	96.263632 
2937.000000	96.266965 
2936.000000	96.270479 
2935.000000	96.272642 
2934.000000	96.272744 
2933.000000	96.271876 
2932.000000	96.271590 
2931.000000	96.272075 
2930.000000	96.272486 
2929.000000	96.272732 
2928.000000	96.273901 
2927.000000	96.276688 
2926.000000	96.280356 
2925.000000	96.283725 
2924.000000	96.286538 
2923.000000	96.289142 
2922.000000	96.291379 
2921.000000	96.292633 
2920.000000	96.292886 
2919.000000	96.293011 
2918.000000	96.293753 
2917.000000	96.294717 
2916.000000	96.294665 
2915.000000	96.292895 
2914.000000	96.290299 
2913.000000	96.288818 
2912.000000	96.289525 
2911.000000	96.291445 
2910.000000	96.292669 
2909.000000	96.292584 
2908.000000	96.292372 
2907.000000	96.293247 
2906.000000	96.294963 
2905.000000	96.296407 
2904.000000	96.296850 
2903.000000	96.296572 
2902.000000	96.296486 
2901.000000	96.297481 
2900.000000	96.300059 
2899.000000	96.303807 
2898.000000	96.307837 
2897.000000	96.311566 
2896.000000	96.314579 
2895.000000	96.315935 
2894.000000	96.314906 
2893.000000	96.312815 
2892.000000	96.312766 
2891.000000	96.316447 
2890.000000	96.322161 
2889.000000	96.326817 
2888.000000	96.329385 
2887.000000	96.331045 
2886.000000	96.332633 
2885.000000	96.333931 
2884.000000	96.335413 
2883.000000	96.338643 
2882.000000	96.344158 
2881.000000	96.350337 
2880.000000	96.355387 
2879.000000	96.359533 
2878.000000	96.364073 
2877.000000	96.369119 
2876.000000	96.373502 
2875.000000	96.376584 
2874.000000	96.378985 
2873.000000	96.381434 
2872.000000	96.383836 
2871.000000	96.385764 
2870.000000	96.387209 
2869.000000	96.388421 
2868.000000	96.389447 
2867.000000	96.390258 
2866.000000	96.391156 
2865.000000	96.392672 
2864.000000	96.395046 
2863.000000	96.398038 
2862.000000	96.401233 
2861.000000	96.404303 
2860.000000	96.406990 
2859.000000	96.409201 
2858.000000	96.411339 
2857.000000	96.414234 
2856.000000	96.418324 
2855.000000	96.422935 
2854.000000	96.426762 
2853.000000	96.429170 
2852.000000	96.430665 
2851.000000	96.432137 
2850.000000	96.433911 
2849.000000	96.435699 
2848.000000	96.437198 
2847.000000	96.438380 
2846.000000	96.439356 
2845.000000	96.440312 
2844.000000	96.441575 
2843.000000	96.443480 
2842.000000	96.446065 
2841.000000	96.448870 
2840.000000	96.451088 
2839.000000	96.452030 
2838.000000	96.451653 
2837.000000	96.450776 
2836.000000	96.450616 
2835.000000	96.451890 
2834.000000	96.454467 
2833.000000	96.457800 
2832.000000	96.461485 
2831.000000	96.465204 
2830.000000	96.468412 
2829.000000	96.470530 
2828.000000	96.471592 
2827.000000	96.472477 
2826.000000	96.474319 
2825.000000	96.477566 
2824.000000	96.481528 
2823.000000	96.484801 
2822.000000	96.486338 
2821.000000	96.486193 
2820.000000	96.485240 
2819.000000	96.484273 
2818.000000	96.483613 
2817.000000	96.483637 
2816.000000	96.484997 
2815.000000	96.487789 
2814.000000	96.490743 
2813.000000	96.491985 
2812.000000	96.490810 
2811.000000	96.488372 
2810.000000	96.486596 
2809.000000	96.486581 
2808.000000	96.488229 
2807.000000	96.490911 
2806.000000	96.494139 
2805.000000	96.497738 
2804.000000	96.501624 
2803.000000	96.505553 
2802.000000	96.509203 
2801.000000	96.512591 
2800.000000	96.516172 
2799.000000	96.520168 
2798.000000	96.523890 
2797.000000	96.526190 
2796.000000	96.526665 
2795.000000	96.526039 
2794.000000	96.525283 
2793.000000	96.524754 
2792.000000	96.524490 
2791.000000	96.524811 
2790.000000	96.526059 
2789.000000	96.527919 
2788.000000	96.529457 
2787.000000	96.530020 
2786.000000	96.529919 
2785.000000	96.530172 
2784.000000	96.531625 
2783.000000	96.534339 
2782.000000	96.537592 
2781.000000	96.540486 
2780.000000	96.542643 
2779.000000	96.544342 
2778.000000	96.546034 
2777.000000	96.547804 
2776.000000	96.549418 
2775.000000	96.550776 
2774.000000	96.552060 
2773.000000	96.553349 
2772.000000	96.554337 
2771.000000	96.554716 
2770.000000	96.554781 
2769.000000	96.555315 
2768.000000	96.556710 
2767.000000	96.558455 
2766.000000	96.559722 
2765.000000	96.560305 
2764.000000	96.560728 
2763.000000	96.561506 
2762.000000	96.562524 
2761.000000	96.563280 
2760.000000	96.563584 
2759.000000	96.563799 
2758.000000	96.564344 
2757.000000	96.565094 
2756.000000	96.565500 
2755.000000	96.565298 
2754.000000	96.564906 
2753.000000	96.565028 
2752.000000	96.565877 
2751.000000	96.567056 
2750.000000	96.568132 
2749.000000	96.569132 
2748.000000	96.570236 
2747.000000	96.571188 
2746.000000	96.571481 
2745.000000	96.571054 
2744.000000	96.570512 
2743.000000	96.570503 
2742.000000	96.571078 
2741.000000	96.571863 
2740.000000	96.572617 
2739.000000	96.573348 
2738.000000	96.574027 
2737.000000	96.574572 
2736.000000	96.575083 
2735.000000	96.575785 
2734.000000	96.576695 
2733.000000	96.577547 
2732.000000	96.578115 
2731.000000	96.578494 
2730.000000	96.578996 
2729.000000	96.579836 
2728.000000	96.580961 
2727.000000	96.582103 
2726.000000	96.582974 
2725.000000	96.583482 
2724.000000	96.583788 
2723.000000	96.584163 
2722.000000	96.584738 
2721.000000	96.585454 
2720.000000	96.586238 
2719.000000	96.587125 
2718.000000	96.588146 
2717.000000	96.589157 
2716.000000	96.589923 
2715.000000	96.590355 
2714.000000	96.590577 
2713.000000	96.590769 
2712.000000	96.591012 
2711.000000	96.591306 
2710.000000	96.591662 
2709.000000	96.592110 
2708.000000	96.592672 
2707.000000	96.593366 
2706.000000	96.594195 
2705.000000	96.595089 
2704.000000	96.595875 
2703.000000	96.596392 
2702.000000	96.596688 
2701.000000	96.597088 
2700.000000	96.597959 
2699.000000	96.599382 
2698.000000	96.600986 
2697.000000	96.602167 
2696.000000	96.602594 
2695.000000	96.602417 
2694.000000	96.602092 
2693.000000	96.601933 
2692.000000	96.601942 
2691.000000	96.602035 
2690.000000	96.602242 
2689.000000	96.602629 
2688.000000	96.603100 
2687.000000	96.603451 
2686.000000	96.603605 
2685.000000	96.603713 
2684.000000	96.603975 
2683.000000	96.604438 
2682.000000	96.604964 
2681.000000	96.605374 
2680.000000	96.605594 
2679.000000	96.605707 
2678.000000	96.605890 
2677.000000	96.606296 
2676.000000	96.606884 
2675.000000	96.607345 
2674.000000	96.607317 
2673.000000	96.606772 
2672.000000	96.606118 
2671.000000	96.605797 
2670.000000	96.605860 
2669.000000	96.606050 
2668.000000	96.606221 
2667.000000	96.606479 
2666.000000	96.606873 
2665.000000	96.607182 
2664.000000	96.607182 
2663.000000	96.607000 
2662.000000	96.606951 
2661.000000	96.607020 
2660.000000	96.606755 
2659.000000	96.605840 
2658.000000	96.604590 
2657.000000	96.603727 
2656.000000	96.603649 
2655.000000	96.604085 
2654.000000	96.604401 
2653.000000	96.604177 
2652.000000	96.603553 
2651.000000	96.603139 
2650.000000	96.603520 
2649.000000	96.604670 
2648.000000	96.605801 
2647.000000	96.605965 
2646.000000	96.604811 
2645.000000	96.602699 
2644.000000	96.600272 
2643.000000	96.598133 
2642.000000	96.596893 
2641.000000	96.597025 
2640.000000	96.598317 
2639.000000	96.599723 
2638.000000	96.600247 
2637.000000	96.599905 
2636.000000	96.599552 
2635.000000	96.599984 
2634.000000	96.601396 
2633.000000	96.603418 
2632.000000	96.605313 
2631.000000	96.606319 
2630.000000	96.606200 
2629.000000	96.605476 
2628.000000	96.604963 
2627.000000	96.605065 
2626.000000	96.605696 
2625.000000	96.606698 
2624.000000	96.607961 
2623.000000	96.609228 
2622.000000	96.610149 
2621.000000	96.610555 
2620.000000	96.610429 
2619.000000	96.609705 
2618.000000	96.608482 
2617.000000	96.607361 
2616.000000	96.607046 
2615.000000	96.607542 
2614.000000	96.608131 
2613.000000	96.608228 
2612.000000	96.608035 
2611.000000	96.608216 
2610.000000	96.609213 
2609.000000	96.610954 
2608.000000	96.612875 
2607.000000	96.614192 
2606.000000	96.614525 
2605.000000	96.614282 
2604.000000	96.614220 
2603.000000	96.614477 
2602.000000	96.614476 
2601.000000	96.613887 
2600.000000	96.613122 
2599.000000	96.612757 
2598.000000	96.612940 
2597.000000	96.613604 
2596.000000	96.614718 
2595.000000	96.615942 
2594.000000	96.616539 
2593.000000	96.616249 
2592.000000	96.615881 
2591.000000	96.616260 
2590.000000	96.616828 
2589.000000	96.616283 
2588.000000	96.614532 
2587.000000	96.613063 
2586.000000	96.613145 
2585.000000	96.614519 
2584.000000	96.615986 
2583.000000	96.616651 
2582.000000	96.616450 
2581.000000	96.616023 
2580.000000	96.616357 
2579.000000	96.618151 
2578.000000	96.621248 
2577.000000	96.624637 
2576.000000	96.627027 
2575.000000	96.627513 
2574.000000	96.626182 
2573.000000	96.624306 
2572.000000	96.623310 
2571.000000	96.623208 
2570.000000	96.622806 
2569.000000	96.621809 
2568.000000	96.621638 
2567.000000	96.623255 
2566.000000	96.625345 
2565.000000	96.626050 
2564.000000	96.625802 
2563.000000	96.626711 
2562.000000	96.629695 
2561.000000	96.633974 
2560.000000	96.638999 
2559.000000	96.644962 
2558.000000	96.651021 
2557.000000	96.655002 
2556.000000	96.655864 
2555.000000	96.655157 
2554.000000	96.655014 
2553.000000	96.655293 
2552.000000	96.654305 
2551.000000	96.651924 
2550.000000	96.650342 
2549.000000	96.651242 
2548.000000	96.653338 
2547.000000	96.653739 
2546.000000	96.651518 
2545.000000	96.648913 
2544.000000	96.648562 
2543.000000	96.650386 
2542.000000	96.652201 
2541.000000	96.652977 
2540.000000	96.653994 
2539.000000	96.656420 
2538.000000	96.659248 
2537.000000	96.660798 
2536.000000	96.661315 
2535.000000	96.662556 
2534.000000	96.665064 
2533.000000	96.667213 
2532.000000	96.667243 
2531.000000	96.665170 
2530.000000	96.662379 
2529.000000	96.660104 
2528.000000	96.658701 
2527.000000	96.658017 
2526.000000	96.657960 
2525.000000	96.658659 
2524.000000	96.660085 
2523.000000	96.661562 
2522.000000	96.662018 
2521.000000	96.661066 
2520.000000	96.659659 
2519.000000	96.659181 
2518.000000	96.659861 
2517.000000	96.660469 
2516.000000	96.659638 
2515.000000	96.657354 
2514.000000	96.655172 
2513.000000	96.655042 
2512.000000	96.657821 
2511.000000	96.662754 
2510.000000	96.668047 
2509.000000	96.672109 
2508.000000	96.674270 
2507.000000	96.674562 
2506.000000	96.673636 
2505.000000	96.672984 
2504.000000	96.674227 
2503.000000	96.677493 
2502.000000	96.680879 
2501.000000	96.682271 
2500.000000	96.681462 
2499.000000	96.679828 
2498.000000	96.678482 
2497.000000	96.677638 
2496.000000	96.677624 
2495.000000	96.679160 
2494.000000	96.682136 
2493.000000	96.685022 
2492.000000	96.686309 
2491.000000	96.686123 
2490.000000	96.685896 
2489.000000	96.686634 
2488.000000	96.687919 
2487.000000	96.688540 
2486.000000	96.687744 
2485.000000	96.685888 
2484.000000	96.684135 
2483.000000	96.683507 
2482.000000	96.684141 
2481.000000	96.685341 
2480.000000	96.686221 
2479.000000	96.686322 
2478.000000	96.685814 
2477.000000	96.685277 
2476.000000	96.685069 
2475.000000	96.684724 
2474.000000	96.683262 
2473.000000	96.680402 
2472.000000	96.677283 
2471.000000	96.675504 
2470.000000	96.675636 
2469.000000	96.676875 
2468.000000	96.677871 
2467.000000	96.677756 
2466.000000	96.676564 
2465.000000	96.675230 
2464.000000	96.675105 
2463.000000	96.676930 
2462.000000	96.680163 
2461.000000	96.683441 
2460.000000	96.685797 
2459.000000	96.687239 
2458.000000	96.688166 
2457.000000	96.688670 
2456.000000	96.688470 
2455.000000	96.687356 
2454.000000	96.685654 
2453.000000	96.684202 
2452.000000	96.683711 
2451.000000	96.684172 
2450.000000	96.685123 
2449.000000	96.686323 
2448.000000	96.687782 
2447.000000	96.689167 
2446.000000	96.689810 
2445.000000	96.689551 
2444.000000	96.689055 
2443.000000	96.688975 
2442.000000	96.689171 
2441.000000	96.689216 
2440.000000	96.689352 
2439.000000	96.690370 
2438.000000	96.692662 
2437.000000	96.695814 
2436.000000	96.698960 
2435.000000	96.701292 
2434.000000	96.702388 
2433.000000	96.702370 
2432.000000	96.701904 
2431.000000	96.701836 
2430.000000	96.702660 
2429.000000	96.704276 
2428.000000	96.706092 
2427.000000	96.707329 
2426.000000	96.707479 
2425.000000	96.706606 
2424.000000	96.705383 
2423.000000	96.704544 
2422.000000	96.704328 
2421.000000	96.704721 
2420.000000	96.705825 
2419.000000	96.707545 
2418.000000	96.709189 
2417.000000	96.710253 
2416.000000	96.711469 
2415.000000	96.713996 
2414.000000	96.717616 
2413.000000	96.721038 
2412.000000	96.723667 
2411.000000	96.725478 
2410.000000	96.725702 
2409.000000	96.723777 
2408.000000	96.721282 
2407.000000	96.720762 
2406.000000	96.722511 
2405.000000	96.724275 
2404.000000	96.724300 
2403.000000	96.723087 
2402.000000	96.721997 
2401.000000	96.721758 
2400.000000	96.722621 
2399.000000	96.724488 
2398.000000	96.726517 
2397.000000	96.727843 
2396.000000	96.728765 
2395.000000	96.730020 
2394.000000	96.731091 
2393.000000	96.730917 
2392.000000	96.730186 
2391.000000	96.730823 
2390.000000	96.732696 
2389.000000	96.732828 
2388.000000	96.728828 
2387.000000	96.721568 
2386.000000	96.713737 
2385.000000	96.707344 
2384.000000	96.703564 
2383.000000	96.703569 
2382.000000	96.708404 
2381.000000	96.718473 
2380.000000	96.733718 
2379.000000	96.753174 
2378.000000	96.773096 
2377.000000	96.787047 
2376.000000	96.790161 
2375.000000	96.782986 
2374.000000	96.770236 
2373.000000	96.756043 
2372.000000	96.742100 
2371.000000	96.730287 
2370.000000	96.723672 
2369.000000	96.723094 
2368.000000	96.724666 
2367.000000	96.723178 
2366.000000	96.717938 
2365.000000	96.713131 
2364.000000	96.711815 
2363.000000	96.711955 
2362.000000	96.710630 
2361.000000	96.708315 
2360.000000	96.705990 
2359.000000	96.702656 
2358.000000	96.697732 
2357.000000	96.694254 
2356.000000	96.695376 
2355.000000	96.699195 
2354.000000	96.701753 
2353.000000	96.699797 
2352.000000	96.693493 
2351.000000	96.683844 
2350.000000	96.671281 
2349.000000	96.658502 
2348.000000	96.650078 
2347.000000	96.648880 
2346.000000	96.649651 
2345.000000	96.644400 
2344.000000	96.632865 
2343.000000	96.621722 
2342.000000	96.619425 
2341.000000	96.626996 
2340.000000	96.637846 
2339.000000	96.642789 
2338.000000	96.638219 
2337.000000	96.627354 
2336.000000	96.615428 
2335.000000	96.606086 
2334.000000	96.599794 
2333.000000	96.594547 
2332.000000	96.586812 
2331.000000	96.575718 
2330.000000	96.561197 
2329.000000	96.545186 
2328.000000	96.526750 
2327.000000	96.509007 
2326.000000	96.494592 
2325.000000	96.486089 
2324.000000	96.483891 
2323.000000	96.487617 
2322.000000	96.495624 
2321.000000	96.502914 
2320.000000	96.505825 
2319.000000	96.506196 
2318.000000	96.508574 
2317.000000	96.514984 
2316.000000	96.521785 
2315.000000	96.525748 
2314.000000	96.524888 
2313.000000	96.521195 
2312.000000	96.515982 
2311.000000	96.511802 
2310.000000	96.508363 
2309.000000	96.505017 
2308.000000	96.500413 
2307.000000	96.496920 
2306.000000	96.496920 
2305.000000	96.500779 
2304.000000	96.505153 
2303.000000	96.507916 
2302.000000	96.509510 
2301.000000	96.512561 
2300.000000	96.517445 
2299.000000	96.522242 
2298.000000	96.523068 
2297.000000	96.519015 
2296.000000	96.512622 
2295.000000	96.509328 
2294.000000	96.511806 
2293.000000	96.518798 
2292.000000	96.526316 
2291.000000	96.531951 
2290.000000	96.535874 
2289.000000	96.539392 
2288.000000	96.542730 
2287.000000	96.545008 
2286.000000	96.546045 
2285.000000	96.547409 
2284.000000	96.551163 
2283.000000	96.557077 
2282.000000	96.562299 
2281.000000	96.564006 
2280.000000	96.562116 
2279.000000	96.558834 
2278.000000	96.556490 
2277.000000	96.555966 
2276.000000	96.557198 
2275.000000	96.559940 
2274.000000	96.563635 
2273.000000	96.567514 
2272.000000	96.571098 
2271.000000	96.574151 
2270.000000	96.576006 
2269.000000	96.576170 
2268.000000	96.575771 
2267.000000	96.577000 
2266.000000	96.580426 
2265.000000	96.584110 
2264.000000	96.585933 
2263.000000	96.585713 
2262.000000	96.584306 
2261.000000	96.582014 
2260.000000	96.579028 
2259.000000	96.576140 
2258.000000	96.574066 
2257.000000	96.572833 
2256.000000	96.572787 
2255.000000	96.574979 
2254.000000	96.579459 
2253.000000	96.583988 
2252.000000	96.585836 
2251.000000	96.584335 
2250.000000	96.580390 
2249.000000	96.574685 
2248.000000	96.567868 
2247.000000	96.561792 
2246.000000	96.558653 
2245.000000	96.558626 
2244.000000	96.559395 
2243.000000	96.558567 
2242.000000	96.556176 
2241.000000	96.554268 
2240.000000	96.554496 
2239.000000	96.556614 
2238.000000	96.558879 
2237.000000	96.559632 
2236.000000	96.558663 
2235.000000	96.556969 
2234.000000	96.555535 
2233.000000	96.554560 
2232.000000	96.553768 
2231.000000	96.552849 
2230.000000	96.551357 
2229.000000	96.548886 
2228.000000	96.545760 
2227.000000	96.543041 
2226.000000	96.541332 
2225.000000	96.540022 
2224.000000	96.538123 
2223.000000	96.535548 
2222.000000	96.533105 
2221.000000	96.531428 
2220.000000	96.530318 
2219.000000	96.529159 
2218.000000	96.527619 
2217.000000	96.525873 
2216.000000	96.524270 
2215.000000	96.522919 
2214.000000	96.521590 
2213.000000	96.519966 
2212.000000	96.518003 
2211.000000	96.516031 
2210.000000	96.514413 
2209.000000	96.513196 
2208.000000	96.512162 
2207.000000	96.511045 
2206.000000	96.509700 
2205.000000	96.508115 
2204.000000	96.506393 
2203.000000	96.504912 
2202.000000	96.504264 
2201.000000	96.504420 
2200.000000	96.504105 
2199.000000	96.501904 
2198.000000	96.497746 
2197.000000	96.492786 
2196.000000	96.488168 
2195.000000	96.484210 
2194.000000	96.480971 
2193.000000	96.479152 
2192.000000	96.479754 
2191.000000	96.482561 
2190.000000	96.485395 
2189.000000	96.485892 
2188.000000	96.484165 
2187.000000	96.482477 
2186.000000	96.481596 
2185.000000	96.478997 
2184.000000	96.472569 
2183.000000	96.465189 
2182.000000	96.462731 
2181.000000	96.467137 
2180.000000	96.473878 
2179.000000	96.477238 
2178.000000	96.476491 
2177.000000	96.474971 
2176.000000	96.474758 
2175.000000	96.474597 
2174.000000	96.473006 
2173.000000	96.471413 
2172.000000	96.472851 
2171.000000	96.478088 
2170.000000	96.484103 
2169.000000	96.486600 
2168.000000	96.484007 
2167.000000	96.478707 
2166.000000	96.474075 
2165.000000	96.470510 
2164.000000	96.465310 
2163.000000	96.457345 
2162.000000	96.451514 
2161.000000	96.456560 
2160.000000	96.477172 
2159.000000	96.508204 
2158.000000	96.536988 
2157.000000	96.554228 
2156.000000	96.560372 
2155.000000	96.561426 
2154.000000	96.562332 
2153.000000	96.564882 
2152.000000	96.568835 
2151.000000	96.572119 
2150.000000	96.571357 
2149.000000	96.565282 
2148.000000	96.557413 
2147.000000	96.552759 
2146.000000	96.552209 
2145.000000	96.553113 
2144.000000	96.555209 
2143.000000	96.562067 
2142.000000	96.575241 
2141.000000	96.590346 
2140.000000	96.601486 
2139.000000	96.607591 
2138.000000	96.612080 
2137.000000	96.618097 
2136.000000	96.626171 
2135.000000	96.634901 
2134.000000	96.641211 
2133.000000	96.641232 
2132.000000	96.633871 
2131.000000	96.623370 
2130.000000	96.616436 
2129.000000	96.616147 
2128.000000	96.619612 
2127.000000	96.621601 
2126.000000	96.619629 
2125.000000	96.615452 
2124.000000	96.612292 
2123.000000	96.611092 
2122.000000	96.609871 
2121.000000	96.606591 
2120.000000	96.601814 
2119.000000	96.597712 
2118.000000	96.595169 
2117.000000	96.593141 
2116.000000	96.590459 
2115.000000	96.586604 
2114.000000	96.580948 
2113.000000	96.573671 
2112.000000	96.567800 
2111.000000	96.567479 
2110.000000	96.572887 
2109.000000	96.578940 
2108.000000	96.580769 
2107.000000	96.578961 
2106.000000	96.577536 
2105.000000	96.578546 
2104.000000	96.580741 
2103.000000	96.582162 
2102.000000	96.581428 
2101.000000	96.577160 
2100.000000	96.568980 
2099.000000	96.559561 
2098.000000	96.553654 
2097.000000	96.554175 
2096.000000	96.560192 
2095.000000	96.568345 
2094.000000	96.575104 
2093.000000	96.577926 
2092.000000	96.575827 
2091.000000	96.569824 
2090.000000	96.562513 
2089.000000	96.556172 
2088.000000	96.550901 
2087.000000	96.544815 
2086.000000	96.536085 
2085.000000	96.525067 
2084.000000	96.514695 
2083.000000	96.508316 
2082.000000	96.506763 
2081.000000	96.507861 
2080.000000	96.508892 
2079.000000	96.508761 
2078.000000	96.507158 
2077.000000	96.503345 
2076.000000	96.497514 
2075.000000	96.492137 
2074.000000	96.489245 
2073.000000	96.486845 
2072.000000	96.480742 
2071.000000	96.470270 
2070.000000	96.459934 
2069.000000	96.454287 
2068.000000	96.453375 
2067.000000	96.454313 
2066.000000	96.455298 
2065.000000	96.456223 
2064.000000	96.456528 
2063.000000	96.455177 
2062.000000	96.452983 
2061.000000	96.453068 
2060.000000	96.457766 
2059.000000	96.465500 
2058.000000	96.471336 
2057.000000	96.471012 
2056.000000	96.463974 
2055.000000	96.452324 
2054.000000	96.438629 
2053.000000	96.425499 
2052.000000	96.415836 
2051.000000	96.411295 
2050.000000	96.410334 
2049.000000	96.409460 
2048.000000	96.407057 
2047.000000	96.404629 
2046.000000	96.403790 
2045.000000	96.404273 
2044.000000	96.405814 
2043.000000	96.409579 
2042.000000	96.415931 
2041.000000	96.422546 
2040.000000	96.426875 
2039.000000	96.429294 
2038.000000	96.431479 
2037.000000	96.432936 
2036.000000	96.431748 
2035.000000	96.428276 
2034.000000	96.425709 
2033.000000	96.426605 
2032.000000	96.430764 
2031.000000	96.436508 
2030.000000	96.442025 
2029.000000	96.445236 
2028.000000	96.444474 
2027.000000	96.440185 
2026.000000	96.435013 
2025.000000	96.431757 
2024.000000	96.431755 
2023.000000	96.435311 
2022.000000	96.442274 
2021.000000	96.451075 
2020.000000	96.458117 
2019.000000	96.459679 
2018.000000	96.454558 
2017.000000	96.445151 
2016.000000	96.436289 
2015.000000	96.432040 
2014.000000	96.433078 
2013.000000	96.436204 
2012.000000	96.437088 
2011.000000	96.434968 
2010.000000	96.433744 
2009.000000	96.437577 
2008.000000	96.446154 
2007.000000	96.455083 
2006.000000	96.460334 
2005.000000	96.460685 
2004.000000	96.456934 
2003.000000	96.450934 
2002.000000	96.445235 
2001.000000	96.441631 
2000.000000	96.439192 
1999.000000	96.434617 
1998.000000	96.425412 
1997.000000	96.413148 
1996.000000	96.402998 
1995.000000	96.399239 
1994.000000	96.401320 
1993.000000	96.404198 
1992.000000	96.403097 
1991.000000	96.398445 
1990.000000	96.395009 
1989.000000	96.396020 
1988.000000	96.399327 
1987.000000	96.399660 
1986.000000	96.394123 
1985.000000	96.384662 
1984.000000	96.375191 
1983.000000	96.367196 
1982.000000	96.359437 
1981.000000	96.351674 
1980.000000	96.347353 
1979.000000	96.350703 
1978.000000	96.361177 
1977.000000	96.372623 
1976.000000	96.379271 
1975.000000	96.381572 
1974.000000	96.384237 
1973.000000	96.390095 
1972.000000	96.397414 
1971.000000	96.402566 
1970.000000	96.403408 
1969.000000	96.399630 
1968.000000	96.391962 
1967.000000	96.383014 
1966.000000	96.377949 
1965.000000	96.380999 
1964.000000	96.391446 
1963.000000	96.403890 
1962.000000	96.412903 
1961.000000	96.417565 
1960.000000	96.420093 
1959.000000	96.421819 
1958.000000	96.422290 
1957.000000	96.421824 
1956.000000	96.422416 
1955.000000	96.425380 
1954.000000	96.429706 
1953.000000	96.433524 
1952.000000	96.436018 
1951.000000	96.437344 
1950.000000	96.438005 
1949.000000	96.439070 
1948.000000	96.441958 
1947.000000	96.446951 
1946.000000	96.452431 
1945.000000	96.456472 
1944.000000	96.458834 
1943.000000	96.460625 
1942.000000	96.462532 
1941.000000	96.464240 
1940.000000	96.465490 
1939.000000	96.466606 
1938.000000	96.468079 
1937.000000	96.470223 
1936.000000	96.473071 
1935.000000	96.476174 
1934.000000	96.478633 
1933.000000	96.479908 
1932.000000	96.480663 
1931.000000	96.482204 
1930.000000	96.484966 
1929.000000	96.488039 
1928.000000	96.490680 
1927.000000	96.493292 
1926.000000	96.496264 
1925.000000	96.498771 
1924.000000	96.499638 
1923.000000	96.498798 
1922.000000	96.496996 
1921.000000	96.494873 
1920.000000	96.493089 
1919.000000	96.492599 
1918.000000	96.493574 
1917.000000	96.494490 
1916.000000	96.493973 
1915.000000	96.492639 
1914.000000	96.491666 
1913.000000	96.491026 
1912.000000	96.490146 
1911.000000	96.489450 
1910.000000	96.489896 
1909.000000	96.491356 
1908.000000	96.493088 
1907.000000	96.494894 
1906.000000	96.496444 
1905.000000	96.496249 
1904.000000	96.493087 
1903.000000	96.488446 
1902.000000	96.485430 
1901.000000	96.485208 
1900.000000	96.486474 
1899.000000	96.487667 
1898.000000	96.488327 
1897.000000	96.488290 
1896.000000	96.486913 
1895.000000	96.484013 
1894.000000	96.480415 
1893.000000	96.477090 
1892.000000	96.474703 
1891.000000	96.474079 
1890.000000	96.475755 
1889.000000	96.478831 
1888.000000	96.481555 
1887.000000	96.483327 
1886.000000	96.484597 
1885.000000	96.485247 
1884.000000	96.484564 
1883.000000	96.482784 
1882.000000	96.481456 
1881.000000	96.481817 
1880.000000	96.483601 
1879.000000	96.485437 
1878.000000	96.486205 
1877.000000	96.486191 
1876.000000	96.486771 
1875.000000	96.489050 
1874.000000	96.492913 
1873.000000	96.497099 
1872.000000	96.500278 
1871.000000	96.501974 
1870.000000	96.502509 
1869.000000	96.502859 
1868.000000	96.504400 
1867.000000	96.508023 
1866.000000	96.513038 
1865.000000	96.517280 
1864.000000	96.519207 
1863.000000	96.519495 
1862.000000	96.520240 
1861.000000	96.522763 
1860.000000	96.526908 
1859.000000	96.532029 
1858.000000	96.537316 
1857.000000	96.541535 
1856.000000	96.544118 
1855.000000	96.546199 
1854.000000	96.549269 
1853.000000	96.553033 
1852.000000	96.556535 
1851.000000	96.560369 
1850.000000	96.565731 
1849.000000	96.572316 
1848.000000	96.578238 
1847.000000	96.582333 
1846.000000	96.584989 
1845.000000	96.587028 
1844.000000	96.589018 
1843.000000	96.591307 
1842.000000	96.593960 
1841.000000	96.596528 
1840.000000	96.599016 
1839.000000	96.602200 
1838.000000	96.606430 
1837.000000	96.610411 
1836.000000	96.612810 
1835.000000	96.614807 
1834.000000	96.618225 
1833.000000	96.622485 
1832.000000	96.626071 
1831.000000	96.628986 
1830.000000	96.632429 
1829.000000	96.636605 
1828.000000	96.640185 
1827.000000	96.642336 
1826.000000	96.642931 
1825.000000	96.642367 
1824.000000	96.641550 
1823.000000	96.641690 
1822.000000	96.643406 
1821.000000	96.645359 
1820.000000	96.645472 
1819.000000	96.643873 
1818.000000	96.643720 
1817.000000	96.646932 
1816.000000	96.651048 
1815.000000	96.653448 
1814.000000	96.654596 
1813.000000	96.656166 
1812.000000	96.657871 
1811.000000	96.657874 
1810.000000	96.656360 
1809.000000	96.654725 
1808.000000	96.653235 
1807.000000	96.652222 
1806.000000	96.652756 
1805.000000	96.654533 
1804.000000	96.655124 
1803.000000	96.653162 
1802.000000	96.650201 
1801.000000	96.648986 
1800.000000	96.649888 
1799.000000	96.651179 
1798.000000	96.652412 
1797.000000	96.654007 
1796.000000	96.655908 
1795.000000	96.658123 
1794.000000	96.660658 
1793.000000	96.662794 
1792.000000	96.663403 
1791.000000	96.662920 
1790.000000	96.663400 
1789.000000	96.665598 
1788.000000	96.668445 
1787.000000	96.670668 
1786.000000	96.671977 
1785.000000	96.672753 
1784.000000	96.673328 
1783.000000	96.674025 
1782.000000	96.674992 
1781.000000	96.676249 
1780.000000	96.677794 
1779.000000	96.679532 
1778.000000	96.681400 
1777.000000	96.683224 
1776.000000	96.684807 
1775.000000	96.686101 
1774.000000	96.687215 
1773.000000	96.688394 
1772.000000	96.689755 
1771.000000	96.691197 
1770.000000	96.692648 
1769.000000	96.694116 
1768.000000	96.695612 
1767.000000	96.697141 
1766.000000	96.698699 
1765.000000	96.700280 
1764.000000	96.701872 
1763.000000	96.703448 
1762.000000	96.704979 
1761.000000	96.706476 
1760.000000	96.707975 
1759.000000	96.709469 
1758.000000	96.710908 
1757.000000	96.712286 
1756.000000	96.713745 
1755.000000	96.715362 
1754.000000	96.716903 
1753.000000	96.717970 
1752.000000	96.718463 
1751.000000	96.719012 
1750.000000	96.720378 
1749.000000	96.722602 
1748.000000	96.725065 
1747.000000	96.727326 
1746.000000	96.729066 
1745.000000	96.730275 
1744.000000	96.731241 
1743.000000	96.731873 
1742.000000	96.731958 
1741.000000	96.732039 
1740.000000	96.733122 
1739.000000	96.735387 
1738.000000	96.737822 
1737.000000	96.739312 
1736.000000	96.738953 
1735.000000	96.736407 
1734.000000	96.733459 
1733.000000	96.731762 
1732.000000	96.732373 
1731.000000	96.735946 
1730.000000	96.741309 
1729.000000	96.745438 
1728.000000	96.746769 
1727.000000	96.746643 
1726.000000	96.746821 
1725.000000	96.747680 
1724.000000	96.748007 
1723.000000	96.746911 
1722.000000	96.745430 
1721.000000	96.744188 
1720.000000	96.742315 
1719.000000	96.739297 
1718.000000	96.737290 
1717.000000	96.737294 
1716.000000	96.735476 
1715.000000	96.731144 
1714.000000	96.728246 
1713.000000	96.727993 
1712.000000	96.727533 
1711.000000	96.725641 
1710.000000	96.723929 
1709.000000	96.723028 
1708.000000	96.721505 
1707.000000	96.718698 
1706.000000	96.715944 
1705.000000	96.713275 
1704.000000	96.707818 
1703.000000	96.698669 
1702.000000	96.688116 
1701.000000	96.681328 
1700.000000	96.680631 
1699.000000	96.679826 
1698.000000	96.677571 
1697.000000	96.675985 
1696.000000	96.674728 
1695.000000	96.672986 
1694.000000	96.671055 
1693.000000	96.669462 
1692.000000	96.667647 
1691.000000	96.664996 
1690.000000	96.661571 
1689.000000	96.657509 
1688.000000	96.652936 
1687.000000	96.647943 
1686.000000	96.643163 
1685.000000	96.640532 
1684.000000	96.640074 
1683.000000	96.638594 
1682.000000	96.635473 
1681.000000	96.631806 
1680.000000	96.628642 
1679.000000	96.626203 
1678.000000	96.623838 
1677.000000	96.621086 
1676.000000	96.618605 
1675.000000	96.617029 
1674.000000	96.614933 
1673.000000	96.611533 
1672.000000	96.607785 
1671.000000	96.604628 
1670.000000	96.602063 
1669.000000	96.599237 
1668.000000	96.596635 
1667.000000	96.595182 
1666.000000	96.594020 
1665.000000	96.592440 
1664.000000	96.591458 
1663.000000	96.592358 
1662.000000	96.592850 
1661.000000	96.589458 
1660.000000	96.584173 
1659.000000	96.581246 
1658.000000	96.581218 
1657.000000	96.581341 
1656.000000	96.578764 
1655.000000	96.571456 
1654.000000	96.560748 
1653.000000	96.553995 
1652.000000	96.547601 
1651.000000	96.542258 
1650.000000	96.539199 
1649.000000	96.537529 
1648.000000	96.536213 
1647.000000	96.535646 
1646.000000	96.535055 
1645.000000	96.534170 
1644.000000	96.534036 
1643.000000	96.534869 
1642.000000	96.536109 
1641.000000	96.536684 
1640.000000	96.537136 
1639.000000	96.536987 
1638.000000	96.534753 
1637.000000	96.530232 
1636.000000	96.526379 
1635.000000	96.524740 
1634.000000	96.523562 
1633.000000	96.522949 
1632.000000	96.522457 
1631.000000	96.522552 
1630.000000	96.523933 
1629.000000	96.526199 
1628.000000	96.528707 
1627.000000	96.531613 
1626.000000	96.533658 
1625.000000	96.533391 
1624.000000	96.533090 
1623.000000	96.536263 
1622.000000	96.541008 
1621.000000	96.542961 
1620.000000	96.542938 
1619.000000	96.544305 
1618.000000	96.548735 
1617.000000	96.554433 
1616.000000	96.558487 
1615.000000	96.561873 
1614.000000	96.566104 
1613.000000	96.569299 
1612.000000	96.570316 
1611.000000	96.571136 
1610.000000	96.573280 
1609.000000	96.576933 
1608.000000	96.583437 
1607.000000	96.592682 
1606.000000	96.599675 
1605.000000	96.600951 
1604.000000	96.600902 
1603.000000	96.604919 
1602.000000	96.612376 
1601.000000	96.619803 
1600.000000	96.627197 
1599.000000	96.636215 
1598.000000	96.645409 
1597.000000	96.652152 
1596.000000	96.656578 
1595.000000	96.660721 
1594.000000	96.665084 
1593.000000	96.668679 
1592.000000	96.671726 
1591.000000	96.675278 
1590.000000	96.678907 
1589.000000	96.681719 
1588.000000	96.685137 
1587.000000	96.690937 
1586.000000	96.697211 
1585.000000	96.699817 
1584.000000	96.699525 
1583.000000	96.701054 
1582.000000	96.705217 
1581.000000	96.709338 
1580.000000	96.713052 
1579.000000	96.718083 
1578.000000	96.724740 
1577.000000	96.733352 
1576.000000	96.743962 
1575.000000	96.752705 
1574.000000	96.756148 
1573.000000	96.755754 
1572.000000	96.755832 
1571.000000	96.760112 
1570.000000	96.766662 
1569.000000	96.767465 
1568.000000	96.762763 
1567.000000	96.759359 
1566.000000	96.758602 
1565.000000	96.758200 
1564.000000	96.758660 
1563.000000	96.759115 
1562.000000	96.756874 
1561.000000	96.747506 
1560.000000	96.743336 
1559.000000	96.755785 
1558.000000	96.761726 
1557.000000	96.755615 
1556.000000	96.751269 
1555.000000	96.750786 
1554.000000	96.749956 
1553.000000	96.747320 
1552.000000	96.745051 
1551.000000	96.741401 
1550.000000	96.733955 
1549.000000	96.724555 
1548.000000	96.717940 
1547.000000	96.715678 
1546.000000	96.713099 
1545.000000	96.705401 
1544.000000	96.694098 
1543.000000	96.683957 
1542.000000	96.678306 
1541.000000	96.676982 
1540.000000	96.672185 
1539.000000	96.658905 
1538.000000	96.642704 
1537.000000	96.628235 
1536.000000	96.615406 
1535.000000	96.605182 
1534.000000	96.598522 
1533.000000	96.592777 
1532.000000	96.584037 
1531.000000	96.572861 
1530.000000	96.562214 
1529.000000	96.552465 
1528.000000	96.541315 
1527.000000	96.528286 
1526.000000	96.515630 
1525.000000	96.505675 
1524.000000	96.498980 
1523.000000	96.494106 
1522.000000	96.487590 
1521.000000	96.474515 
1520.000000	96.454992 
1519.000000	96.435473 
1518.000000	96.419661 
1517.000000	96.406632 
1516.000000	96.394351 
1515.000000	96.383426 
1514.000000	96.375440 
1513.000000	96.369585 
1512.000000	96.362819 
1511.000000	96.352549 
1510.000000	96.339690 
1509.000000	96.325815 
1508.000000	96.311931 
1507.000000	96.297560 
1506.000000	96.282513 
1505.000000	96.267534 
1504.000000	96.254027 
1503.000000	96.241542 
1502.000000	96.229279 
1501.000000	96.217062 
1500.000000	96.205223 
1499.000000	96.193241 
1498.000000	96.180414 
1497.000000	96.168126 
1496.000000	96.157219 
1495.000000	96.147459 
1494.000000	96.139850 
1493.000000	96.135390 
1492.000000	96.132937 
1491.000000	96.129203 
1490.000000	96.120829 
1489.000000	96.107425 
1488.000000	96.090789 
1487.000000	96.073568 
1486.000000	96.058514 
1485.000000	96.044629 
1484.000000	96.030696 
1483.000000	96.018045 
1482.000000	96.007564 
1481.000000	95.998510 
1480.000000	95.989291 
1479.000000	95.980058 
1478.000000	95.971497 
1477.000000	95.962530 
1476.000000	95.950313 
1475.000000	95.934305 
1474.000000	95.917675 
1473.000000	95.903986 
1472.000000	95.893481 
1471.000000	95.883832 
1470.000000	95.875292 
1469.000000	95.868549 
1468.000000	95.861743 
1467.000000	95.852713 
1466.000000	95.841763 
1465.000000	95.830532 
1464.000000	95.819702 
1463.000000	95.807745 
1462.000000	95.794985 
1461.000000	95.784919 
1460.000000	95.780651 
1459.000000	95.779862 
1458.000000	95.773138 
1457.000000	95.755146 
1456.000000	95.734691 
1455.000000	95.721175 
1454.000000	95.712864 
1453.000000	95.706431 
1452.000000	95.702240 
1451.000000	95.700893 
1450.000000	95.701391 
1449.000000	95.701943 
1448.000000	95.699976 
1447.000000	95.694939 
1446.000000	95.688781 
1445.000000	95.684668 
1444.000000	95.684782 
1443.000000	95.686406 
1442.000000	95.686840 
1441.000000	95.687263 
1440.000000	95.689726 
1439.000000	95.691134 
1438.000000	95.685207 
1437.000000	95.671383 
1436.000000	95.657379 
1435.000000	95.649321 
1434.000000	95.647880 
1433.000000	95.651492 
1432.000000	95.657236 
1431.000000	95.661718 
1430.000000	95.663502 
1429.000000	95.665059 
1428.000000	95.668166 
1427.000000	95.672993 
1426.000000	95.679336 
1425.000000	95.688035 
1424.000000	95.700698 
1423.000000	95.713168 
1422.000000	95.720825 
1421.000000	95.725548 
1420.000000	95.731807 
1419.000000	95.736390 
1418.000000	95.733616 
1417.000000	95.731165 
1416.000000	95.738711 
1415.000000	95.753019 
1414.000000	95.764225 
1413.000000	95.769136 
1412.000000	95.774072 
1411.000000	95.783425 
1410.000000	95.794496 
1409.000000	95.805285 
1408.000000	95.816910 
1407.000000	95.829998 
1406.000000	95.843056 
1405.000000	95.856308 
1404.000000	95.873201 
1403.000000	95.892291 
1402.000000	95.908885 
1401.000000	95.923469 
1400.000000	95.940874 
1399.000000	95.962001 
1398.000000	95.981918 
1397.000000	95.998919 
1396.000000	96.016693 
1395.000000	96.037640 
1394.000000	96.058154 
1393.000000	96.075849 
1392.000000	96.094599 
1391.000000	96.116160 
1390.000000	96.137330 
1389.000000	96.154739 
1388.000000	96.167785 
1387.000000	96.177533 
1386.000000	96.185516 
1385.000000	96.194920 
1384.000000	96.209343 
1383.000000	96.228068 
1382.000000	96.246526 
1381.000000	96.261611 
1380.000000	96.273946 
1379.000000	96.286195 
1378.000000	96.300365 
1377.000000	96.316860 
1376.000000	96.334581 
1375.000000	96.351149 
1374.000000	96.364053 
1373.000000	96.374249 
1372.000000	96.385693 
1371.000000	96.400636 
1370.000000	96.416599 
1369.000000	96.428932 
1368.000000	96.437459 
1367.000000	96.446569 
1366.000000	96.460123 
1365.000000	96.478245 
1364.000000	96.496907 
1363.000000	96.510438 
1362.000000	96.516726 
1361.000000	96.519852 
1360.000000	96.526165 
1359.000000	96.538869 
1358.000000	96.556383 
1357.000000	96.574499 
1356.000000	96.589890 
1355.000000	96.601671 
1354.000000	96.610645 
1353.000000	96.618480 
1352.000000	96.625629 
1351.000000	96.632377 
1350.000000	96.639648 
1349.000000	96.647535 
1348.000000	96.655937 
1347.000000	96.664791 
1346.000000	96.674097 
1345.000000	96.683803 
1344.000000	96.693969 
1343.000000	96.704696 
1342.000000	96.715052 
1341.000000	96.722302 
1340.000000	96.723843 
1339.000000	96.720798 
1338.000000	96.717905 
1337.000000	96.719293 
1336.000000	96.725391 
1335.000000	96.733775 
1334.000000	96.741769 
1333.000000	96.747754 
1332.000000	96.750824 
1331.000000	96.751311 
1330.000000	96.751251 
1329.000000	96.753020 
1328.000000	96.757062 
1327.000000	96.762095 
1326.000000	96.766443 
1325.000000	96.768580 
1324.000000	96.767996 
1323.000000	96.765229 
1322.000000	96.761751 
1321.000000	96.759304 
1320.000000	96.758550 
1319.000000	96.758595 
1318.000000	96.758715 
1317.000000	96.759909 
1316.000000	96.763002 
1315.000000	96.766151 
1314.000000	96.766588 
1313.000000	96.764845 
1312.000000	96.764254 
1311.000000	96.765784 
1310.000000	96.766401 
1309.000000	96.764204 
1308.000000	96.761942 
1307.000000	96.763657 
1306.000000	96.768979 
1305.000000	96.773378 
1304.000000	96.773897 
1303.000000	96.771334 
1302.000000	96.767844 
1301.000000	96.764752 
1300.000000	96.762936 
1299.000000	96.763145 
1298.000000	96.765027 
1297.000000	96.766910 
1296.000000	96.767340 
1295.000000	96.766637 
1294.000000	96.766187 
1293.000000	96.766632 
1292.000000	96.767105 
1291.000000	96.766281 
1290.000000	96.764316 
1289.000000	96.763194 
1288.000000	96.764412 
1287.000000	96.766653 
1286.000000	96.766986 
1285.000000	96.764636 
1284.000000	96.762130 
1283.000000	96.761844 
1282.000000	96.762889 
1281.000000	96.762599 
1280.000000	96.760390 
1279.000000	96.758731 
1278.000000	96.760446 
1277.000000	96.765909 
1276.000000	96.772438 
1275.000000	96.776013 
1274.000000	96.774071 
1273.000000	96.767711 
1272.000000	96.761073 
1271.000000	96.757820 
1270.000000	96.758391 
1269.000000	96.760858 
1268.000000	96.763333 
1267.000000	96.764263 
1266.000000	96.761910 
1265.000000	96.756228 
1264.000000	96.750578 
1263.000000	96.749085 
1262.000000	96.752348 
1261.000000	96.757531 
1260.000000	96.762815 
1259.000000	96.769069 
1258.000000	96.776037 
1257.000000	96.779706 
1256.000000	96.775855 
1255.000000	96.765886 
1254.000000	96.757267 
1253.000000	96.756835 
1252.000000	96.764059 
1251.000000	96.771915 
1250.000000	96.774229 
1249.000000	96.771019 
1248.000000	96.766504 
1247.000000	96.763388 
1246.000000	96.760814 
1245.000000	96.757362 
1244.000000	96.753389 
1243.000000	96.749698 
1242.000000	96.745974 
1241.000000	96.741722 
1240.000000	96.737238 
1239.000000	96.732436 
1238.000000	96.725931 
1237.000000	96.716513 
1236.000000	96.704607 
1235.000000	96.691377 
1234.000000	96.677291 
1233.000000	96.662298 
1232.000000	96.646269 
1231.000000	96.628578 
1230.000000	96.608691 
1229.000000	96.587738 
1228.000000	96.567296 
1227.000000	96.545489 
1226.000000	96.516739 
1225.000000	96.477350 
1224.000000	96.429509 
1223.000000	96.377808 
1222.000000	96.323716 
1221.000000	96.266081 
1220.000000	96.205429 
1219.000000	96.144127 
1218.000000	96.082493 
1217.000000	96.017887 
1216.000000	95.947711 
1215.000000	95.871016 
1214.000000	95.788173 
1213.000000	95.702115 
1212.000000	95.618702 
1211.000000	95.541255 
1210.000000	95.464953 
1209.000000	95.381459 
1208.000000	95.289649 
1207.000000	95.197175 
1206.000000	95.110303 
1205.000000	95.026879 
1204.000000	94.941605 
1203.000000	94.853759 
1202.000000	94.766586 
1201.000000	94.682217 
1200.000000	94.600230 
1199.000000	94.519137 
1198.000000	94.436783 
1197.000000	94.351265 
1196.000000	94.263321 
1195.000000	94.176183 
1194.000000	94.091599 
1193.000000	94.007467 
1192.000000	93.920577 
1191.000000	93.829918 
1190.000000	93.736269 
1189.000000	93.640254 
1188.000000	93.541835 
1187.000000	93.440524 
1186.000000	93.335697 
1185.000000	93.227780 
1184.000000	93.118714 
1183.000000	93.009804 
1182.000000	92.900107 
1181.000000	92.788700 
1180.000000	92.676768 
1179.000000	92.564504 
1178.000000	92.447745 
1177.000000	92.321764 
1176.000000	92.187193 
1175.000000	92.048189 
1174.000000	91.906231 
1173.000000	91.760531 
1172.000000	91.613322 
1171.000000	91.468594 
1170.000000	91.325975 
1169.000000	91.182369 
1168.000000	91.040128 
1167.000000	90.907578 
1166.000000	90.791494 
1165.000000	90.696248 
1164.000000	90.630626 
1163.000000	90.606443 
1162.000000	90.626613 
1161.000000	90.679553 
1160.000000	90.746415 
1159.000000	90.808579 
1158.000000	90.848786 
1157.000000	90.853998 
1156.000000	90.821293 
1155.000000	90.757124 
1154.000000	90.669351 
1153.000000	90.563482 
1152.000000	90.446320 
1151.000000	90.326836 
1150.000000	90.211004 
1149.000000	90.100264 
1148.000000	89.995888 
1147.000000	89.899104 
1146.000000	89.806005 
1145.000000	89.708797 
1144.000000	89.604145 
1143.000000	89.495245 
1142.000000	89.384921 
1141.000000	89.272528 
1140.000000	89.158499 
1139.000000	89.045695 
1138.000000	88.935021 
1137.000000	88.825225 
1136.000000	88.716969 
1135.000000	88.610725 
1134.000000	88.501328 
1133.000000	88.382537 
1132.000000	88.257024 
1131.000000	88.133743 
1130.000000	88.015187 
1129.000000	87.895955 
1128.000000	87.774287 
1127.000000	87.655028 
1126.000000	87.539395 
1125.000000	87.421459 
1124.000000	87.297418 
1123.000000	87.169737 
1122.000000	87.040095 
1121.000000	86.907394 
1120.000000	86.775021 
1119.000000	86.650360 
1118.000000	86.533956 
1117.000000	86.418349 
1116.000000	86.299914 
1115.000000	86.182654 
1114.000000	86.068713 
1113.000000	85.955439 
1112.000000	85.843646 
1111.000000	85.737582 
1110.000000	85.634521 
1109.000000	85.526079 
1108.000000	85.411769 
1107.000000	85.299393 
1106.000000	85.190625 
1105.000000	85.078668 
1104.000000	84.962160 
1103.000000	84.848593 
1102.000000	84.740578 
1101.000000	84.632249 
1100.000000	84.521174 
1099.000000	84.411845 
1098.000000	84.305189 
1097.000000	84.196384 
1096.000000	84.086284 
1095.000000	83.981788 
1094.000000	83.883031 
1093.000000	83.783637 
1092.000000	83.685705 
1091.000000	83.599976 
1090.000000	83.528188 
1089.000000	83.459519 
1088.000000	83.387455 
1087.000000	83.315950 
1086.000000	83.246590 
1085.000000	83.175106 
1084.000000	83.103746 
1083.000000	83.041513 
1082.000000	82.988316 
1081.000000	82.934072 
1080.000000	82.876924 
1079.000000	82.826186 
1078.000000	82.782778 
1077.000000	82.732965 
1076.000000	82.667174 
1075.000000	82.589870 
1074.000000	82.505761 
1073.000000	82.411047 
1072.000000	82.303412 
1071.000000	82.185807 
1070.000000	82.054593 
1069.000000	81.898177 
1068.000000	81.713670 
1067.000000	81.512780 
1066.000000	81.306913 
1065.000000	81.098919 
1064.000000	80.892941 
1063.000000	80.696761 
1062.000000	80.508437 
1061.000000	80.315317 
1060.000000	80.112622 
1059.000000	79.910089 
1058.000000	79.715792 
1057.000000	79.526899 
1056.000000	79.340163 
1055.000000	79.156566 
1054.000000	78.970906 
1053.000000	78.771927 
1052.000000	78.558823 
1051.000000	78.343653 
1050.000000	78.132337 
1049.000000	77.918804 
1048.000000	77.701253 
1047.000000	77.485715 
1046.000000	77.270985 
1045.000000	77.048576 
1044.000000	76.819283 
1043.000000	76.592407 
1042.000000	76.367697 
1041.000000	76.135942 
1040.000000	75.898904 
1039.000000	75.669961 
1038.000000	75.453017 
1037.000000	75.240224 
1036.000000	75.032823 
1035.000000	74.844043 
1034.000000	74.678398 
1033.000000	74.527993 
1032.000000	74.391450 
1031.000000	74.275491 
1030.000000	74.175337 
1029.000000	74.075796 
1028.000000	73.975832 
1027.000000	73.890618 
1026.000000	73.825353 
1025.000000	73.767991 
1024.000000	73.710812 
1023.000000	73.657707 
1022.000000	73.606930 
1021.000000	73.548816 
1020.000000	73.484464 
1019.000000	73.425553 
1018.000000	73.372699 
1017.000000	73.314837 
1016.000000	73.251594 
1015.000000	73.194073 
1014.000000	73.142104 
1013.000000	73.084247 
1012.000000	73.022247 
1011.000000	72.971199 
1010.000000	72.933055 
1009.000000	72.894886 
1008.000000	72.856466 
1007.000000	72.833919 
1006.000000	72.831691 
1005.000000	72.836200 
1004.000000	72.841834 
1003.000000	72.857923 
1002.000000	72.884639 
1001.000000	72.907867 
1000.000000	72.924883 
999.000000	 72.950442 
998.000000	 72.990011 
997.000000	 73.030680 
996.000000	 73.065876 
995.000000	 73.106342 
994.000000	 73.159153 
993.000000	 73.218008 
992.000000	 73.280829 
991.000000	 73.354773 
990.000000	 73.437345 
989.000000	 73.514811 
988.000000	 73.586195 
987.000000	 73.667345 
986.000000	 73.765243 
985.000000	 73.870359 
984.000000	 73.979902 
983.000000	 74.105410 
982.000000	 74.249963 
981.000000	 74.400472 
980.000000	 74.550544 
979.000000	 74.709876 
978.000000	 74.883231 
977.000000	 75.061257 
976.000000	 75.240000 
975.000000	 75.429373 
974.000000	 75.634218 
973.000000	 75.846163 
972.000000	 76.061557 
971.000000	 76.288675 
970.000000	 76.529673 
969.000000	 76.773154 
968.000000	 77.011414 
967.000000	 77.248407 
966.000000	 77.485538 
965.000000	 77.717212 
964.000000	 77.945472 
963.000000	 78.181023 
962.000000	 78.423949 
961.000000	 78.660343 
960.000000	 78.883197 
959.000000	 79.099923 
958.000000	 79.314983 
957.000000	 79.522662 
956.000000	 79.722260 
955.000000	 79.923070 
954.000000	 80.128191 
953.000000	 80.328980 
952.000000	 80.520352 
951.000000	 80.705881 
950.000000	 80.884265 
949.000000	 81.047634 
948.000000	 81.197835 
947.000000	 81.347610 
946.000000	 81.500213 
945.000000	 81.643705 
944.000000	 81.770535 
943.000000	 81.887271 
942.000000	 82.000785 
941.000000	 82.110589 
940.000000	 82.219473 
939.000000	 82.335053 
938.000000	 82.455158 
937.000000	 82.567937 
936.000000	 82.672431 
935.000000	 82.783321 
934.000000	 82.909025 
933.000000	 83.040434 
932.000000	 83.167759 
931.000000	 83.293072 
930.000000	 83.419420 
929.000000	 83.542426 
928.000000	 83.660562 
927.000000	 83.780467 
926.000000	 83.904125 
925.000000	 84.022202 
924.000000	 84.127102 
923.000000	 84.222814 
922.000000	 84.316914 
921.000000	 84.412333 
920.000000	 84.510012 
919.000000	 84.608975 
918.000000	 84.701373 
917.000000	 84.779188 
916.000000	 84.848539 
915.000000	 84.926215 
914.000000	 85.020566 
913.000000	 85.127455 
912.000000	 85.244923 
911.000000	 85.377429 
910.000000	 85.524113 
909.000000	 85.677928 
908.000000	 85.839365 
907.000000	 86.017484 
906.000000	 86.215355 
905.000000	 86.427314 
904.000000	 86.650351 
903.000000	 86.883754 
902.000000	 87.118507 
901.000000	 87.343733 
900.000000	 87.564191 
899.000000	 87.794963 
898.000000	 88.037983 
897.000000	 88.279718 
896.000000	 88.511929 
895.000000	 88.737079 
894.000000	 88.952582 
893.000000	 89.148977 
892.000000	 89.327489 
891.000000	 89.501998 
890.000000	 89.678226 
889.000000	 89.845545 
888.000000	 89.993566 
887.000000	 90.122266 
886.000000	 90.233152 
885.000000	 90.326292 
884.000000	 90.409784 
883.000000	 90.495894 
882.000000	 90.583230 
881.000000	 90.659581 
880.000000	 90.727087 
879.000000	 90.805922 
878.000000	 90.906395 
877.000000	 91.017157 
876.000000	 91.130052 
875.000000	 91.257391 
874.000000	 91.413410 
873.000000	 91.595868 
872.000000	 91.796354 
871.000000	 92.012223 
870.000000	 92.237843 
869.000000	 92.459156 
868.000000	 92.667830 
867.000000	 92.869321 
866.000000	 93.069210 
865.000000	 93.263304 
864.000000	 93.448265 
863.000000	 93.629813 
862.000000	 93.812196 
861.000000	 93.990194 
860.000000	 94.159370 
859.000000	 94.323935 
858.000000	 94.486799 
857.000000	 94.641953 
856.000000	 94.784854 
855.000000	 94.920832 
854.000000	 95.054228 
853.000000	 95.177407 
852.000000	 95.280281 
851.000000	 95.365320 
850.000000	 95.445522 
849.000000	 95.531801 
848.000000	 95.627449 
847.000000	 95.728917 
846.000000	 95.826101 
845.000000	 95.906804 
844.000000	 95.965737 
843.000000	 96.006047 
842.000000	 96.031785 
841.000000	 96.045409 
840.000000	 96.052313 
839.000000	 96.057594 
838.000000	 96.056263 
837.000000	 96.037778 
836.000000	 96.004537 
835.000000	 95.975498 
834.000000	 95.965832 
833.000000	 95.972119 
832.000000	 95.982718 
831.000000	 95.992203 
830.000000	 95.999609 
829.000000	 96.004505 
828.000000	 96.014821 
827.000000	 96.048539 
826.000000	 96.114418 
825.000000	 96.196561 
824.000000	 96.268741 
823.000000	 96.318933 
822.000000	 96.352519 
821.000000	 96.379131 
820.000000	 96.404379 
819.000000	 96.426848 
818.000000	 96.434890 
817.000000	 96.411445 
816.000000	 96.347905 
815.000000	 96.249675 
814.000000	 96.124956 
813.000000	 95.972433 
812.000000	 95.781976 
811.000000	 95.540098 
810.000000	 95.230883 
809.000000	 94.840032 
808.000000	 94.366124 
807.000000	 93.825531 
806.000000	 93.243037 
805.000000	 92.641962 
804.000000	 92.044685 
803.000000	 91.472466 
802.000000	 90.939592 
801.000000	 90.457676 
800.000000	 90.048661 
799.000000	 89.739122 
798.000000	 89.536264 
797.000000	 89.423937 
796.000000	 89.385675 
795.000000	 89.413248 
794.000000	 89.488386 
793.000000	 89.578970 
792.000000	 89.664352 
791.000000	 89.746978 
790.000000	 89.829184 
789.000000	 89.894783 
788.000000	 89.923090 
787.000000	 89.905447 
786.000000	 89.837654 
785.000000	 89.710993 
784.000000	 89.524078 
783.000000	 89.294207 
782.000000	 89.047285 
781.000000	 88.806104 
780.000000	 88.595482 
779.000000	 88.444344 
778.000000	 88.370237 
777.000000	 88.371143 
776.000000	 88.439813 
775.000000	 88.573347 
774.000000	 88.760707 
773.000000	 88.975061 
772.000000	 89.189782 
771.000000	 89.393469 
770.000000	 89.583823 
769.000000	 89.758310 
768.000000	 89.916571 
767.000000	 90.059941 
766.000000	 90.182296 
765.000000	 90.273837 
764.000000	 90.341027 
763.000000	 90.410042 
762.000000	 90.501009 
761.000000	 90.608704 
760.000000	 90.716381 
759.000000	 90.817879 
758.000000	 90.917828 
757.000000	 91.021236 
756.000000	 91.133596 
755.000000	 91.262945 
754.000000	 91.410025 
753.000000	 91.559649 
752.000000	 91.689772 
751.000000	 91.788508 
750.000000	 91.861772 
749.000000	 91.929604 
748.000000	 92.014790 
747.000000	 92.126152 
746.000000	 92.250304 
745.000000	 92.366981 
744.000000	 92.473561 
743.000000	 92.586509 
742.000000	 92.719317 
741.000000	 92.870208 
740.000000	 93.032036 
739.000000	 93.200711 
738.000000	 93.369364 
737.000000	 93.525506 
736.000000	 93.660093 
735.000000	 93.773047 
734.000000	 93.867934 
733.000000	 93.948818 
732.000000	 94.022477 
731.000000	 94.093924 
730.000000	 94.157551 
729.000000	 94.201549 
728.000000	 94.225902 
727.000000	 94.247403 
726.000000	 94.283782 
725.000000	 94.342862 
724.000000	 94.425928 
723.000000	 94.527956 
722.000000	 94.633311 
721.000000	 94.725590 
720.000000	 94.806478 
719.000000	 94.891472 
718.000000	 94.984134 
717.000000	 95.070176 
716.000000	 95.137458 
715.000000	 95.187853 
714.000000	 95.229515 
713.000000	 95.271480 
712.000000	 95.328170 
711.000000	 95.411106 
710.000000	 95.509806 
709.000000	 95.598006 
708.000000	 95.662635 
707.000000	 95.712504 
706.000000	 95.751868 
705.000000	 95.765781 
704.000000	 95.741364 
703.000000	 95.681267 
702.000000	 95.585054 
701.000000	 95.434066 
700.000000	 95.209199 
699.000000	 94.916546 
698.000000	 94.584590 
697.000000	 94.251710 
696.000000	 93.967323 
695.000000	 93.784048 
694.000000	 93.731812 
693.000000	 93.800549 
692.000000	 93.953275 
691.000000	 94.152064 
690.000000	 94.365967 
689.000000	 94.570732 
688.000000	 94.754175 
687.000000	 94.913703 
686.000000	 95.045527 
685.000000	 95.145303 
684.000000	 95.222290 
683.000000	 95.299275 
682.000000	 95.388520 
681.000000	 95.480983 
680.000000	 95.564383 
679.000000	 95.642340 
678.000000	 95.721901 
677.000000	 95.799252 
676.000000	 95.877677 
675.000000	 95.966960 
674.000000	 96.060564 
673.000000	 96.138521 
672.000000	 96.199042 
671.000000	 96.280965 
670.000000	 96.435785 
669.000000	 96.674150 
668.000000	 96.854329 
667.000000	 96.830876 
666.000000	 96.710392 
665.000000	 96.623654 
664.000000	 96.585892 
663.000000	 96.593591 
662.000000	 96.640151 
661.000000	 96.695713 
660.000000	 96.735991 
659.000000	 96.765894 
658.000000	 96.797317 
657.000000	 96.819477 
656.000000	 96.823486 
655.000000	 96.817326 
654.000000	 96.804573 
653.000000	 96.775515 
652.000000	 96.734648 
651.000000	 96.710636 
650.000000	 96.718462 

