4000.000000	97.460706 
3999.000000	97.459292 
3998.000000	97.456324 
3997.000000	97.452411 
3996.000000	97.448621 
3995.000000	97.446044 
3994.000000	97.445303 
3993.000000	97.446090 
3992.000000	97.447297 
3991.000000	97.447823 
3990.000000	97.447339 
3989.000000	97.446258 
3988.000000	97.445138 
3987.000000	97.444354 
3986.000000	97.444168 
3985.000000	97.444683 
3984.000000	97.445628 
3983.000000	97.446494 
3982.000000	97.447132 
3981.000000	97.447822 
3980.000000	97.448529 
3979.000000	97.448490 
3978.000000	97.446995 
3977.000000	97.444373 
3976.000000	97.441909 
3975.000000	97.440516 
3974.000000	97.439960 
3973.000000	97.439426 
3972.000000	97.438359 
3971.000000	97.436726 
3970.000000	97.434879 
3969.000000	97.433560 
3968.000000	97.433574 
3967.000000	97.435174 
3966.000000	97.437652 
3965.000000	97.439536 
3964.000000	97.439505 
3963.000000	97.437292 
3962.000000	97.433979 
3961.000000	97.431288 
3960.000000	97.430032 
3959.000000	97.429579 
3958.000000	97.428844 
3957.000000	97.427579 
3956.000000	97.426244 
3955.000000	97.425108 
3954.000000	97.424017 
3953.000000	97.422807 
3952.000000	97.421605 
3951.000000	97.420536 
3950.000000	97.419528 
3949.000000	97.418448 
3948.000000	97.417363 
3947.000000	97.416651 
3946.000000	97.416575 
3945.000000	97.416743 
3944.000000	97.416358 
3943.000000	97.415330 
3942.000000	97.414658 
3941.000000	97.415266 
3940.000000	97.416919 
3939.000000	97.418522 
3938.000000	97.419254 
3937.000000	97.419305 
3936.000000	97.419068 
3935.000000	97.418151 
3934.000000	97.415919 
3933.000000	97.412658 
3932.000000	97.409736 
3931.000000	97.408073 
3930.000000	97.407488 
3929.000000	97.407632 
3928.000000	97.408392 
3927.000000	97.409373 
3926.000000	97.409631 
3925.000000	97.408944 
3924.000000	97.408242 
3923.000000	97.408116 
3922.000000	97.408085 
3921.000000	97.407702 
3920.000000	97.407281 
3919.000000	97.407216 
3918.000000	97.407278 
3917.000000	97.407091 
3916.000000	97.406698 
3915.000000	97.406328 
3914.000000	97.406010 
3913.000000	97.405679 
3912.000000	97.405331 
3911.000000	97.404988 
3910.000000	97.404641 
3909.000000	97.404283 
3908.000000	97.403914 
3907.000000	97.403523 
3906.000000	97.403099 
3905.000000	97.402645 
3904.000000	97.402176 
3903.000000	97.401709 
3902.000000	97.401259 
3901.000000	97.400826 
3900.000000	97.400408 
3899.000000	97.399999 
3898.000000	97.399604 
3897.000000	97.399220 
3896.000000	97.398842 
3895.000000	97.398468 
3894.000000	97.398103 
3893.000000	97.397751 
3892.000000	97.397409 
3891.000000	97.397070 
3890.000000	97.396731 
3889.000000	97.396394 
3888.000000	97.396051 
3887.000000	97.395687 
3886.000000	97.395295 
3885.000000	97.394882 
3884.000000	97.394459 
3883.000000	97.394020 
3882.000000	97.393562 
3881.000000	97.393094 
3880.000000	97.392643 
3879.000000	97.392228 
3878.000000	97.391850 
3877.000000	97.391489 
3876.000000	97.391127 
3875.000000	97.390760 
3874.000000	97.390395 
3873.000000	97.390042 
3872.000000	97.389694 
3871.000000	97.389342 
3870.000000	97.388991 
3869.000000	97.388661 
3868.000000	97.388363 
3867.000000	97.388084 
3866.000000	97.387809 
3865.000000	97.387544 
3864.000000	97.387310 
3863.000000	97.387106 
3862.000000	97.386911 
3861.000000	97.386709 
3860.000000	97.386501 
3859.000000	97.386291 
3858.000000	97.386075 
3857.000000	97.385853 
3856.000000	97.385629 
3855.000000	97.385401 
3854.000000	97.385170 
3853.000000	97.384946 
3852.000000	97.384734 
3851.000000	97.384535 
3850.000000	97.384349 
3849.000000	97.384177 
3848.000000	97.384016 
3847.000000	97.383863 
3846.000000	97.383713 
3845.000000	97.383566 
3844.000000	97.383428 
3843.000000	97.383309 
3842.000000	97.383220 
3841.000000	97.383169 
3840.000000	97.383156 
3839.000000	97.383167 
3838.000000	97.383179 
3837.000000	97.383175 
3836.000000	97.383149 
3835.000000	97.383107 
3834.000000	97.383061 
3833.000000	97.383019 
3832.000000	97.382985 
3831.000000	97.382961 
3830.000000	97.382951 
3829.000000	97.382954 
3828.000000	97.382973 
3827.000000	97.382998 
3826.000000	97.383021 
3825.000000	97.383042 
3824.000000	97.383065 
3823.000000	97.383083 
3822.000000	97.383085 
3821.000000	97.383075 
3820.000000	97.383075 
3819.000000	97.383104 
3818.000000	97.383155 
3817.000000	97.383209 
3816.000000	97.383259 
3815.000000	97.383313 
3814.000000	97.383370 
3813.000000	97.383417 
3812.000000	97.383448 
3811.000000	97.383474 
3810.000000	97.383507 
3809.000000	97.383542 
3808.000000	97.383563 
3807.000000	97.383558 
3806.000000	97.383540 
3805.000000	97.383534 
3804.000000	97.383548 
3803.000000	97.383576 
3802.000000	97.383611 
3801.000000	97.383652 
3800.000000	97.383695 
3799.000000	97.383717 
3798.000000	97.383698 
3797.000000	97.383638 
3796.000000	97.383552 
3795.000000	97.383446 
3794.000000	97.383310 
3793.000000	97.383136 
3792.000000	97.382926 
3791.000000	97.382679 
3790.000000	97.382394 
3789.000000	97.382069 
3788.000000	97.381712 
3787.000000	97.381325 
3786.000000	97.380907 
3785.000000	97.380461 
3784.000000	97.379991 
3783.000000	97.379499 
3782.000000	97.378975 
3781.000000	97.378417 
3780.000000	97.377834 
3779.000000	97.377236 
3778.000000	97.376611 
3777.000000	97.375937 
3776.000000	97.375209 
3775.000000	97.374446 
3774.000000	97.373672 
3773.000000	97.372898 
3772.000000	97.372124 
3771.000000	97.371347 
3770.000000	97.370569 
3769.000000	97.369786 
3768.000000	97.368981 
3767.000000	97.368147 
3766.000000	97.367282 
3765.000000	97.366400 
3764.000000	97.365519 
3763.000000	97.364637 
3762.000000	97.363727 
3761.000000	97.362772 
3760.000000	97.361786 
3759.000000	97.360795 
3758.000000	97.359792 
3757.000000	97.358765 
3756.000000	97.357729 
3755.000000	97.356709 
3754.000000	97.355717 
3753.000000	97.354765 
3752.000000	97.353882 
3751.000000	97.353074 
3750.000000	97.352320 
3749.000000	97.351615 
3748.000000	97.350965 
3747.000000	97.350373 
3746.000000	97.349822 
3745.000000	97.349289 
3744.000000	97.348776 
3743.000000	97.348292 
3742.000000	97.347825 
3741.000000	97.347356 
3740.000000	97.346886 
3739.000000	97.346430 
3738.000000	97.345989 
3737.000000	97.345546 
3736.000000	97.345092 
3735.000000	97.344643 
3734.000000	97.344207 
3733.000000	97.343779 
3732.000000	97.343338 
3731.000000	97.342860 
3730.000000	97.342340 
3729.000000	97.341782 
3728.000000	97.341157 
3727.000000	97.340445 
3726.000000	97.339726 
3725.000000	97.339112 
3724.000000	97.338591 
3723.000000	97.338050 
3722.000000	97.337476 
3721.000000	97.336949 
3720.000000	97.336443 
3719.000000	97.335836 
3718.000000	97.334990 
3717.000000	97.333930 
3716.000000	97.332835 
3715.000000	97.331668 
3714.000000	97.330136 
3713.000000	97.328263 
3712.000000	97.326784 
3711.000000	97.326324 
3710.000000	97.326483 
3709.000000	97.326278 
3708.000000	97.325072 
3707.000000	97.322838 
3706.000000	97.320161 
3705.000000	97.317769 
3704.000000	97.315953 
3703.000000	97.314453 
3702.000000	97.312620 
3701.000000	97.309833 
3700.000000	97.305986 
3699.000000	97.301621 
3698.000000	97.297194 
3697.000000	97.293010 
3696.000000	97.289788 
3695.000000	97.287741 
3694.000000	97.285745 
3693.000000	97.282854 
3692.000000	97.279921 
3691.000000	97.278557 
3690.000000	97.278458 
3689.000000	97.277472 
3688.000000	97.274427 
3687.000000	97.270239 
3686.000000	97.265967 
3685.000000	97.261365 
3684.000000	97.256258 
3683.000000	97.251667 
3682.000000	97.248178 
3681.000000	97.244310 
3680.000000	97.238755 
3679.000000	97.232702 
3678.000000	97.228168 
3677.000000	97.224227 
3676.000000	97.218893 
3675.000000	97.213124 
3674.000000	97.208617 
3673.000000	97.205324 
3672.000000	97.201831 
3671.000000	97.197280 
3670.000000	97.193233 
3669.000000	97.190887 
3668.000000	97.188349 
3667.000000	97.183838 
3666.000000	97.177903 
3665.000000	97.172070 
3664.000000	97.167121 
3663.000000	97.162682 
3662.000000	97.157907 
3661.000000	97.152495 
3660.000000	97.147020 
3659.000000	97.141910 
3658.000000	97.136762 
3657.000000	97.130562 
3656.000000	97.123494 
3655.000000	97.117157 
3654.000000	97.112598 
3653.000000	97.108881 
3652.000000	97.103486 
3651.000000	97.095369 
3650.000000	97.087213 
3649.000000	97.081313 
3648.000000	97.076078 
3647.000000	97.070240 
3646.000000	97.065197 
3645.000000	97.062131 
3644.000000	97.060260 
3643.000000	97.058316 
3642.000000	97.056031 
3641.000000	97.053907 
3640.000000	97.051368 
3639.000000	97.046886 
3638.000000	97.040657 
3637.000000	97.034810 
3636.000000	97.030284 
3635.000000	97.024899 
3634.000000	97.017140 
3633.000000	97.009308 
3632.000000	97.004362 
3631.000000	97.000525 
3630.000000	96.993210 
3629.000000	96.984660 
3628.000000	96.980813 
3627.000000	96.980713 
3626.000000	96.979852 
3625.000000	96.977203 
3624.000000	96.975406 
3623.000000	96.977138 
3622.000000	96.981119 
3621.000000	96.982260 
3620.000000	96.976967 
3619.000000	96.966501 
3618.000000	96.954485 
3617.000000	96.944341 
3616.000000	96.938733 
3615.000000	96.938099 
3614.000000	96.941135 
3613.000000	96.946613 
3612.000000	96.953231 
3611.000000	96.958412 
3610.000000	96.959523 
3609.000000	96.956673 
3608.000000	96.953097 
3607.000000	96.951598 
3606.000000	96.952187 
3605.000000	96.954127 
3604.000000	96.957467 
3603.000000	96.961906 
3602.000000	96.965775 
3601.000000	96.967047 
3600.000000	96.965900 
3599.000000	96.964132 
3598.000000	96.963010 
3597.000000	96.962727 
3596.000000	96.963356 
3595.000000	96.964604 
3594.000000	96.966198 
3593.000000	96.967951 
3592.000000	96.969642 
3591.000000	96.970798 
3590.000000	96.970331 
3589.000000	96.967625 
3588.000000	96.964392 
3587.000000	96.963349 
3586.000000	96.964793 
3585.000000	96.967023 
3584.000000	96.968968 
3583.000000	96.970797 
3582.000000	96.972977 
3581.000000	96.975170 
3580.000000	96.976400 
3579.000000	96.975976 
3578.000000	96.974254 
3577.000000	96.972510 
3576.000000	96.971898 
3575.000000	96.972519 
3574.000000	96.973551 
3573.000000	96.974221 
3572.000000	96.974216 
3571.000000	96.973434 
3570.000000	96.971350 
3569.000000	96.967284 
3568.000000	96.962213 
3567.000000	96.959268 
3566.000000	96.960270 
3565.000000	96.964021 
3564.000000	96.967946 
3563.000000	96.970550 
3562.000000	96.971964 
3561.000000	96.972877 
3560.000000	96.973553 
3559.000000	96.973854 
3558.000000	96.973803 
3557.000000	96.973787 
3556.000000	96.973997 
3555.000000	96.974026 
3554.000000	96.973262 
3553.000000	96.971747 
3552.000000	96.970288 
3551.000000	96.969491 
3550.000000	96.969128 
3549.000000	96.968645 
3548.000000	96.967985 
3547.000000	96.967539 
3546.000000	96.967396 
3545.000000	96.967278 
3544.000000	96.967319 
3543.000000	96.968082 
3542.000000	96.969635 
3541.000000	96.971331 
3540.000000	96.972582 
3539.000000	96.973384 
3538.000000	96.973895 
3537.000000	96.973967 
3536.000000	96.973410 
3535.000000	96.972325 
3534.000000	96.971133 
3533.000000	96.970279 
3532.000000	96.970086 
3531.000000	96.970643 
3530.000000	96.971675 
3529.000000	96.972616 
3528.000000	96.973014 
3527.000000	96.972848 
3526.000000	96.972389 
3525.000000	96.971947 
3524.000000	96.971805 
3523.000000	96.972130 
3522.000000	96.972729 
3521.000000	96.973312 
3520.000000	96.973817 
3519.000000	96.974400 
3518.000000	96.975103 
3517.000000	96.975597 
3516.000000	96.975511 
3515.000000	96.974874 
3514.000000	96.974205 
3513.000000	96.974019 
3512.000000	96.974292 
3511.000000	96.974568 
3510.000000	96.974521 
3509.000000	96.974307 
3508.000000	96.974313 
3507.000000	96.974685 
3506.000000	96.975229 
3505.000000	96.975651 
3504.000000	96.975817 
3503.000000	96.975736 
3502.000000	96.975456 
3501.000000	96.975081 
3500.000000	96.974837 
3499.000000	96.974974 
3498.000000	96.975609 
3497.000000	96.976627 
3496.000000	96.977603 
3495.000000	96.977900 
3494.000000	96.977117 
3493.000000	96.975569 
3492.000000	96.974196 
3491.000000	96.973711 
3490.000000	96.974053 
3489.000000	96.974605 
3488.000000	96.974779 
3487.000000	96.974292 
3486.000000	96.973087 
3485.000000	96.971375 
3484.000000	96.969670 
3483.000000	96.968423 
3482.000000	96.967634 
3481.000000	96.966956 
3480.000000	96.966189 
3479.000000	96.965483 
3478.000000	96.965054 
3477.000000	96.964872 
3476.000000	96.964595 
3475.000000	96.963743 
3474.000000	96.962059 
3473.000000	96.959951 
3472.000000	96.958374 
3471.000000	96.957916 
3470.000000	96.958112 
3469.000000	96.957883 
3468.000000	96.956611 
3467.000000	96.954622 
3466.000000	96.952635 
3465.000000	96.950962 
3464.000000	96.949447 
3463.000000	96.947913 
3462.000000	96.946324 
3461.000000	96.944479 
3460.000000	96.941915 
3459.000000	96.938367 
3458.000000	96.934287 
3457.000000	96.930735 
3456.000000	96.928727 
3455.000000	96.928686 
3454.000000	96.930307 
3453.000000	96.932572 
3452.000000	96.934230 
3451.000000	96.934589 
3450.000000	96.933837 
3449.000000	96.932557 
3448.000000	96.931043 
3447.000000	96.929185 
3446.000000	96.926869 
3445.000000	96.924452 
3444.000000	96.922672 
3443.000000	96.922068 
3442.000000	96.922467 
3441.000000	96.923028 
3440.000000	96.922886 
3439.000000	96.921826 
3438.000000	96.920310 
3437.000000	96.918924 
3436.000000	96.917975 
3435.000000	96.917549 
3434.000000	96.917663 
3433.000000	96.918143 
3432.000000	96.918639 
3431.000000	96.918921 
3430.000000	96.919017 
3429.000000	96.918986 
3428.000000	96.918598 
3427.000000	96.917497 
3426.000000	96.915723 
3425.000000	96.913906 
3424.000000	96.912746 
3423.000000	96.912342 
3422.000000	96.912166 
3421.000000	96.911680 
3420.000000	96.910892 
3419.000000	96.910192 
3418.000000	96.909838 
3417.000000	96.909759 
3416.000000	96.909755 
3415.000000	96.909669 
3414.000000	96.909377 
3413.000000	96.908771 
3412.000000	96.907854 
3411.000000	96.906798 
3410.000000	96.905884 
3409.000000	96.905351 
3408.000000	96.905209 
3407.000000	96.905124 
3406.000000	96.904655 
3405.000000	96.903692 
3404.000000	96.902590 
3403.000000	96.901737 
3402.000000	96.901099 
3401.000000	96.900376 
3400.000000	96.899550 
3399.000000	96.898998 
3398.000000	96.899007 
3397.000000	96.899387 
3396.000000	96.899639 
3395.000000	96.899459 
3394.000000	96.898983 
3393.000000	96.898502 
3392.000000	96.897919 
3391.000000	96.896661 
3390.000000	96.894360 
3389.000000	96.891608 
3388.000000	96.889708 
3387.000000	96.889385 
3386.000000	96.890014 
3385.000000	96.890177 
3384.000000	96.889077 
3383.000000	96.887194 
3382.000000	96.885773 
3381.000000	96.885836 
3380.000000	96.887428 
3379.000000	96.889489 
3378.000000	96.890758 
3377.000000	96.891108 
3376.000000	96.891587 
3375.000000	96.892938 
3374.000000	96.894479 
3373.000000	96.894948 
3372.000000	96.894133 
3371.000000	96.893070 
3370.000000	96.892726 
3369.000000	96.893024 
3368.000000	96.893220 
3367.000000	96.892708 
3366.000000	96.891273 
3365.000000	96.889030 
3364.000000	96.886504 
3363.000000	96.884544 
3362.000000	96.883860 
3361.000000	96.884664 
3360.000000	96.886748 
3359.000000	96.889643 
3358.000000	96.892574 
3357.000000	96.894571 
3356.000000	96.895030 
3355.000000	96.894262 
3354.000000	96.893434 
3353.000000	96.893818 
3352.000000	96.895892 
3351.000000	96.898992 
3350.000000	96.901809 
3349.000000	96.903425 
3348.000000	96.903949 
3347.000000	96.904187 
3346.000000	96.904609 
3345.000000	96.904777 
3344.000000	96.903931 
3343.000000	96.901974 
3342.000000	96.899755 
3341.000000	96.898397 
3340.000000	96.898245 
3339.000000	96.898581 
3338.000000	96.898475 
3337.000000	96.897766 
3336.000000	96.897078 
3335.000000	96.896969 
3334.000000	96.897357 
3333.000000	96.897775 
3332.000000	96.897910 
3331.000000	96.897769 
3330.000000	96.897548 
3329.000000	96.897546 
3328.000000	96.898075 
3327.000000	96.899252 
3326.000000	96.900850 
3325.000000	96.902422 
3324.000000	96.903538 
3323.000000	96.903914 
3322.000000	96.903534 
3321.000000	96.902746 
3320.000000	96.902138 
3319.000000	96.902150 
3318.000000	96.902752 
3317.000000	96.903536 
3316.000000	96.904093 
3315.000000	96.904346 
3314.000000	96.904527 
3313.000000	96.904852 
3312.000000	96.905307 
3311.000000	96.905778 
3310.000000	96.906309 
3309.000000	96.907050 
3308.000000	96.907909 
3307.000000	96.908460 
3306.000000	96.908363 
3305.000000	96.907738 
3304.000000	96.907003 
3303.000000	96.906516 
3302.000000	96.906403 
3301.000000	96.906645 
3300.000000	96.907130 
3299.000000	96.907624 
3298.000000	96.907890 
3297.000000	96.907908 
3296.000000	96.907880 
3295.000000	96.908021 
3294.000000	96.908350 
3293.000000	96.908752 
3292.000000	96.909151 
3291.000000	96.909556 
3290.000000	96.909956 
3289.000000	96.910297 
3288.000000	96.910563 
3287.000000	96.910809 
3286.000000	96.911085 
3285.000000	96.911374 
3284.000000	96.911628 
3283.000000	96.911846 
3282.000000	96.912073 
3281.000000	96.912351 
3280.000000	96.912671 
3279.000000	96.913006 
3278.000000	96.913349 
3277.000000	96.913716 
3276.000000	96.914103 
3275.000000	96.914510 
3274.000000	96.914935 
3273.000000	96.915372 
3272.000000	96.915817 
3271.000000	96.916269 
3270.000000	96.916722 
3269.000000	96.917173 
3268.000000	96.917620 
3267.000000	96.918068 
3266.000000	96.918529 
3265.000000	96.919013 
3264.000000	96.919526 
3263.000000	96.920067 
3262.000000	96.920630 
3261.000000	96.921205 
3260.000000	96.921786 
3259.000000	96.922368 
3258.000000	96.922949 
3257.000000	96.923528 
3256.000000	96.924110 
3255.000000	96.924700 
3254.000000	96.925301 
3253.000000	96.925914 
3252.000000	96.926535 
3251.000000	96.927161 
3250.000000	96.927788 
3249.000000	96.928413 
3248.000000	96.929034 
3247.000000	96.929651 
3246.000000	96.930269 
3245.000000	96.930895 
3244.000000	96.931533 
3243.000000	96.932184 
3242.000000	96.932848 
3241.000000	96.933521 
3240.000000	96.934198 
3239.000000	96.934877 
3238.000000	96.935558 
3237.000000	96.936240 
3236.000000	96.936924 
3235.000000	96.937602 
3234.000000	96.938265 
3233.000000	96.938903 
3232.000000	96.939516 
3231.000000	96.940112 
3230.000000	96.940702 
3229.000000	96.941295 
3228.000000	96.941894 
3227.000000	96.942499 
3226.000000	96.943112 
3225.000000	96.943735 
3224.000000	96.944365 
3223.000000	96.944998 
3222.000000	96.945627 
3221.000000	96.946254 
3220.000000	96.946879 
3219.000000	96.947504 
3218.000000	96.948124 
3217.000000	96.948740 
3216.000000	96.949354 
3215.000000	96.949976 
3214.000000	96.950611 
3213.000000	96.951260 
3212.000000	96.951915 
3211.000000	96.952569 
3210.000000	96.953218 
3209.000000	96.953866 
3208.000000	96.954518 
3207.000000	96.955178 
3206.000000	96.955845 
3205.000000	96.956521 
3204.000000	96.957203 
3203.000000	96.957893 
3202.000000	96.958587 
3201.000000	96.959282 
3200.000000	96.959977 
3199.000000	96.960669 
3198.000000	96.961362 
3197.000000	96.962063 
3196.000000	96.962781 
3195.000000	96.963517 
3194.000000	96.964273 
3193.000000	96.965055 
3192.000000	96.965867 
3191.000000	96.966712 
3190.000000	96.967581 
3189.000000	96.968461 
3188.000000	96.969346 
3187.000000	96.970239 
3186.000000	96.971144 
3185.000000	96.972063 
3184.000000	96.972995 
3183.000000	96.973938 
3182.000000	96.974890 
3181.000000	96.975851 
3180.000000	96.976821 
3179.000000	96.977800 
3178.000000	96.978792 
3177.000000	96.979801 
3176.000000	96.980828 
3175.000000	96.981871 
3174.000000	96.982926 
3173.000000	96.983990 
3172.000000	96.985058 
3171.000000	96.986126 
3170.000000	96.987192 
3169.000000	96.988263 
3168.000000	96.989346 
3167.000000	96.990444 
3166.000000	96.991553 
3165.000000	96.992669 
3164.000000	96.993794 
3163.000000	96.994927 
3162.000000	96.996062 
3161.000000	96.997186 
3160.000000	96.998283 
3159.000000	96.999392 
3158.000000	97.000620 
3157.000000	97.002027 
3156.000000	97.003543 
3155.000000	97.005056 
3154.000000	97.006568 
3153.000000	97.008170 
3152.000000	97.009839 
3151.000000	97.011345 
3150.000000	97.012467 
3149.000000	97.013231 
3148.000000	97.013876 
3147.000000	97.014548 
3146.000000	97.015283 
3145.000000	97.016259 
3144.000000	97.017763 
3143.000000	97.019776 
3142.000000	97.021750 
3141.000000	97.023184 
3140.000000	97.024200 
3139.000000	97.025355 
3138.000000	97.026882 
3137.000000	97.028359 
3136.000000	97.029204 
3135.000000	97.029352 
3134.000000	97.029330 
3133.000000	97.029765 
3132.000000	97.030892 
3131.000000	97.032540 
3130.000000	97.034438 
3129.000000	97.036400 
3128.000000	97.038224 
3127.000000	97.039679 
3126.000000	97.040793 
3125.000000	97.042038 
3124.000000	97.043904 
3123.000000	97.046302 
3122.000000	97.048607 
3121.000000	97.050370 
3120.000000	97.051677 
3119.000000	97.052711 
3118.000000	97.053412 
3117.000000	97.053771 
3116.000000	97.054132 
3115.000000	97.054897 
3114.000000	97.056069 
3113.000000	97.057374 
3112.000000	97.058757 
3111.000000	97.060417 
3110.000000	97.062337 
3109.000000	97.064054 
3108.000000	97.065125 
3107.000000	97.065688 
3106.000000	97.066308 
3105.000000	97.067213 
3104.000000	97.067994 
3103.000000	97.068209 
3102.000000	97.068046 
3101.000000	97.068131 
3100.000000	97.068721 
3099.000000	97.069490 
3098.000000	97.070261 
3097.000000	97.071484 
3096.000000	97.073547 
3095.000000	97.076006 
3094.000000	97.077961 
3093.000000	97.079070 
3092.000000	97.079730 
3091.000000	97.080380 
3090.000000	97.081039 
3089.000000	97.081626 
3088.000000	97.082309 
3087.000000	97.083362 
3086.000000	97.084856 
3085.000000	97.086562 
3084.000000	97.088078 
3083.000000	97.089117 
3082.000000	97.089698 
3081.000000	97.090192 
3080.000000	97.091004 
3079.000000	97.092095 
3078.000000	97.093045 
3077.000000	97.093700 
3076.000000	97.094458 
3075.000000	97.095641 
3074.000000	97.096895 
3073.000000	97.097666 
3072.000000	97.098069 
3071.000000	97.098732 
3070.000000	97.099887 
3069.000000	97.101237 
3068.000000	97.102625 
3067.000000	97.104106 
3066.000000	97.105333 
3065.000000	97.105649 
3064.000000	97.105016 
3063.000000	97.104199 
3062.000000	97.103759 
3061.000000	97.103415 
3060.000000	97.102718 
3059.000000	97.101917 
3058.000000	97.101805 
3057.000000	97.102922 
3056.000000	97.105043 
3055.000000	97.107153 
3054.000000	97.107996 
3053.000000	97.107088 
3052.000000	97.105400 
3051.000000	97.104720 
3050.000000	97.105986 
3049.000000	97.108519 
3048.000000	97.110833 
3047.000000	97.111914 
3046.000000	97.111589 
3045.000000	97.110271 
3044.000000	97.108898 
3043.000000	97.108742 
3042.000000	97.110518 
3041.000000	97.113409 
3040.000000	97.115332 
3039.000000	97.114740 
3038.000000	97.111940 
3037.000000	97.108645 
3036.000000	97.106299 
3035.000000	97.104968 
3034.000000	97.103909 
3033.000000	97.102588 
3032.000000	97.100787 
3031.000000	97.098335 
3030.000000	97.095441 
3029.000000	97.092997 
3028.000000	97.091663 
3027.000000	97.090743 
3026.000000	97.088825 
3025.000000	97.085686 
3024.000000	97.082623 
3023.000000	97.080540 
3022.000000	97.078741 
3021.000000	97.076410 
3020.000000	97.074270 
3019.000000	97.073576 
3018.000000	97.073983 
3017.000000	97.073585 
3016.000000	97.071042 
3015.000000	97.066777 
3014.000000	97.062324 
3013.000000	97.059192 
3012.000000	97.058021 
3011.000000	97.057936 
3010.000000	97.056818 
3009.000000	97.053168 
3008.000000	97.047670 
3007.000000	97.042300 
3006.000000	97.037966 
3005.000000	97.033870 
3004.000000	97.029261 
3003.000000	97.024870 
3002.000000	97.022330 
3001.000000	97.022664 
3000.000000	97.025284 
2999.000000	97.027867 
2998.000000	97.027573 
2997.000000	97.023190 
2996.000000	97.016208 
2995.000000	97.009451 
2994.000000	97.004618 
2993.000000	97.001567 
2992.000000	96.999277 
2991.000000	96.996590 
2990.000000	96.992607 
2989.000000	96.987628 
2988.000000	96.983592 
2987.000000	96.982394 
2986.000000	96.983862 
2985.000000	96.986392 
2984.000000	96.989310 
2983.000000	96.993235 
2982.000000	96.997995 
2981.000000	97.001720 
2980.000000	97.002576 
2979.000000	97.000339 
2978.000000	96.995933 
2977.000000	96.990535 
2976.000000	96.985658 
2975.000000	96.982959 
2974.000000	96.983117 
2973.000000	96.985370 
2972.000000	96.988526 
2971.000000	96.991959 
2970.000000	96.995392 
2969.000000	96.998508 
2968.000000	97.001205 
2967.000000	97.003669 
2966.000000	97.005931 
2965.000000	97.007959 
2964.000000	97.010220 
2963.000000	97.013257 
2962.000000	97.016559 
2961.000000	97.018827 
2960.000000	97.019794 
2959.000000	97.020897 
2958.000000	97.023684 
2957.000000	97.028304 
2956.000000	97.033873 
2955.000000	97.039303 
2954.000000	97.043271 
2953.000000	97.044678 
2952.000000	97.044235 
2951.000000	97.044890 
2950.000000	97.049138 
2949.000000	97.055918 
2948.000000	97.061363 
2947.000000	97.062863 
2946.000000	97.061436 
2945.000000	97.059917 
2944.000000	97.059557 
2943.000000	97.059207 
2942.000000	97.057582 
2941.000000	97.055276 
2940.000000	97.054109 
2939.000000	97.054978 
2938.000000	97.057132 
2937.000000	97.059507 
2936.000000	97.061868 
2935.000000	97.064070 
2934.000000	97.064992 
2933.000000	97.063422 
2932.000000	97.059869 
2931.000000	97.056509 
2930.000000	97.054949 
2929.000000	97.054834 
2928.000000	97.055027 
2927.000000	97.055343 
2926.000000	97.056364 
2925.000000	97.058106 
2924.000000	97.059893 
2923.000000	97.061520 
2922.000000	97.063590 
2921.000000	97.066439 
2920.000000	97.069524 
2919.000000	97.072254 
2918.000000	97.074821 
2917.000000	97.077485 
2916.000000	97.079455 
2915.000000	97.079411 
2914.000000	97.077284 
2913.000000	97.074733 
2912.000000	97.073345 
2911.000000	97.072883 
2910.000000	97.072075 
2909.000000	97.070834 
2908.000000	97.070692 
2907.000000	97.072760 
2906.000000	97.076083 
2905.000000	97.078570 
2904.000000	97.079009 
2903.000000	97.077961 
2902.000000	97.076900 
2901.000000	97.077027 
2900.000000	97.078926 
2899.000000	97.082497 
2898.000000	97.087158 
2897.000000	97.092094 
2896.000000	97.096443 
2895.000000	97.099353 
2894.000000	97.100441 
2893.000000	97.100474 
2892.000000	97.101103 
2891.000000	97.103327 
2890.000000	97.106522 
2889.000000	97.109468 
2888.000000	97.111940 
2887.000000	97.114513 
2886.000000	97.117075 
2885.000000	97.118709 
2884.000000	97.119278 
2883.000000	97.120120 
2882.000000	97.122524 
2881.000000	97.126143 
2880.000000	97.129570 
2879.000000	97.132178 
2878.000000	97.134647 
2877.000000	97.137827 
2876.000000	97.141783 
2875.000000	97.146009 
2874.000000	97.149991 
2873.000000	97.153358 
2872.000000	97.155893 
2871.000000	97.157720 
2870.000000	97.159248 
2869.000000	97.160764 
2868.000000	97.162246 
2867.000000	97.163661 
2866.000000	97.165198 
2865.000000	97.167027 
2864.000000	97.169086 
2863.000000	97.171369 
2862.000000	97.174273 
2861.000000	97.178131 
2860.000000	97.182449 
2859.000000	97.186126 
2858.000000	97.188666 
2857.000000	97.190756 
2856.000000	97.193494 
2855.000000	97.197105 
2854.000000	97.200745 
2853.000000	97.203590 
2852.000000	97.205761 
2851.000000	97.207966 
2850.000000	97.210551 
2849.000000	97.213277 
2848.000000	97.215864 
2847.000000	97.218295 
2846.000000	97.220565 
2845.000000	97.222554 
2844.000000	97.224329 
2843.000000	97.226347 
2842.000000	97.229062 
2841.000000	97.232335 
2840.000000	97.235374 
2839.000000	97.237441 
2838.000000	97.238556 
2837.000000	97.239459 
2836.000000	97.240889 
2835.000000	97.242952 
2834.000000	97.245352 
2833.000000	97.247962 
2832.000000	97.250886 
2831.000000	97.253929 
2830.000000	97.256468 
2829.000000	97.258093 
2828.000000	97.259120 
2827.000000	97.260293 
2826.000000	97.262058 
2825.000000	97.264378 
2824.000000	97.266960 
2823.000000	97.269312 
2822.000000	97.270830 
2821.000000	97.271321 
2820.000000	97.271370 
2819.000000	97.271842 
2818.000000	97.272912 
2817.000000	97.274026 
2816.000000	97.274812 
2815.000000	97.275612 
2814.000000	97.276859 
2813.000000	97.278333 
2812.000000	97.279415 
2811.000000	97.279920 
2810.000000	97.280346 
2809.000000	97.281260 
2808.000000	97.282709 
2807.000000	97.284329 
2806.000000	97.285797 
2805.000000	97.287078 
2804.000000	97.288240 
2803.000000	97.289257 
2802.000000	97.290081 
2801.000000	97.290821 
2800.000000	97.291693 
2799.000000	97.292765 
2798.000000	97.293865 
2797.000000	97.294796 
2796.000000	97.295565 
2795.000000	97.296325 
2794.000000	97.297172 
2793.000000	97.298073 
2792.000000	97.298957 
2791.000000	97.299798 
2790.000000	97.300600 
2789.000000	97.301386 
2788.000000	97.302183 
2787.000000	97.302996 
2786.000000	97.303816 
2785.000000	97.304643 
2784.000000	97.305475 
2783.000000	97.306305 
2782.000000	97.307134 
2781.000000	97.307963 
2780.000000	97.308795 
2779.000000	97.309629 
2778.000000	97.310460 
2777.000000	97.311278 
2776.000000	97.312078 
2775.000000	97.312860 
2774.000000	97.313629 
2773.000000	97.314390 
2772.000000	97.315148 
2771.000000	97.315906 
2770.000000	97.316665 
2769.000000	97.317431 
2768.000000	97.318201 
2767.000000	97.318970 
2766.000000	97.319727 
2765.000000	97.320464 
2764.000000	97.321177 
2763.000000	97.321873 
2762.000000	97.322555 
2761.000000	97.323229 
2760.000000	97.323897 
2759.000000	97.324565 
2758.000000	97.325230 
2757.000000	97.325886 
2756.000000	97.326527 
2755.000000	97.327149 
2754.000000	97.327759 
2753.000000	97.328364 
2752.000000	97.328969 
2751.000000	97.329570 
2750.000000	97.330162 
2749.000000	97.330745 
2748.000000	97.331321 
2747.000000	97.331888 
2746.000000	97.332438 
2745.000000	97.332969 
2744.000000	97.333484 
2743.000000	97.333987 
2742.000000	97.334482 
2741.000000	97.334969 
2740.000000	97.335449 
2739.000000	97.335924 
2738.000000	97.336399 
2737.000000	97.336876 
2736.000000	97.337357 
2735.000000	97.337846 
2734.000000	97.338345 
2733.000000	97.338854 
2732.000000	97.339368 
2731.000000	97.339877 
2730.000000	97.340375 
2729.000000	97.340856 
2728.000000	97.341320 
2727.000000	97.341763 
2726.000000	97.342183 
2725.000000	97.342579 
2724.000000	97.342960 
2723.000000	97.343333 
2722.000000	97.343706 
2721.000000	97.344082 
2720.000000	97.344462 
2719.000000	97.344847 
2718.000000	97.345238 
2717.000000	97.345630 
2716.000000	97.346016 
2715.000000	97.346396 
2714.000000	97.346774 
2713.000000	97.347158 
2712.000000	97.347546 
2711.000000	97.347931 
2710.000000	97.348305 
2709.000000	97.348671 
2708.000000	97.349034 
2707.000000	97.349397 
2706.000000	97.349759 
2705.000000	97.350118 
2704.000000	97.350474 
2703.000000	97.350831 
2702.000000	97.351192 
2701.000000	97.351555 
2700.000000	97.351920 
2699.000000	97.352285 
2698.000000	97.352645 
2697.000000	97.352994 
2696.000000	97.353325 
2695.000000	97.353636 
2694.000000	97.353929 
2693.000000	97.354209 
2692.000000	97.354474 
2691.000000	97.354724 
2690.000000	97.354961 
2689.000000	97.355190 
2688.000000	97.355419 
2687.000000	97.355647 
2686.000000	97.355872 
2685.000000	97.356091 
2684.000000	97.356301 
2683.000000	97.356501 
2682.000000	97.356685 
2681.000000	97.356851 
2680.000000	97.356998 
2679.000000	97.357126 
2678.000000	97.357239 
2677.000000	97.357348 
2676.000000	97.357451 
2675.000000	97.357532 
2674.000000	97.357593 
2673.000000	97.357638 
2672.000000	97.357659 
2671.000000	97.357642 
2670.000000	97.357579 
2669.000000	97.357487 
2668.000000	97.357410 
2667.000000	97.357391 
2666.000000	97.357435 
2665.000000	97.357499 
2664.000000	97.357550 
2663.000000	97.357598 
2662.000000	97.357638 
2661.000000	97.357614 
2660.000000	97.357469 
2659.000000	97.357173 
2658.000000	97.356734 
2657.000000	97.356230 
2656.000000	97.355844 
2655.000000	97.355739 
2654.000000	97.355828 
2653.000000	97.355757 
2652.000000	97.355278 
2651.000000	97.354546 
2650.000000	97.354014 
2649.000000	97.353946 
2648.000000	97.354200 
2647.000000	97.354401 
2646.000000	97.354310 
2645.000000	97.353940 
2644.000000	97.353399 
2643.000000	97.352772 
2642.000000	97.352159 
2641.000000	97.351723 
2640.000000	97.351579 
2639.000000	97.351662 
2638.000000	97.351782 
2637.000000	97.351803 
2636.000000	97.351775 
2635.000000	97.351859 
2634.000000	97.352133 
2633.000000	97.352477 
2632.000000	97.352663 
2631.000000	97.352575 
2630.000000	97.352314 
2629.000000	97.352075 
2628.000000	97.351945 
2627.000000	97.351879 
2626.000000	97.351839 
2625.000000	97.351832 
2624.000000	97.351822 
2623.000000	97.351730 
2622.000000	97.351553 
2621.000000	97.351376 
2620.000000	97.351215 
2619.000000	97.350957 
2618.000000	97.350549 
2617.000000	97.350165 
2616.000000	97.350074 
2615.000000	97.350350 
2614.000000	97.350816 
2613.000000	97.351163 
2612.000000	97.351250 
2611.000000	97.351156 
2610.000000	97.351082 
2609.000000	97.351165 
2608.000000	97.351335 
2607.000000	97.351380 
2606.000000	97.351191 
2605.000000	97.350925 
2604.000000	97.350796 
2603.000000	97.350783 
2602.000000	97.350700 
2601.000000	97.350537 
2600.000000	97.350478 
2599.000000	97.350541 
2598.000000	97.350464 
2597.000000	97.350090 
2596.000000	97.349641 
2595.000000	97.349445 
2594.000000	97.349487 
2593.000000	97.349494 
2592.000000	97.349409 
2591.000000	97.349442 
2590.000000	97.349663 
2589.000000	97.349890 
2588.000000	97.350091 
2587.000000	97.350555 
2586.000000	97.351420 
2585.000000	97.352407 
2584.000000	97.353110 
2583.000000	97.353400 
2582.000000	97.353431 
2581.000000	97.353426 
2580.000000	97.353553 
2579.000000	97.353920 
2578.000000	97.354561 
2577.000000	97.355383 
2576.000000	97.356131 
2575.000000	97.356498 
2574.000000	97.356373 
2573.000000	97.355987 
2572.000000	97.355752 
2571.000000	97.355848 
2570.000000	97.356104 
2569.000000	97.356308 
2568.000000	97.356510 
2567.000000	97.356921 
2566.000000	97.357590 
2565.000000	97.358344 
2564.000000	97.358993 
2563.000000	97.359460 
2562.000000	97.359785 
2561.000000	97.360119 
2560.000000	97.360677 
2559.000000	97.361550 
2558.000000	97.362594 
2557.000000	97.363514 
2556.000000	97.364149 
2555.000000	97.364584 
2554.000000	97.364996 
2553.000000	97.365427 
2552.000000	97.365785 
2551.000000	97.366071 
2550.000000	97.366443 
2549.000000	97.366966 
2548.000000	97.367406 
2547.000000	97.367500 
2546.000000	97.367313 
2545.000000	97.367212 
2544.000000	97.367409 
2543.000000	97.367740 
2542.000000	97.367898 
2541.000000	97.367849 
2540.000000	97.367878 
2539.000000	97.368189 
2538.000000	97.368637 
2537.000000	97.368957 
2536.000000	97.369164 
2535.000000	97.369517 
2534.000000	97.370095 
2533.000000	97.370636 
2532.000000	97.370864 
2531.000000	97.370823 
2530.000000	97.370809 
2529.000000	97.370982 
2528.000000	97.371217 
2527.000000	97.371355 
2526.000000	97.371515 
2525.000000	97.371988 
2524.000000	97.372874 
2523.000000	97.373907 
2522.000000	97.374690 
2521.000000	97.375061 
2520.000000	97.375122 
2519.000000	97.375007 
2518.000000	97.374750 
2517.000000	97.374412 
2516.000000	97.374114 
2515.000000	97.373866 
2514.000000	97.373580 
2513.000000	97.373362 
2512.000000	97.373546 
2511.000000	97.374361 
2510.000000	97.375690 
2509.000000	97.377165 
2508.000000	97.378384 
2507.000000	97.379084 
2506.000000	97.379344 
2505.000000	97.379675 
2504.000000	97.380599 
2503.000000	97.382028 
2502.000000	97.383266 
2501.000000	97.383795 
2500.000000	97.383798 
2499.000000	97.383792 
2498.000000	97.384002 
2497.000000	97.384309 
2496.000000	97.384703 
2495.000000	97.385367 
2494.000000	97.386298 
2493.000000	97.387136 
2492.000000	97.387556 
2491.000000	97.387674 
2490.000000	97.387935 
2489.000000	97.388626 
2488.000000	97.389575 
2487.000000	97.390330 
2486.000000	97.390608 
2485.000000	97.390579 
2484.000000	97.390680 
2483.000000	97.391156 
2482.000000	97.391857 
2481.000000	97.392470 
2480.000000	97.392865 
2479.000000	97.393116 
2478.000000	97.393337 
2477.000000	97.393607 
2476.000000	97.393948 
2475.000000	97.394164 
2474.000000	97.393833 
2473.000000	97.392767 
2472.000000	97.391457 
2471.000000	97.390784 
2470.000000	97.391210 
2469.000000	97.392424 
2468.000000	97.393624 
2467.000000	97.394067 
2466.000000	97.393460 
2465.000000	97.392173 
2464.000000	97.391204 
2463.000000	97.391553 
2462.000000	97.393530 
2461.000000	97.396675 
2460.000000	97.400168 
2459.000000	97.403104 
2458.000000	97.404550 
2457.000000	97.403948 
2456.000000	97.401594 
2455.000000	97.398536 
2454.000000	97.395815 
2453.000000	97.393855 
2452.000000	97.392501 
2451.000000	97.391381 
2450.000000	97.390290 
2449.000000	97.389396 
2448.000000	97.389056 
2447.000000	97.389408 
2446.000000	97.390218 
2445.000000	97.391066 
2444.000000	97.391440 
2443.000000	97.390782 
2442.000000	97.388994 
2441.000000	97.386929 
2440.000000	97.385859 
2439.000000	97.386436 
2438.000000	97.388678 
2437.000000	97.392642 
2436.000000	97.398064 
2435.000000	97.403383 
2434.000000	97.406468 
2433.000000	97.406812 
2432.000000	97.406082 
2431.000000	97.405972 
2430.000000	97.406436 
2429.000000	97.406702 
2428.000000	97.406814 
2427.000000	97.407107 
2426.000000	97.407003 
2425.000000	97.405545 
2424.000000	97.402814 
2423.000000	97.400033 
2422.000000	97.398427 
2421.000000	97.398467 
2420.000000	97.399915 
2419.000000	97.402016 
2418.000000	97.403865 
2417.000000	97.405209 
2416.000000	97.406582 
2415.000000	97.408225 
2414.000000	97.409337 
2413.000000	97.409276 
2412.000000	97.408951 
2411.000000	97.409748 
2410.000000	97.411543 
2409.000000	97.413128 
2408.000000	97.414214 
2407.000000	97.415517 
2406.000000	97.416971 
2405.000000	97.417343 
2404.000000	97.415854 
2403.000000	97.413148 
2402.000000	97.410560 
2401.000000	97.409332 
2400.000000	97.410391 
2399.000000	97.413790 
2398.000000	97.418320 
2397.000000	97.422553 
2396.000000	97.425928 
2395.000000	97.428052 
2394.000000	97.427794 
2393.000000	97.424732 
2392.000000	97.421106 
2391.000000	97.420266 
2390.000000	97.422730 
2389.000000	97.425412 
2388.000000	97.425198 
2387.000000	97.421866 
2386.000000	97.417096 
2385.000000	97.412381 
2384.000000	97.408910 
2383.000000	97.408180 
2382.000000	97.411393 
2381.000000	97.418721 
2380.000000	97.429708 
2379.000000	97.443433 
2378.000000	97.457221 
2377.000000	97.466369 
2376.000000	97.467125 
2375.000000	97.459970 
2374.000000	97.448972 
2373.000000	97.437734 
2372.000000	97.427368 
2371.000000	97.418622 
2370.000000	97.413285 
2369.000000	97.411917 
2368.000000	97.411811 
2367.000000	97.409479 
2366.000000	97.405072 
2365.000000	97.402238 
2364.000000	97.402764 
2363.000000	97.403730 
2362.000000	97.402209 
2361.000000	97.398740 
2360.000000	97.394179 
2359.000000	97.387963 
2358.000000	97.380638 
2357.000000	97.376680 
2356.000000	97.379300 
2355.000000	97.385403 
2354.000000	97.389247 
2353.000000	97.387161 
2352.000000	97.381276 
2351.000000	97.374054 
2350.000000	97.365164 
2349.000000	97.355518 
2348.000000	97.348701 
2347.000000	97.347405 
2346.000000	97.346077 
2345.000000	97.339413 
2344.000000	97.329951 
2343.000000	97.322457 
2342.000000	97.321300 
2341.000000	97.327373 
2340.000000	97.338550 
2339.000000	97.348310 
2338.000000	97.351908 
2337.000000	97.349978 
2336.000000	97.346189 
2335.000000	97.341957 
2334.000000	97.335751 
2333.000000	97.325907 
2332.000000	97.313839 
2331.000000	97.301704 
2330.000000	97.288026 
2329.000000	97.271209 
2328.000000	97.250883 
2327.000000	97.233036 
2326.000000	97.220166 
2325.000000	97.212334 
2324.000000	97.208483 
2323.000000	97.209487 
2322.000000	97.215105 
2321.000000	97.220411 
2320.000000	97.222841 
2319.000000	97.225244 
2318.000000	97.232019 
2317.000000	97.242600 
2316.000000	97.252241 
2315.000000	97.257505 
2314.000000	97.256538 
2313.000000	97.249992 
2312.000000	97.239708 
2311.000000	97.230607 
2310.000000	97.225227 
2309.000000	97.223234 
2308.000000	97.222343 
2307.000000	97.223454 
2306.000000	97.227576 
2305.000000	97.233321 
2304.000000	97.237002 
2303.000000	97.237755 
2302.000000	97.238078 
2301.000000	97.240990 
2300.000000	97.246139 
2299.000000	97.250610 
2298.000000	97.250765 
2297.000000	97.245956 
2296.000000	97.238655 
2295.000000	97.233663 
2294.000000	97.233559 
2293.000000	97.237637 
2292.000000	97.242863 
2291.000000	97.247221 
2290.000000	97.250238 
2289.000000	97.252494 
2288.000000	97.254591 
2287.000000	97.256914 
2286.000000	97.259601 
2285.000000	97.262750 
2284.000000	97.266469 
2283.000000	97.270107 
2282.000000	97.272274 
2281.000000	97.272090 
2280.000000	97.270416 
2279.000000	97.268714 
2278.000000	97.267342 
2277.000000	97.265729 
2276.000000	97.264232 
2275.000000	97.264312 
2274.000000	97.266759 
2273.000000	97.270936 
2272.000000	97.275791 
2271.000000	97.280578 
2270.000000	97.284311 
2269.000000	97.286087 
2268.000000	97.286272 
2267.000000	97.286127 
2266.000000	97.285893 
2265.000000	97.284748 
2264.000000	97.282430 
2263.000000	97.279302 
2262.000000	97.275114 
2261.000000	97.269694 
2260.000000	97.264820 
2259.000000	97.263085 
2258.000000	97.264667 
2257.000000	97.267103 
2256.000000	97.268906 
2255.000000	97.271152 
2254.000000	97.274444 
2253.000000	97.276484 
2252.000000	97.274754 
2251.000000	97.269662 
2250.000000	97.263549 
2249.000000	97.258103 
2248.000000	97.253944 
2247.000000	97.251545 
2246.000000	97.250817 
2245.000000	97.250398 
2244.000000	97.248773 
2243.000000	97.245917 
2242.000000	97.243005 
2241.000000	97.240942 
2240.000000	97.239769 
2239.000000	97.239089 
2238.000000	97.238324 
2237.000000	97.236872 
2236.000000	97.234610 
2235.000000	97.232047 
2234.000000	97.229743 
2233.000000	97.227697 
2232.000000	97.225605 
2231.000000	97.223398 
2230.000000	97.221210 
2229.000000	97.219038 
2228.000000	97.216811 
2227.000000	97.214591 
2226.000000	97.212475 
2225.000000	97.210427 
2224.000000	97.208290 
2223.000000	97.205977 
2222.000000	97.203541 
2221.000000	97.201139 
2220.000000	97.198837 
2219.000000	97.196570 
2218.000000	97.194266 
2217.000000	97.191922 
2216.000000	97.189584 
2215.000000	97.187279 
2214.000000	97.184981 
2213.000000	97.182651 
2212.000000	97.180294 
2211.000000	97.177987 
2210.000000	97.175792 
2209.000000	97.173710 
2208.000000	97.171694 
2207.000000	97.169661 
2206.000000	97.167512 
2205.000000	97.165262 
2204.000000	97.163220 
2203.000000	97.161922 
2202.000000	97.161563 
2201.000000	97.161420 
2200.000000	97.160156 
2199.000000	97.156734 
2198.000000	97.151125 
2197.000000	97.144517 
2196.000000	97.138850 
2195.000000	97.135415 
2194.000000	97.133849 
2193.000000	97.133126 
2192.000000	97.133255 
2191.000000	97.134593 
2190.000000	97.135648 
2189.000000	97.133836 
2188.000000	97.129011 
2187.000000	97.123880 
2186.000000	97.119856 
2185.000000	97.115203 
2184.000000	97.109449 
2183.000000	97.106901 
2182.000000	97.111999 
2181.000000	97.122498 
2180.000000	97.130366 
2179.000000	97.130243 
2178.000000	97.123852 
2177.000000	97.116630 
2176.000000	97.112494 
2175.000000	97.112070 
2174.000000	97.113904 
2173.000000	97.116247 
2172.000000	97.118660 
2171.000000	97.121802 
2170.000000	97.124786 
2169.000000	97.123991 
2168.000000	97.116849 
2167.000000	97.106243 
2166.000000	97.098334 
2165.000000	97.095489 
2164.000000	97.093811 
2163.000000	97.088825 
2162.000000	97.082376 
2161.000000	97.082473 
2160.000000	97.096296 
2159.000000	97.123296 
2158.000000	97.153750 
2157.000000	97.175914 
2156.000000	97.185869 
2155.000000	97.188090 
2154.000000	97.188695 
2153.000000	97.190530 
2152.000000	97.193658 
2151.000000	97.197127 
2150.000000	97.199358 
2149.000000	97.199774 
2148.000000	97.201340 
2147.000000	97.208453 
2146.000000	97.220758 
2145.000000	97.232311 
2144.000000	97.239211 
2143.000000	97.244398 
2142.000000	97.251854 
2141.000000	97.259597 
2140.000000	97.262903 
2139.000000	97.262351 
2138.000000	97.263742 
2137.000000	97.270555 
2136.000000	97.280259 
2135.000000	97.287890 
2134.000000	97.290392 
2133.000000	97.288055 
2132.000000	97.284212 
2131.000000	97.282743 
2130.000000	97.284086 
2129.000000	97.284817 
2128.000000	97.282759 
2127.000000	97.280821 
2126.000000	97.283377 
2125.000000	97.290034 
2124.000000	97.295850 
2123.000000	97.297284 
2122.000000	97.295234 
2121.000000	97.292307 
2120.000000	97.289356 
2119.000000	97.285334 
2118.000000	97.279329 
2117.000000	97.272311 
2116.000000	97.266977 
2115.000000	97.265162 
2114.000000	97.265333 
2113.000000	97.263755 
2112.000000	97.259180 
2111.000000	97.254624 
2110.000000	97.253331 
2109.000000	97.254904 
2108.000000	97.256866 
2107.000000	97.258203 
2106.000000	97.259332 
2105.000000	97.260119 
2104.000000	97.260234 
2103.000000	97.260242 
2102.000000	97.260018 
2101.000000	97.257294 
2100.000000	97.250561 
2099.000000	97.242738 
2098.000000	97.239315 
2097.000000	97.242390 
2096.000000	97.248690 
2095.000000	97.253284 
2094.000000	97.254094 
2093.000000	97.251797 
2092.000000	97.247309 
2091.000000	97.241272 
2090.000000	97.235076 
2089.000000	97.230304 
2088.000000	97.226993 
2087.000000	97.223430 
2086.000000	97.218004 
2085.000000	97.211007 
2084.000000	97.204526 
2083.000000	97.200392 
2082.000000	97.198380 
2081.000000	97.196800 
2080.000000	97.194901 
2079.000000	97.193703 
2078.000000	97.193683 
2077.000000	97.192842 
2076.000000	97.188931 
2075.000000	97.182961 
2074.000000	97.178203 
2073.000000	97.175402 
2072.000000	97.171535 
2071.000000	97.164203 
2070.000000	97.154991 
2069.000000	97.147154 
2068.000000	97.141845 
2067.000000	97.138299 
2066.000000	97.136183 
2065.000000	97.135584 
2064.000000	97.135378 
2063.000000	97.133982 
2062.000000	97.131667 
2061.000000	97.130404 
2060.000000	97.131189 
2059.000000	97.132732 
2058.000000	97.132923 
2057.000000	97.130586 
2056.000000	97.125329 
2055.000000	97.116814 
2054.000000	97.105600 
2053.000000	97.094274 
2052.000000	97.086404 
2051.000000	97.083519 
2050.000000	97.083746 
2049.000000	97.083585 
2048.000000	97.081375 
2047.000000	97.078257 
2046.000000	97.075667 
2045.000000	97.073419 
2044.000000	97.070860 
2043.000000	97.068662 
2042.000000	97.068208 
2041.000000	97.069679 
2040.000000	97.071971 
2039.000000	97.074362 
2038.000000	97.076813 
2037.000000	97.078597 
2036.000000	97.078112 
2035.000000	97.074704 
2034.000000	97.069989 
2033.000000	97.066830 
2032.000000	97.066943 
2031.000000	97.069484 
2030.000000	97.071431 
2029.000000	97.069798 
2028.000000	97.064299 
2027.000000	97.057862 
2026.000000	97.053994 
2025.000000	97.053922 
2024.000000	97.056895 
2023.000000	97.062170 
2022.000000	97.069260 
2021.000000	97.076256 
2020.000000	97.079760 
2019.000000	97.077306 
2018.000000	97.069192 
2017.000000	97.058546 
2016.000000	97.049765 
2015.000000	97.045960 
2014.000000	97.046646 
2013.000000	97.047614 
2012.000000	97.045328 
2011.000000	97.042060 
2010.000000	97.043858 
2009.000000	97.053007 
2008.000000	97.065115 
2007.000000	97.074634 
2006.000000	97.080601 
2005.000000	97.084880 
2004.000000	97.088262 
2003.000000	97.090886 
2002.000000	97.093931 
2001.000000	97.097217 
2000.000000	97.096981 
1999.000000	97.089173 
1998.000000	97.074433 
1997.000000	97.058780 
1996.000000	97.048824 
1995.000000	97.046926 
1994.000000	97.050556 
1993.000000	97.054657 
1992.000000	97.055725 
1991.000000	97.055222 
1990.000000	97.058025 
1989.000000	97.066260 
1988.000000	97.075551 
1987.000000	97.078775 
1986.000000	97.073271 
1985.000000	97.062920 
1984.000000	97.053183 
1983.000000	97.045343 
1982.000000	97.036800 
1981.000000	97.025845 
1980.000000	97.015366 
1979.000000	97.010958 
1978.000000	97.015098 
1977.000000	97.024279 
1976.000000	97.032590 
1975.000000	97.038066 
1974.000000	97.043425 
1973.000000	97.051089 
1972.000000	97.060027 
1971.000000	97.067806 
1970.000000	97.073192 
1969.000000	97.075336 
1968.000000	97.072540 
1967.000000	97.064736 
1966.000000	97.056712 
1965.000000	97.055293 
1964.000000	97.062901 
1963.000000	97.076226 
1962.000000	97.090421 
1961.000000	97.102810 
1960.000000	97.111959 
1959.000000	97.115997 
1958.000000	97.114551 
1957.000000	97.110983 
1956.000000	97.109899 
1955.000000	97.112474 
1954.000000	97.116269 
1953.000000	97.119185 
1952.000000	97.121159 
1951.000000	97.122412 
1950.000000	97.123027 
1949.000000	97.124378 
1948.000000	97.128659 
1947.000000	97.135893 
1946.000000	97.143005 
1945.000000	97.147172 
1944.000000	97.148700 
1943.000000	97.149692 
1942.000000	97.151062 
1941.000000	97.152129 
1940.000000	97.152544 
1939.000000	97.152940 
1938.000000	97.154221 
1937.000000	97.157113 
1936.000000	97.161693 
1935.000000	97.166863 
1934.000000	97.170839 
1933.000000	97.172893 
1932.000000	97.174142 
1931.000000	97.176363 
1930.000000	97.180028 
1929.000000	97.183847 
1928.000000	97.186630 
1927.000000	97.188557 
1926.000000	97.190354 
1925.000000	97.192074 
1924.000000	97.193195 
1923.000000	97.193665 
1922.000000	97.193763 
1921.000000	97.193612 
1920.000000	97.193466 
1919.000000	97.193737 
1918.000000	97.194444 
1917.000000	97.194949 
1916.000000	97.195004 
1915.000000	97.195527 
1914.000000	97.197244 
1913.000000	97.199531 
1912.000000	97.201073 
1911.000000	97.201471 
1910.000000	97.201479 
1909.000000	97.201888 
1908.000000	97.203088 
1907.000000	97.205049 
1906.000000	97.207114 
1905.000000	97.208066 
1904.000000	97.207195 
1903.000000	97.205490 
1902.000000	97.204726 
1901.000000	97.205394 
1900.000000	97.206641 
1899.000000	97.207551 
1898.000000	97.207917 
1897.000000	97.207945 
1896.000000	97.207747 
1895.000000	97.207494 
1894.000000	97.207351 
1893.000000	97.207188 
1892.000000	97.206998 
1891.000000	97.207345 
1890.000000	97.208698 
1889.000000	97.210563 
1888.000000	97.212098 
1887.000000	97.213303 
1886.000000	97.214598 
1885.000000	97.215804 
1884.000000	97.216396 
1883.000000	97.216507 
1882.000000	97.216964 
1881.000000	97.218277 
1880.000000	97.220212 
1879.000000	97.222117 
1878.000000	97.223495 
1877.000000	97.224490 
1876.000000	97.225773 
1875.000000	97.227897 
1874.000000	97.230803 
1873.000000	97.233831 
1872.000000	97.236370 
1871.000000	97.238352 
1870.000000	97.240002 
1869.000000	97.241508 
1868.000000	97.243101 
1867.000000	97.245208 
1866.000000	97.247982 
1865.000000	97.250807 
1864.000000	97.252908 
1863.000000	97.254297 
1862.000000	97.255709 
1861.000000	97.257653 
1860.000000	97.259984 
1859.000000	97.262550 
1858.000000	97.265488 
1857.000000	97.268591 
1856.000000	97.271215 
1855.000000	97.273048 
1854.000000	97.274522 
1853.000000	97.276234 
1852.000000	97.278704 
1851.000000	97.282339 
1850.000000	97.286975 
1849.000000	97.291795 
1848.000000	97.295906 
1847.000000	97.299112 
1846.000000	97.301644 
1845.000000	97.303638 
1844.000000	97.305304 
1843.000000	97.307069 
1842.000000	97.309210 
1841.000000	97.311680 
1840.000000	97.314658 
1839.000000	97.318462 
1838.000000	97.322785 
1837.000000	97.326353 
1836.000000	97.328313 
1835.000000	97.329756 
1834.000000	97.332347 
1833.000000	97.335880 
1832.000000	97.338799 
1831.000000	97.340160 
1830.000000	97.340730 
1829.000000	97.342071 
1828.000000	97.344440 
1827.000000	97.347019 
1826.000000	97.348950 
1825.000000	97.350198 
1824.000000	97.351333 
1823.000000	97.352759 
1822.000000	97.354616 
1821.000000	97.356505 
1820.000000	97.357757 
1819.000000	97.358247 
1818.000000	97.359033 
1817.000000	97.360794 
1816.000000	97.362316 
1815.000000	97.362880 
1814.000000	97.363483 
1813.000000	97.365295 
1812.000000	97.367621 
1811.000000	97.368491 
1810.000000	97.367863 
1809.000000	97.367033 
1808.000000	97.366467 
1807.000000	97.366658 
1806.000000	97.368681 
1805.000000	97.372189 
1804.000000	97.374293 
1803.000000	97.372814 
1802.000000	97.368527 
1801.000000	97.364591 
1800.000000	97.362862 
1799.000000	97.362623 
1798.000000	97.363356 
1797.000000	97.364552 
1796.000000	97.365044 
1795.000000	97.364745 
1794.000000	97.364842 
1793.000000	97.366182 
1792.000000	97.367641 
1791.000000	97.367651 
1790.000000	97.367388 
1789.000000	97.368905 
1788.000000	97.372321 
1787.000000	97.376151 
1786.000000	97.379055 
1785.000000	97.380637 
1784.000000	97.381091 
1783.000000	97.381529 
1782.000000	97.382483 
1781.000000	97.383771 
1780.000000	97.385383 
1779.000000	97.387365 
1778.000000	97.389981 
1777.000000	97.392735 
1776.000000	97.394837 
1775.000000	97.396034 
1774.000000	97.396565 
1773.000000	97.397386 
1772.000000	97.399264 
1771.000000	97.401249 
1770.000000	97.402440 
1769.000000	97.403191 
1768.000000	97.404151 
1767.000000	97.405665 
1766.000000	97.407609 
1765.000000	97.409839 
1764.000000	97.412234 
1763.000000	97.414441 
1762.000000	97.416091 
1761.000000	97.417344 
1760.000000	97.418631 
1759.000000	97.420096 
1758.000000	97.421528 
1757.000000	97.422735 
1756.000000	97.424035 
1755.000000	97.425614 
1754.000000	97.427211 
1753.000000	97.428490 
1752.000000	97.429408 
1751.000000	97.430277 
1750.000000	97.431460 
1749.000000	97.433007 
1748.000000	97.434728 
1747.000000	97.436453 
1746.000000	97.437999 
1745.000000	97.439329 
1744.000000	97.440578 
1743.000000	97.441707 
1742.000000	97.442584 
1741.000000	97.443388 
1740.000000	97.444469 
1739.000000	97.445866 
1738.000000	97.447214 
1737.000000	97.448208 
1736.000000	97.448582 
1735.000000	97.448072 
1734.000000	97.447415 
1733.000000	97.447317 
1732.000000	97.448053 
1731.000000	97.450006 
1730.000000	97.452872 
1729.000000	97.455311 
1728.000000	97.456446 
1727.000000	97.456715 
1726.000000	97.456907 
1725.000000	97.457512 
1724.000000	97.458251 
1723.000000	97.458639 
1722.000000	97.459134 
1721.000000	97.460139 
1720.000000	97.461010 
1719.000000	97.460379 
1718.000000	97.458372 
1717.000000	97.456664 
1716.000000	97.455417 
1715.000000	97.454687 
1714.000000	97.455340 
1713.000000	97.456854 
1712.000000	97.457556 
1711.000000	97.457352 
1710.000000	97.457441 
1709.000000	97.457883 
1708.000000	97.457706 
1707.000000	97.456833 
1706.000000	97.456455 
1705.000000	97.456564 
1704.000000	97.454983 
1703.000000	97.451002 
1702.000000	97.445727 
1701.000000	97.441526 
1700.000000	97.440244 
1699.000000	97.439602 
1698.000000	97.439485 
1697.000000	97.440599 
1696.000000	97.441526 
1695.000000	97.441337 
1694.000000	97.440722 
1693.000000	97.440421 
1692.000000	97.439952 
1691.000000	97.438674 
1690.000000	97.436717 
1689.000000	97.434472 
1688.000000	97.432385 
1687.000000	97.430597 
1686.000000	97.429050 
1685.000000	97.428041 
1684.000000	97.427426 
1683.000000	97.426202 
1682.000000	97.424411 
1681.000000	97.422313 
1680.000000	97.420249 
1679.000000	97.418580 
1678.000000	97.417288 
1677.000000	97.416072 
1676.000000	97.414806 
1675.000000	97.413455 
1674.000000	97.411283 
1673.000000	97.408378 
1672.000000	97.405742 
1671.000000	97.403958 
1670.000000	97.402915 
1669.000000	97.401961 
1668.000000	97.401127 
1667.000000	97.400718 
1666.000000	97.400143 
1665.000000	97.398915 
1664.000000	97.397441 
1663.000000	97.396794 
1662.000000	97.396685 
1661.000000	97.395437 
1660.000000	97.393197 
1659.000000	97.391409 
1658.000000	97.390478 
1657.000000	97.389637 
1656.000000	97.388116 
1655.000000	97.385040 
1654.000000	97.380495 
1653.000000	97.378146 
1652.000000	97.376416 
1651.000000	97.374642 
1650.000000	97.373925 
1649.000000	97.373777 
1648.000000	97.373105 
1647.000000	97.372513 
1646.000000	97.372649 
1645.000000	97.372773 
1644.000000	97.372139 
1643.000000	97.370942 
1642.000000	97.369825 
1641.000000	97.369010 
1640.000000	97.368856 
1639.000000	97.368810 
1638.000000	97.368187 
1637.000000	97.367110 
1636.000000	97.367361 
1635.000000	97.369104 
1634.000000	97.369788 
1633.000000	97.369043 
1632.000000	97.367465 
1631.000000	97.366159 
1630.000000	97.366057 
1629.000000	97.366911 
1628.000000	97.367855 
1627.000000	97.368798 
1626.000000	97.369519 
1625.000000	97.369608 
1624.000000	97.370056 
1623.000000	97.372615 
1622.000000	97.376349 
1621.000000	97.378439 
1620.000000	97.378678 
1619.000000	97.378480 
1618.000000	97.378680 
1617.000000	97.378765 
1616.000000	97.377948 
1615.000000	97.377115 
1614.000000	97.377167 
1613.000000	97.377113 
1612.000000	97.376208 
1611.000000	97.375690 
1610.000000	97.376339 
1609.000000	97.377680 
1608.000000	97.380418 
1607.000000	97.385562 
1606.000000	97.390800 
1605.000000	97.393047 
1604.000000	97.393662 
1603.000000	97.395382 
1602.000000	97.397877 
1601.000000	97.399270 
1600.000000	97.400049 
1599.000000	97.401956 
1598.000000	97.404503 
1597.000000	97.406317 
1596.000000	97.407930 
1595.000000	97.410919 
1594.000000	97.414940 
1593.000000	97.418052 
1592.000000	97.419991 
1591.000000	97.422197 
1590.000000	97.424749 
1589.000000	97.426338 
1588.000000	97.427694 
1587.000000	97.431017 
1586.000000	97.435950 
1585.000000	97.438636 
1584.000000	97.438212 
1583.000000	97.437426 
1582.000000	97.436580 
1581.000000	97.434535 
1580.000000	97.432998 
1579.000000	97.434291 
1578.000000	97.437537 
1577.000000	97.442085 
1576.000000	97.449134 
1575.000000	97.456419 
1574.000000	97.459872 
1573.000000	97.459477 
1572.000000	97.458377 
1571.000000	97.459547 
1570.000000	97.462573 
1569.000000	97.462199 
1568.000000	97.458788 
1567.000000	97.456767 
1566.000000	97.455878 
1565.000000	97.453735 
1564.000000	97.452090 
1563.000000	97.451659 
1562.000000	97.450237 
1561.000000	97.441992 
1560.000000	97.433618 
1559.000000	97.438054 
1558.000000	97.441588 
1557.000000	97.436464 
1556.000000	97.432752 
1555.000000	97.432436 
1554.000000	97.431286 
1553.000000	97.428051 
1552.000000	97.424481 
1551.000000	97.418268 
1550.000000	97.407812 
1549.000000	97.397025 
1548.000000	97.391089 
1547.000000	97.389784 
1546.000000	97.386090 
1545.000000	97.374036 
1544.000000	97.356348 
1543.000000	97.340098 
1542.000000	97.330570 
1541.000000	97.329370 
1540.000000	97.329768 
1539.000000	97.322430 
1538.000000	97.307403 
1537.000000	97.290376 
1536.000000	97.274188 
1535.000000	97.260689 
1534.000000	97.251087 
1533.000000	97.243941 
1532.000000	97.235419 
1531.000000	97.224220 
1530.000000	97.212439 
1529.000000	97.200897 
1528.000000	97.188001 
1527.000000	97.173245 
1526.000000	97.157922 
1525.000000	97.143638 
1524.000000	97.131598 
1523.000000	97.121970 
1522.000000	97.113200 
1521.000000	97.101459 
1520.000000	97.085119 
1519.000000	97.067805 
1518.000000	97.052451 
1517.000000	97.038545 
1516.000000	97.024299 
1515.000000	97.009944 
1514.000000	96.996933 
1513.000000	96.985294 
1512.000000	96.972885 
1511.000000	96.957399 
1510.000000	96.939022 
1509.000000	96.919259 
1508.000000	96.900657 
1507.000000	96.886677 
1506.000000	96.876773 
1505.000000	96.864787 
1504.000000	96.849300 
1503.000000	96.832155 
1502.000000	96.814520 
1501.000000	96.797316 
1500.000000	96.781363 
1499.000000	96.766574 
1498.000000	96.752050 
1497.000000	96.738129 
1496.000000	96.724940 
1495.000000	96.712012 
1494.000000	96.700001 
1493.000000	96.689838 
1492.000000	96.680994 
1491.000000	96.671528 
1490.000000	96.659754 
1489.000000	96.645505 
1488.000000	96.628650 
1487.000000	96.609988 
1486.000000	96.592112 
1485.000000	96.574721 
1484.000000	96.557157 
1483.000000	96.541183 
1482.000000	96.528287 
1481.000000	96.517790 
1480.000000	96.506932 
1479.000000	96.494511 
1478.000000	96.481031 
1477.000000	96.466477 
1476.000000	96.449226 
1475.000000	96.429809 
1474.000000	96.412659 
1473.000000	96.402480 
1472.000000	96.397708 
1471.000000	96.390452 
1470.000000	96.377485 
1469.000000	96.360808 
1468.000000	96.341842 
1467.000000	96.322456 
1466.000000	96.307218 
1465.000000	96.299513 
1464.000000	96.296163 
1463.000000	96.288504 
1462.000000	96.273473 
1461.000000	96.255098 
1460.000000	96.238591 
1459.000000	96.225864 
1458.000000	96.215980 
1457.000000	96.209602 
1456.000000	96.204024 
1455.000000	96.193201 
1454.000000	96.177120 
1453.000000	96.161860 
1452.000000	96.153276 
1451.000000	96.151790 
1450.000000	96.153844 
1449.000000	96.157217 
1448.000000	96.159335 
1447.000000	96.157446 
1446.000000	96.150588 
1445.000000	96.142336 
1444.000000	96.138301 
1443.000000	96.137822 
1442.000000	96.136812 
1441.000000	96.133425 
1440.000000	96.129061 
1439.000000	96.124158 
1438.000000	96.119171 
1437.000000	96.118337 
1436.000000	96.122649 
1435.000000	96.123139 
1434.000000	96.115517 
1433.000000	96.105961 
1432.000000	96.101128 
1431.000000	96.102591 
1430.000000	96.107583 
1429.000000	96.114250 
1428.000000	96.120529 
1427.000000	96.125118 
1426.000000	96.128629 
1425.000000	96.133668 
1424.000000	96.142618 
1423.000000	96.149405 
1422.000000	96.148252 
1421.000000	96.145059 
1420.000000	96.151589 
1419.000000	96.166381 
1418.000000	96.173913 
1417.000000	96.171825 
1416.000000	96.171888 
1415.000000	96.178682 
1414.000000	96.186553 
1413.000000	96.191299 
1412.000000	96.196339 
1411.000000	96.204370 
1410.000000	96.212581 
1409.000000	96.220219 
1408.000000	96.230108 
1407.000000	96.244432 
1406.000000	96.262257 
1405.000000	96.282186 
1404.000000	96.303715 
1403.000000	96.321557 
1402.000000	96.331530 
1401.000000	96.338782 
1400.000000	96.352263 
1399.000000	96.372117 
1398.000000	96.388704 
1397.000000	96.398507 
1396.000000	96.409382 
1395.000000	96.429124 
1394.000000	96.454190 
1393.000000	96.477322 
1392.000000	96.499411 
1391.000000	96.522959 
1390.000000	96.546507 
1389.000000	96.568419 
1388.000000	96.589602 
1387.000000	96.610534 
1386.000000	96.628982 
1385.000000	96.644721 
1384.000000	96.661834 
1383.000000	96.682056 
1382.000000	96.702771 
1381.000000	96.721896 
1380.000000	96.740029 
1379.000000	96.758661 
1378.000000	96.778154 
1377.000000	96.798565 
1376.000000	96.820164 
1375.000000	96.842156 
1374.000000	96.862015 
1373.000000	96.879296 
1372.000000	96.896611 
1371.000000	96.916342 
1370.000000	96.936898 
1369.000000	96.954299 
1368.000000	96.968612 
1367.000000	96.982966 
1366.000000	96.999558 
1365.000000	97.018742 
1364.000000	97.038346 
1363.000000	97.054164 
1362.000000	97.064059 
1361.000000	97.071330 
1360.000000	97.081909 
1359.000000	97.098706 
1358.000000	97.119353 
1357.000000	97.139402 
1356.000000	97.156453 
1355.000000	97.170369 
1354.000000	97.181775 
1353.000000	97.192825 
1352.000000	97.205100 
1351.000000	97.219163 
1350.000000	97.233956 
1349.000000	97.246939 
1348.000000	97.257939 
1347.000000	97.268977 
1346.000000	97.281425 
1345.000000	97.294465 
1344.000000	97.306674 
1343.000000	97.317877 
1342.000000	97.328619 
1341.000000	97.338373 
1340.000000	97.345567 
1339.000000	97.349543 
1338.000000	97.351380 
1337.000000	97.353326 
1336.000000	97.357099 
1335.000000	97.362224 
1334.000000	97.366792 
1333.000000	97.369753 
1332.000000	97.371547 
1331.000000	97.373417 
1330.000000	97.376369 
1329.000000	97.381032 
1328.000000	97.387464 
1327.000000	97.395222 
1326.000000	97.402851 
1325.000000	97.408260 
1324.000000	97.410939 
1323.000000	97.411804 
1322.000000	97.411966 
1321.000000	97.412513 
1320.000000	97.414528 
1319.000000	97.418107 
1318.000000	97.422184 
1317.000000	97.426045 
1316.000000	97.429567 
1315.000000	97.431757 
1314.000000	97.431211 
1313.000000	97.429243 
1312.000000	97.429796 
1311.000000	97.434718 
1310.000000	97.441104 
1309.000000	97.445401 
1308.000000	97.447772 
1307.000000	97.451058 
1306.000000	97.456238 
1305.000000	97.461213 
1304.000000	97.464048 
1303.000000	97.464409 
1302.000000	97.462774 
1301.000000	97.460079 
1300.000000	97.458065 
1299.000000	97.458125 
1298.000000	97.459687 
1297.000000	97.460720 
1296.000000	97.459868 
1295.000000	97.457702 
1294.000000	97.455926 
1293.000000	97.456000 
1292.000000	97.458031 
1291.000000	97.460503 
1290.000000	97.461755 
1289.000000	97.461813 
1288.000000	97.461891 
1287.000000	97.462027 
1286.000000	97.460750 
1285.000000	97.457887 
1284.000000	97.455955 
1283.000000	97.457142 
1282.000000	97.460164 
1281.000000	97.461641 
1280.000000	97.460158 
1279.000000	97.457578 
1278.000000	97.456704 
1277.000000	97.458645 
1276.000000	97.462077 
1275.000000	97.464431 
1274.000000	97.463977 
1273.000000	97.461561 
1272.000000	97.459932 
1271.000000	97.460592 
1270.000000	97.461888 
1269.000000	97.460994 
1268.000000	97.457111 
1267.000000	97.451536 
1266.000000	97.445561 
1265.000000	97.440156 
1264.000000	97.436787 
1263.000000	97.436375 
1262.000000	97.437658 
1261.000000	97.438223 
1260.000000	97.437850 
1259.000000	97.439333 
1258.000000	97.445021 
1257.000000	97.453360 
1256.000000	97.459517 
1255.000000	97.459859 
1254.000000	97.456029 
1253.000000	97.453796 
1252.000000	97.456965 
1251.000000	97.463177 
1250.000000	97.466826 
1249.000000	97.465227 
1248.000000	97.460227 
1247.000000	97.454422 
1246.000000	97.448709 
1245.000000	97.444051 
1244.000000	97.442330 
1243.000000	97.443684 
1242.000000	97.445301 
1241.000000	97.444608 
1240.000000	97.441821 
1239.000000	97.437931 
1238.000000	97.432175 
1237.000000	97.423357 
1236.000000	97.412216 
1235.000000	97.400699 
1234.000000	97.389944 
1233.000000	97.380206 
1232.000000	97.371350 
1231.000000	97.362052 
1230.000000	97.350222 
1229.000000	97.335769 
1228.000000	97.321140 
1227.000000	97.307378 
1226.000000	97.291341 
1225.000000	97.268872 
1224.000000	97.239352 
1223.000000	97.205329 
1222.000000	97.169049 
1221.000000	97.131466 
1220.000000	97.093764 
1219.000000	97.057304 
1218.000000	97.022036 
1217.000000	96.986525 
1216.000000	96.949042 
1215.000000	96.907622 
1214.000000	96.860791 
1213.000000	96.810286 
1212.000000	96.761232 
1211.000000	96.716565 
1210.000000	96.672590 
1209.000000	96.623458 
1208.000000	96.569245 
1207.000000	96.516083 
1206.000000	96.468252 
1205.000000	96.423285 
1204.000000	96.375792 
1203.000000	96.323646 
1202.000000	96.269499 
1201.000000	96.217896 
1200.000000	96.171471 
1199.000000	96.128655 
1198.000000	96.084930 
1197.000000	96.037555 
1196.000000	95.988397 
1195.000000	95.940954 
1194.000000	95.895738 
1193.000000	95.850365 
1192.000000	95.803252 
1191.000000	95.754832 
1190.000000	95.705614 
1189.000000	95.655215 
1188.000000	95.603139 
1187.000000	95.549032 
1186.000000	95.492850 
1185.000000	95.436163 
1184.000000	95.381826 
1183.000000	95.330441 
1182.000000	95.278669 
1181.000000	95.223276 
1180.000000	95.165124 
1179.000000	95.106455 
1178.000000	95.045967 
1177.000000	94.980042 
1176.000000	94.907613 
1175.000000	94.830529 
1174.000000	94.750366 
1173.000000	94.668527 
1172.000000	94.588386 
1171.000000	94.512913 
1170.000000	94.440558 
1169.000000	94.367676 
1168.000000	94.294773 
1167.000000	94.226383 
1166.000000	94.165822 
1165.000000	94.115264 
1164.000000	94.080410 
1163.000000	94.068640 
1162.000000	94.080851 
1161.000000	94.109114 
1160.000000	94.142833 
1159.000000	94.172943 
1158.000000	94.190387 
1157.000000	94.186955 
1156.000000	94.160404 
1155.000000	94.115648 
1154.000000	94.059603 
1153.000000	93.997129 
1152.000000	93.931859 
1151.000000	93.866857 
1150.000000	93.803206 
1149.000000	93.741186 
1148.000000	93.683028 
1147.000000	93.630382 
1146.000000	93.578935 
1145.000000	93.520732 
1144.000000	93.453340 
1143.000000	93.382517 
1142.000000	93.314400 
1141.000000	93.249007 
1140.000000	93.182932 
1139.000000	93.114388 
1138.000000	93.043894 
1137.000000	92.973368 
1136.000000	92.905640 
1135.000000	92.841514 
1134.000000	92.776855 
1133.000000	92.706369 
1132.000000	92.630431 
1131.000000	92.554040 
1130.000000	92.479182 
1129.000000	92.403206 
1128.000000	92.325008 
1127.000000	92.247077 
1126.000000	92.170135 
1125.000000	92.091105 
1124.000000	92.008132 
1123.000000	91.923093 
1122.000000	91.837881 
1121.000000	91.752781 
1120.000000	91.669379 
1119.000000	91.589979 
1118.000000	91.513146 
1117.000000	91.435008 
1116.000000	91.355777 
1115.000000	91.279838 
1114.000000	91.208900 
1113.000000	91.140528 
1112.000000	91.073671 
1111.000000	91.009511 
1110.000000	90.946382 
1109.000000	90.880562 
1108.000000	90.812620 
1107.000000	90.746450 
1106.000000	90.682004 
1105.000000	90.615433 
1104.000000	90.546323 
1103.000000	90.478095 
1102.000000	90.410823 
1101.000000	90.342052 
1100.000000	90.274017 
1099.000000	90.212833 
1098.000000	90.160159 
1097.000000	90.111576 
1096.000000	90.063865 
1095.000000	90.016156 
1094.000000	89.965025 
1093.000000	89.907488 
1092.000000	89.849403 
1091.000000	89.801686 
1090.000000	89.766706 
1089.000000	89.736218 
1088.000000	89.703333 
1087.000000	89.668331 
1086.000000	89.632495 
1085.000000	89.595741 
1084.000000	89.561871 
1083.000000	89.537150 
1082.000000	89.521399 
1081.000000	89.508029 
1080.000000	89.493857 
1079.000000	89.481052 
1078.000000	89.469044 
1077.000000	89.453163 
1076.000000	89.431967 
1075.000000	89.407437 
1074.000000	89.377569 
1073.000000	89.337441 
1072.000000	89.287489 
1071.000000	89.231370 
1070.000000	89.165392 
1069.000000	89.080280 
1068.000000	88.975057 
1067.000000	88.860195 
1066.000000	88.745702 
1065.000000	88.634873 
1064.000000	88.530420 
1063.000000	88.435202 
1062.000000	88.343776 
1061.000000	88.244009 
1060.000000	88.131311 
1059.000000	88.012976 
1058.000000	87.896146 
1057.000000	87.780815 
1056.000000	87.667419 
1055.000000	87.561141 
1054.000000	87.463931 
1053.000000	87.370284 
1052.000000	87.274801 
1051.000000	87.176294 
1050.000000	87.071668 
1049.000000	86.955279 
1048.000000	86.827924 
1047.000000	86.697635 
1046.000000	86.569410 
1045.000000	86.442345 
1044.000000	86.316817 
1043.000000	86.195273 
1042.000000	86.075733 
1041.000000	85.953740 
1040.000000	85.831396 
1039.000000	85.715895 
1038.000000	85.609496 
1037.000000	85.510135 
1036.000000	85.420616 
1035.000000	85.346549 
1034.000000	85.286117 
1033.000000	85.232816 
1032.000000	85.186872 
1031.000000	85.152099 
1030.000000	85.123393 
1029.000000	85.091074 
1028.000000	85.057175 
1027.000000	85.033549 
1026.000000	85.023575 
1025.000000	85.018959 
1024.000000	85.014454 
1023.000000	85.011950 
1022.000000	85.009714 
1021.000000	85.002021 
1020.000000	84.990676 
1019.000000	84.983472 
1018.000000	84.980382 
1017.000000	84.974506 
1016.000000	84.966798 
1015.000000	84.965606 
1014.000000	84.971064 
1013.000000	84.974688 
1012.000000	84.975765 
1011.000000	84.983384 
1010.000000	85.000394 
1009.000000	85.019958 
1008.000000	85.040200 
1007.000000	85.068049 
1006.000000	85.106149 
1005.000000	85.149800 
1004.000000	85.198685 
1003.000000	85.257188 
1002.000000	85.320899 
1001.000000	85.378106 
1000.000000	85.428504 
999.000000	 85.485847 
998.000000	 85.557535 
997.000000	 85.635313 
996.000000	 85.710718 
995.000000	 85.786919 
994.000000	 85.869659 
993.000000	 85.958009 
992.000000	 86.049445 
991.000000	 86.143999 
990.000000	 86.239083 
989.000000	 86.329653 
988.000000	 86.416959 
987.000000	 86.508331 
986.000000	 86.606496 
985.000000	 86.708483 
984.000000	 86.815668 
983.000000	 86.933674 
982.000000	 87.060886 
981.000000	 87.188632 
980.000000	 87.314823 
979.000000	 87.445876 
978.000000	 87.582791 
977.000000	 87.717314 
976.000000	 87.845410 
975.000000	 87.973549 
974.000000	 88.107716 
973.000000	 88.246267 
972.000000	 88.387263 
971.000000	 88.532904 
970.000000	 88.682389 
969.000000	 88.829117 
968.000000	 88.969189 
967.000000	 89.105510 
966.000000	 89.240859 
965.000000	 89.374207 
964.000000	 89.505963 
963.000000	 89.639117 
962.000000	 89.772902 
961.000000	 89.902627 
960.000000	 90.027362 
959.000000	 90.150344 
958.000000	 90.270642 
957.000000	 90.382645 
956.000000	 90.485822 
955.000000	 90.587327 
954.000000	 90.692518 
953.000000	 90.799443 
952.000000	 90.904498 
951.000000	 91.006427 
950.000000	 91.103200 
949.000000	 91.191897 
948.000000	 91.273401 
947.000000	 91.351208 
946.000000	 91.424873 
945.000000	 91.491186 
944.000000	 91.552119 
943.000000	 91.614420 
942.000000	 91.680342 
941.000000	 91.745919 
940.000000	 91.809366 
939.000000	 91.873740 
938.000000	 91.940194 
937.000000	 92.005870 
936.000000	 92.069774 
935.000000	 92.133756 
934.000000	 92.196710 
933.000000	 92.255083 
932.000000	 92.310304 
931.000000	 92.368549 
930.000000	 92.431588 
929.000000	 92.494621 
928.000000	 92.554682 
927.000000	 92.614321 
926.000000	 92.675299 
925.000000	 92.734768 
924.000000	 92.789131 
923.000000	 92.836511 
922.000000	 92.875356 
921.000000	 92.906690 
920.000000	 92.937705 
919.000000	 92.976147 
918.000000	 93.020193 
917.000000	 93.060210 
916.000000	 93.091669 
915.000000	 93.120555 
914.000000	 93.155268 
913.000000	 93.199127 
912.000000	 93.251797 
911.000000	 93.312235 
910.000000	 93.378904 
909.000000	 93.451602 
908.000000	 93.532851 
907.000000	 93.623186 
906.000000	 93.717202 
905.000000	 93.809926 
904.000000	 93.904073 
903.000000	 94.003877 
902.000000	 94.104885 
901.000000	 94.198810 
900.000000	 94.286759 
899.000000	 94.378285 
898.000000	 94.477550 
897.000000	 94.578706 
896.000000	 94.674637 
895.000000	 94.762207 
894.000000	 94.839585 
893.000000	 94.907110 
892.000000	 94.971151 
891.000000	 95.038887 
890.000000	 95.107530 
889.000000	 95.164394 
888.000000	 95.197150 
887.000000	 95.199210 
886.000000	 95.169728 
885.000000	 95.117467 
884.000000	 95.061396 
883.000000	 95.015709 
882.000000	 94.974886 
881.000000	 94.925291 
880.000000	 94.870738 
879.000000	 94.832299 
878.000000	 94.821534 
877.000000	 94.830117 
876.000000	 94.850114 
875.000000	 94.888663 
874.000000	 94.955262 
873.000000	 95.048770 
872.000000	 95.164641 
871.000000	 95.302092 
870.000000	 95.455607 
869.000000	 95.609895 
868.000000	 95.751498 
867.000000	 95.878032 
866.000000	 95.991191 
865.000000	 96.089923 
864.000000	 96.176942 
863.000000	 96.263654 
862.000000	 96.359692 
861.000000	 96.461443 
860.000000	 96.557087 
859.000000	 96.639542 
858.000000	 96.710204 
857.000000	 96.774155 
856.000000	 96.835998 
855.000000	 96.896774 
854.000000	 96.951083 
853.000000	 96.990597 
852.000000	 97.013703 
851.000000	 97.028881 
850.000000	 97.046854 
849.000000	 97.073095 
848.000000	 97.108644 
847.000000	 97.151877 
846.000000	 97.196954 
845.000000	 97.236708 
844.000000	 97.270104 
843.000000	 97.302043 
842.000000	 97.334218 
841.000000	 97.361908 
840.000000	 97.380852 
839.000000	 97.390327 
838.000000	 97.388496 
837.000000	 97.373695 
836.000000	 97.353438 
835.000000	 97.343183 
834.000000	 97.350291 
833.000000	 97.365918 
832.000000	 97.377645 
831.000000	 97.382727 
830.000000	 97.383924 
829.000000	 97.381199 
828.000000	 97.376618 
827.000000	 97.380896 
826.000000	 97.403707 
825.000000	 97.439937 
824.000000	 97.474115 
823.000000	 97.495299 
822.000000	 97.500792 
821.000000	 97.491191 
820.000000	 97.470836 
819.000000	 97.448661 
818.000000	 97.429391 
817.000000	 97.405512 
816.000000	 97.364450 
815.000000	 97.302452 
814.000000	 97.226162 
813.000000	 97.141355 
812.000000	 97.044699 
811.000000	 96.925534 
810.000000	 96.770932 
809.000000	 96.570059 
808.000000	 96.319621 
807.000000	 96.027966 
806.000000	 95.712496 
805.000000	 95.392242 
804.000000	 95.082620 
803.000000	 94.793514 
802.000000	 94.529816 
801.000000	 94.297434 
800.000000	 94.110061 
799.000000	 93.983830 
798.000000	 93.922388 
797.000000	 93.913111 
796.000000	 93.939771 
795.000000	 93.991519 
794.000000	 94.058125 
793.000000	 94.126801 
792.000000	 94.189066 
791.000000	 94.244004 
790.000000	 94.290752 
789.000000	 94.323445 
788.000000	 94.335969 
787.000000	 94.325259 
786.000000	 94.287353 
785.000000	 94.216785 
784.000000	 94.113832 
783.000000	 93.988043 
782.000000	 93.852997 
781.000000	 93.723153 
780.000000	 93.616038 
779.000000	 93.548144 
778.000000	 93.524805 
777.000000	 93.541121 
776.000000	 93.594246 
775.000000	 93.684976 
774.000000	 93.804865 
773.000000	 93.933670 
772.000000	 94.055819 
771.000000	 94.171214 
770.000000	 94.285176 
769.000000	 94.396237 
768.000000	 94.498570 
767.000000	 94.588193 
766.000000	 94.661745 
765.000000	 94.717276 
764.000000	 94.762227 
763.000000	 94.813279 
762.000000	 94.881124 
761.000000	 94.960047 
760.000000	 95.037111 
759.000000	 95.105799 
758.000000	 95.166705 
757.000000	 95.223052 
756.000000	 95.282649 
755.000000	 95.357095 
754.000000	 95.448746 
753.000000	 95.540928 
752.000000	 95.609549 
751.000000	 95.645198 
750.000000	 95.661016 
749.000000	 95.680847 
748.000000	 95.721649 
747.000000	 95.783345 
746.000000	 95.851020 
745.000000	 95.908813 
744.000000	 95.954753 
743.000000	 96.000627 
742.000000	 96.056510 
741.000000	 96.119662 
740.000000	 96.181024 
739.000000	 96.237411 
738.000000	 96.292490 
737.000000	 96.348726 
736.000000	 96.403207 
735.000000	 96.451127 
734.000000	 96.490480 
733.000000	 96.523434 
732.000000	 96.554161 
731.000000	 96.584590 
730.000000	 96.611846 
729.000000	 96.630909 
728.000000	 96.641482 
727.000000	 96.650038 
726.000000	 96.664474 
725.000000	 96.690021 
724.000000	 96.727771 
723.000000	 96.771716 
722.000000	 96.808796 
721.000000	 96.828513 
720.000000	 96.832814 
719.000000	 96.829675 
718.000000	 96.819006 
717.000000	 96.795154 
716.000000	 96.760818 
715.000000	 96.728366 
714.000000	 96.707624 
713.000000	 96.702007 
712.000000	 96.717410 
711.000000	 96.761057 
710.000000	 96.826920 
709.000000	 96.894334 
708.000000	 96.947922 
707.000000	 96.988280 
706.000000	 97.017320 
705.000000	 97.027503 
704.000000	 97.013859 
703.000000	 96.982880 
702.000000	 96.940120 
701.000000	 96.877345 
700.000000	 96.782092 
699.000000	 96.656179 
698.000000	 96.514818 
697.000000	 96.375749 
696.000000	 96.258863 
695.000000	 96.186597 
694.000000	 96.173483 
693.000000	 96.213680 
692.000000	 96.286136 
691.000000	 96.373595 
690.000000	 96.468723 
689.000000	 96.565425 
688.000000	 96.653010 
687.000000	 96.721026 
686.000000	 96.767764 
685.000000	 96.800601 
684.000000	 96.829482 
683.000000	 96.861200 
682.000000	 96.896373 
681.000000	 96.932928 
680.000000	 96.970811 
679.000000	 97.012879 
678.000000	 97.056733 
677.000000	 97.094762 
676.000000	 97.130085 
675.000000	 97.170771 
674.000000	 97.212353 
673.000000	 97.241253 
672.000000	 97.254480 
671.000000	 97.275666 
670.000000	 97.343323 
669.000000	 97.479026 
668.000000	 97.597874 
667.000000	 97.595946 
666.000000	 97.524886 
665.000000	 97.456636 
664.000000	 97.405253 
663.000000	 97.375788 
662.000000	 97.372906 
661.000000	 97.385385 
660.000000	 97.405054 
659.000000	 97.436432 
658.000000	 97.479281 
657.000000	 97.514165 
656.000000	 97.526804 
655.000000	 97.517697 
654.000000	 97.490521 
653.000000	 97.450260 
652.000000	 97.414877 
651.000000	 97.407732 
650.000000	 97.427947 

