4000.000000	97.819559 
3999.000000	97.818794 
3998.000000	97.815461 
3997.000000	97.810239 
3996.000000	97.805064 
3995.000000	97.801823 
3994.000000	97.801224 
3993.000000	97.802568 
3992.000000	97.804312 
3991.000000	97.805213 
3990.000000	97.805124 
3989.000000	97.804640 
3988.000000	97.804193 
3987.000000	97.803825 
3986.000000	97.803704 
3985.000000	97.804288 
3984.000000	97.805757 
3983.000000	97.807588 
3982.000000	97.809095 
3981.000000	97.810082 
3980.000000	97.810594 
3979.000000	97.810415 
3978.000000	97.809349 
3977.000000	97.807854 
3976.000000	97.806827 
3975.000000	97.806538 
3974.000000	97.806234 
3973.000000	97.804977 
3972.000000	97.802558 
3971.000000	97.799607 
3970.000000	97.797125 
3969.000000	97.796084 
3968.000000	97.797058 
3967.000000	97.799845 
3966.000000	97.803390 
3965.000000	97.806169 
3964.000000	97.806825 
3963.000000	97.804821 
3962.000000	97.800860 
3961.000000	97.796607 
3960.000000	97.793452 
3959.000000	97.791607 
3958.000000	97.790496 
3957.000000	97.789838 
3956.000000	97.789805 
3955.000000	97.790320 
3954.000000	97.790882 
3953.000000	97.790979 
3952.000000	97.790450 
3951.000000	97.789306 
3950.000000	97.787547 
3949.000000	97.785292 
3948.000000	97.782871 
3947.000000	97.780801 
3946.000000	97.779466 
3945.000000	97.778642 
3944.000000	97.777534 
3943.000000	97.775736 
3942.000000	97.774152 
3941.000000	97.774245 
3940.000000	97.776438 
3939.000000	97.779759 
3938.000000	97.782768 
3937.000000	97.784812 
3936.000000	97.785911 
3935.000000	97.785810 
3934.000000	97.784064 
3933.000000	97.780875 
3932.000000	97.777369 
3931.000000	97.774500 
3930.000000	97.772444 
3929.000000	97.771369 
3928.000000	97.771732 
3927.000000	97.773494 
3926.000000	97.775387 
3925.000000	97.775927 
3924.000000	97.775080 
3923.000000	97.773823 
3922.000000	97.772628 
3921.000000	97.771355 
3920.000000	97.770145 
3919.000000	97.769515 
3918.000000	97.769351 
3917.000000	97.768890 
3916.000000	97.767908 
3915.000000	97.767133 
3914.000000	97.767120 
3913.000000	97.767614 
3912.000000	97.767985 
3911.000000	97.768020 
3910.000000	97.767783 
3909.000000	97.767519 
3908.000000	97.767519 
3907.000000	97.767837 
3906.000000	97.768032 
3905.000000	97.767303 
3904.000000	97.765451 
3903.000000	97.763212 
3902.000000	97.761482 
3901.000000	97.760486 
3900.000000	97.759895 
3899.000000	97.759482 
3898.000000	97.759288 
3897.000000	97.759201 
3896.000000	97.758882 
3895.000000	97.758252 
3894.000000	97.757594 
3893.000000	97.757243 
3892.000000	97.756912 
3891.000000	97.756003 
3890.000000	97.754555 
3889.000000	97.753300 
3888.000000	97.752668 
3887.000000	97.752079 
3886.000000	97.750747 
3885.000000	97.748838 
3884.000000	97.747081 
3883.000000	97.745635 
3882.000000	97.744237 
3881.000000	97.743039 
3880.000000	97.742518 
3879.000000	97.742596 
3878.000000	97.742699 
3877.000000	97.742556 
3876.000000	97.742229 
3875.000000	97.741617 
3874.000000	97.740675 
3873.000000	97.739825 
3872.000000	97.739331 
3871.000000	97.738530 
3870.000000	97.736860 
3869.000000	97.735360 
3868.000000	97.735296 
3867.000000	97.736312 
3866.000000	97.736683 
3865.000000	97.735752 
3864.000000	97.734924 
3863.000000	97.735157 
3862.000000	97.735169 
3861.000000	97.734187 
3860.000000	97.732959 
3859.000000	97.731951 
3858.000000	97.730270 
3857.000000	97.727401 
3856.000000	97.724718 
3855.000000	97.723330 
3854.000000	97.722324 
3853.000000	97.721648 
3852.000000	97.722432 
3851.000000	97.724534 
3850.000000	97.726393 
3849.000000	97.727461 
3848.000000	97.728964 
3847.000000	97.731780 
3846.000000	97.734495 
3845.000000	97.735334 
3844.000000	97.734058 
3843.000000	97.731549 
3842.000000	97.728956 
3841.000000	97.727369 
3840.000000	97.726950 
3839.000000	97.727690 
3838.000000	97.729274 
3837.000000	97.730499 
3836.000000	97.730485 
3835.000000	97.729678 
3834.000000	97.729358 
3833.000000	97.730223 
3832.000000	97.731900 
3831.000000	97.733980 
3830.000000	97.736319 
3829.000000	97.738819 
3828.000000	97.741180 
3827.000000	97.742653 
3826.000000	97.742641 
3825.000000	97.741908 
3824.000000	97.741385 
3823.000000	97.740624 
3822.000000	97.738185 
3821.000000	97.734090 
3820.000000	97.730570 
3819.000000	97.729024 
3818.000000	97.728818 
3817.000000	97.728496 
3816.000000	97.728204 
3815.000000	97.729545 
3814.000000	97.732427 
3813.000000	97.734687 
3812.000000	97.735109 
3811.000000	97.734790 
3810.000000	97.735318 
3809.000000	97.736738 
3808.000000	97.737527 
3807.000000	97.736768 
3806.000000	97.735432 
3805.000000	97.734885 
3804.000000	97.735151 
3803.000000	97.735405 
3802.000000	97.734925 
3801.000000	97.734274 
3800.000000	97.734456 
3799.000000	97.735129 
3798.000000	97.735332 
3797.000000	97.734937 
3796.000000	97.734772 
3795.000000	97.735282 
3794.000000	97.735871 
3793.000000	97.735733 
3792.000000	97.735113 
3791.000000	97.735034 
3790.000000	97.735692 
3789.000000	97.736038 
3788.000000	97.735255 
3787.000000	97.733825 
3786.000000	97.732788 
3785.000000	97.732452 
3784.000000	97.732513 
3783.000000	97.732854 
3782.000000	97.733248 
3781.000000	97.733213 
3780.000000	97.732720 
3779.000000	97.732677 
3778.000000	97.733640 
3777.000000	97.734791 
3776.000000	97.734511 
3775.000000	97.732185 
3774.000000	97.729116 
3773.000000	97.727362 
3772.000000	97.727277 
3771.000000	97.727210 
3770.000000	97.726245 
3769.000000	97.725596 
3768.000000	97.726009 
3767.000000	97.726104 
3766.000000	97.724002 
3765.000000	97.719921 
3764.000000	97.716602 
3763.000000	97.716263 
3762.000000	97.718043 
3761.000000	97.719612 
3760.000000	97.720145 
3759.000000	97.720187 
3758.000000	97.718355 
3757.000000	97.713022 
3756.000000	97.705456 
3755.000000	97.698199 
3754.000000	97.692292 
3753.000000	97.687445 
3752.000000	97.684676 
3751.000000	97.684746 
3750.000000	97.684433 
3749.000000	97.681217 
3748.000000	97.678341 
3747.000000	97.679981 
3746.000000	97.684640 
3745.000000	97.685909 
3744.000000	97.683882 
3743.000000	97.684065 
3742.000000	97.686030 
3741.000000	97.685440 
3740.000000	97.681978 
3739.000000	97.680486 
3738.000000	97.683136 
3737.000000	97.685407 
3736.000000	97.683709 
3735.000000	97.681804 
3734.000000	97.684518 
3733.000000	97.689866 
3732.000000	97.693092 
3731.000000	97.693190 
3730.000000	97.691837 
3729.000000	97.690069 
3728.000000	97.687696 
3727.000000	97.684913 
3726.000000	97.683336 
3725.000000	97.683801 
3724.000000	97.684975 
3723.000000	97.685429 
3722.000000	97.685495 
3721.000000	97.685916 
3720.000000	97.686165 
3719.000000	97.685868 
3718.000000	97.685004 
3717.000000	97.683819 
3716.000000	97.682897 
3715.000000	97.681787 
3714.000000	97.679101 
3713.000000	97.674404 
3712.000000	97.669484 
3711.000000	97.666648 
3710.000000	97.666042 
3709.000000	97.666491 
3708.000000	97.666707 
3707.000000	97.665669 
3706.000000	97.663610 
3705.000000	97.661885 
3704.000000	97.661665 
3703.000000	97.662552 
3702.000000	97.662356 
3701.000000	97.658983 
3700.000000	97.652564 
3699.000000	97.645484 
3698.000000	97.639632 
3697.000000	97.634946 
3696.000000	97.631368 
3695.000000	97.628925 
3694.000000	97.626176 
3693.000000	97.621857 
3692.000000	97.617365 
3691.000000	97.615286 
3690.000000	97.614848 
3689.000000	97.612875 
3688.000000	97.609287 
3687.000000	97.607013 
3686.000000	97.606670 
3685.000000	97.604911 
3684.000000	97.599413 
3683.000000	97.592757 
3682.000000	97.588878 
3681.000000	97.586359 
3680.000000	97.580359 
3679.000000	97.570168 
3678.000000	97.560678 
3677.000000	97.553578 
3676.000000	97.544879 
3675.000000	97.534512 
3674.000000	97.526345 
3673.000000	97.521366 
3672.000000	97.516983 
3671.000000	97.511133 
3670.000000	97.505854 
3669.000000	97.503907 
3668.000000	97.503345 
3667.000000	97.501145 
3666.000000	97.497982 
3665.000000	97.495895 
3664.000000	97.494877 
3663.000000	97.493063 
3662.000000	97.488451 
3661.000000	97.480438 
3660.000000	97.470355 
3659.000000	97.459596 
3658.000000	97.448371 
3657.000000	97.435211 
3656.000000	97.420391 
3655.000000	97.407420 
3654.000000	97.399058 
3653.000000	97.394524 
3652.000000	97.390178 
3651.000000	97.382523 
3650.000000	97.371280 
3649.000000	97.358828 
3648.000000	97.347534 
3647.000000	97.339294 
3646.000000	97.335134 
3645.000000	97.334472 
3644.000000	97.335498 
3643.000000	97.336454 
3642.000000	97.335951 
3641.000000	97.333110 
3640.000000	97.327537 
3639.000000	97.319645 
3638.000000	97.311555 
3637.000000	97.305765 
3636.000000	97.302430 
3635.000000	97.298465 
3634.000000	97.291307 
3633.000000	97.282154 
3632.000000	97.273442 
3631.000000	97.264005 
3630.000000	97.249349 
3629.000000	97.230141 
3628.000000	97.214691 
3627.000000	97.207854 
3626.000000	97.206939 
3625.000000	97.208316 
3624.000000	97.211460 
3623.000000	97.217252 
3622.000000	97.224273 
3621.000000	97.227698 
3620.000000	97.222962 
3619.000000	97.210466 
3618.000000	97.195609 
3617.000000	97.184857 
3616.000000	97.182281 
3615.000000	97.187343 
3614.000000	97.195418 
3613.000000	97.201535 
3612.000000	97.203789 
3611.000000	97.202773 
3610.000000	97.199521 
3609.000000	97.195012 
3608.000000	97.190636 
3607.000000	97.187854 
3606.000000	97.187382 
3605.000000	97.189867 
3604.000000	97.196189 
3603.000000	97.206046 
3602.000000	97.217052 
3601.000000	97.225489 
3600.000000	97.229151 
3599.000000	97.228387 
3598.000000	97.224975 
3597.000000	97.220939 
3596.000000	97.218164 
3595.000000	97.216805 
3594.000000	97.215939 
3593.000000	97.215494 
3592.000000	97.216417 
3591.000000	97.219171 
3590.000000	97.222135 
3589.000000	97.222498 
3588.000000	97.219929 
3587.000000	97.218035 
3586.000000	97.220042 
3585.000000	97.225436 
3584.000000	97.231956 
3583.000000	97.238076 
3582.000000	97.243403 
3581.000000	97.247337 
3580.000000	97.248953 
3579.000000	97.248024 
3578.000000	97.245606 
3577.000000	97.243304 
3576.000000	97.241945 
3575.000000	97.241342 
3574.000000	97.240875 
3573.000000	97.240429 
3572.000000	97.239986 
3571.000000	97.239027 
3570.000000	97.236203 
3569.000000	97.229712 
3568.000000	97.219377 
3567.000000	97.208489 
3566.000000	97.201245 
3565.000000	97.198951 
3564.000000	97.200152 
3563.000000	97.202570 
3562.000000	97.204488 
3561.000000	97.205498 
3560.000000	97.206213 
3559.000000	97.207479 
3558.000000	97.209745 
3557.000000	97.213157 
3556.000000	97.217583 
3555.000000	97.222228 
3554.000000	97.225399 
3553.000000	97.225582 
3552.000000	97.223123 
3551.000000	97.220230 
3550.000000	97.219062 
3549.000000	97.220043 
3548.000000	97.221838 
3547.000000	97.222523 
3546.000000	97.221011 
3545.000000	97.218073 
3544.000000	97.216054 
3543.000000	97.217012 
3542.000000	97.221024 
3541.000000	97.226573 
3540.000000	97.232149 
3539.000000	97.236916 
3538.000000	97.240034 
3537.000000	97.240338 
3536.000000	97.237372 
3535.000000	97.232129 
3534.000000	97.226708 
3533.000000	97.222967 
3532.000000	97.221608 
3531.000000	97.222091 
3530.000000	97.222993 
3529.000000	97.222879 
3528.000000	97.221326 
3527.000000	97.219237 
3526.000000	97.218046 
3525.000000	97.218692 
3524.000000	97.221223 
3523.000000	97.224885 
3522.000000	97.228419 
3521.000000	97.230744 
3520.000000	97.231580 
3519.000000	97.231319 
3518.000000	97.230421 
3517.000000	97.228933 
3516.000000	97.226725 
3515.000000	97.224047 
3514.000000	97.221714 
3513.000000	97.220528 
3512.000000	97.220553 
3511.000000	97.221075 
3510.000000	97.221370 
3509.000000	97.221489 
3508.000000	97.222138 
3507.000000	97.223799 
3506.000000	97.226039 
3505.000000	97.227684 
3504.000000	97.227745 
3503.000000	97.226126 
3502.000000	97.223585 
3501.000000	97.221204 
3500.000000	97.219867 
3499.000000	97.219953 
3498.000000	97.221122 
3497.000000	97.222362 
3496.000000	97.222602 
3495.000000	97.221554 
3494.000000	97.220033 
3493.000000	97.219369 
3492.000000	97.220277 
3491.000000	97.222285 
3490.000000	97.224228 
3489.000000	97.225262 
3488.000000	97.225239 
3487.000000	97.224337 
3486.000000	97.222802 
3485.000000	97.221126 
3484.000000	97.219962 
3483.000000	97.219437 
3482.000000	97.218769 
3481.000000	97.216993 
3480.000000	97.214067 
3479.000000	97.210977 
3478.000000	97.208697 
3477.000000	97.207273 
3476.000000	97.205968 
3475.000000	97.204268 
3474.000000	97.202734 
3473.000000	97.202797 
3472.000000	97.205526 
3471.000000	97.210368 
3470.000000	97.215165 
3469.000000	97.217753 
3468.000000	97.217459 
3467.000000	97.215060 
3466.000000	97.211579 
3465.000000	97.207277 
3464.000000	97.201969 
3463.000000	97.195962 
3462.000000	97.190169 
3461.000000	97.185232 
3460.000000	97.180920 
3459.000000	97.176759 
3458.000000	97.173129 
3457.000000	97.171123 
3456.000000	97.171352 
3455.000000	97.173277 
3454.000000	97.175940 
3453.000000	97.178693 
3452.000000	97.181097 
3451.000000	97.182514 
3450.000000	97.182094 
3449.000000	97.179285 
3448.000000	97.174261 
3447.000000	97.168021 
3446.000000	97.162044 
3445.000000	97.157675 
3444.000000	97.155572 
3443.000000	97.155444 
3442.000000	97.156229 
3441.000000	97.156726 
3440.000000	97.156342 
3439.000000	97.155271 
3438.000000	97.154052 
3437.000000	97.153061 
3436.000000	97.152583 
3435.000000	97.153154 
3434.000000	97.155324 
3433.000000	97.158739 
3432.000000	97.161879 
3431.000000	97.163197 
3430.000000	97.162391 
3429.000000	97.160343 
3428.000000	97.157881 
3427.000000	97.155103 
3426.000000	97.152133 
3425.000000	97.149869 
3424.000000	97.149206 
3423.000000	97.149652 
3422.000000	97.149452 
3421.000000	97.147492 
3420.000000	97.144613 
3419.000000	97.142625 
3418.000000	97.142348 
3417.000000	97.143170 
3416.000000	97.144043 
3415.000000	97.144288 
3414.000000	97.143472 
3413.000000	97.141274 
3412.000000	97.137934 
3411.000000	97.134539 
3410.000000	97.132371 
3409.000000	97.131895 
3408.000000	97.132451 
3407.000000	97.132793 
3406.000000	97.132040 
3405.000000	97.130252 
3404.000000	97.128241 
3403.000000	97.126793 
3402.000000	97.126132 
3401.000000	97.126124 
3400.000000	97.126705 
3399.000000	97.127757 
3398.000000	97.128762 
3397.000000	97.129135 
3396.000000	97.128921 
3395.000000	97.128720 
3394.000000	97.128734 
3393.000000	97.128271 
3392.000000	97.126424 
3391.000000	97.123079 
3390.000000	97.119082 
3389.000000	97.115636 
3388.000000	97.113724 
3387.000000	97.113785 
3386.000000	97.115418 
3385.000000	97.117402 
3384.000000	97.118616 
3383.000000	97.119281 
3382.000000	97.120999 
3381.000000	97.125071 
3380.000000	97.130712 
3379.000000	97.135224 
3378.000000	97.136504 
3377.000000	97.134993 
3376.000000	97.132907 
3375.000000	97.131639 
3374.000000	97.130456 
3373.000000	97.128103 
3372.000000	97.124844 
3371.000000	97.122376 
3370.000000	97.122034 
3369.000000	97.123654 
3368.000000	97.125984 
3367.000000	97.127640 
3366.000000	97.127806 
3365.000000	97.126613 
3364.000000	97.125109 
3363.000000	97.124524 
3362.000000	97.125286 
3361.000000	97.126893 
3360.000000	97.128755 
3359.000000	97.130766 
3358.000000	97.132938 
3357.000000	97.134823 
3356.000000	97.135775 
3355.000000	97.135763 
3354.000000	97.135595 
3353.000000	97.136194 
3352.000000	97.137760 
3351.000000	97.139722 
3350.000000	97.141436 
3349.000000	97.142779 
3348.000000	97.144079 
3347.000000	97.145590 
3346.000000	97.147190 
3345.000000	97.148518 
3344.000000	97.149267 
3343.000000	97.149321 
3342.000000	97.148841 
3341.000000	97.148461 
3340.000000	97.149063 
3339.000000	97.150951 
3338.000000	97.153256 
3337.000000	97.154553 
3336.000000	97.154206 
3335.000000	97.152923 
3334.000000	97.151900 
3333.000000	97.151497 
3332.000000	97.151100 
3331.000000	97.150115 
3330.000000	97.148763 
3329.000000	97.147901 
3328.000000	97.148254 
3327.000000	97.149861 
3326.000000	97.152019 
3325.000000	97.153533 
3324.000000	97.153188 
3323.000000	97.150505 
3322.000000	97.146312 
3321.000000	97.142388 
3320.000000	97.140098 
3319.000000	97.139390 
3318.000000	97.139280 
3317.000000	97.139129 
3316.000000	97.139078 
3315.000000	97.139269 
3314.000000	97.139331 
3313.000000	97.139067 
3312.000000	97.139258 
3311.000000	97.141189 
3310.000000	97.145325 
3309.000000	97.150759 
3308.000000	97.155904 
3307.000000	97.159515 
3306.000000	97.161033 
3305.000000	97.160492 
3304.000000	97.158610 
3303.000000	97.156822 
3302.000000	97.156498 
3301.000000	97.157681 
3300.000000	97.158771 
3299.000000	97.157867 
3298.000000	97.154549 
3297.000000	97.150282 
3296.000000	97.147126 
3295.000000	97.146222 
3294.000000	97.147623 
3293.000000	97.150919 
3292.000000	97.155378 
3291.000000	97.159675 
3290.000000	97.162292 
3289.000000	97.162695 
3288.000000	97.161867 
3287.000000	97.161310 
3286.000000	97.161427 
3285.000000	97.161150 
3284.000000	97.159236 
3283.000000	97.155704 
3282.000000	97.151968 
3281.000000	97.149625 
3280.000000	97.149235 
3279.000000	97.150305 
3278.000000	97.152276 
3277.000000	97.155081 
3276.000000	97.158636 
3275.000000	97.162289 
3274.000000	97.165269 
3273.000000	97.167608 
3272.000000	97.170207 
3271.000000	97.173825 
3270.000000	97.178091 
3269.000000	97.181541 
3268.000000	97.182675 
3267.000000	97.181287 
3266.000000	97.179020 
3265.000000	97.178330 
3264.000000	97.180302 
3263.000000	97.183562 
3262.000000	97.185851 
3261.000000	97.186530 
3260.000000	97.186806 
3259.000000	97.187662 
3258.000000	97.188702 
3257.000000	97.189355 
3256.000000	97.190147 
3255.000000	97.191798 
3254.000000	97.193669 
3253.000000	97.194262 
3252.000000	97.193188 
3251.000000	97.191577 
3250.000000	97.190408 
3249.000000	97.189259 
3248.000000	97.187116 
3247.000000	97.183854 
3246.000000	97.180292 
3245.000000	97.177056 
3244.000000	97.174027 
3243.000000	97.170971 
3242.000000	97.168198 
3241.000000	97.166412 
3240.000000	97.166294 
3239.000000	97.168559 
3238.000000	97.173956 
3237.000000	97.182492 
3236.000000	97.192538 
3235.000000	97.201280 
3234.000000	97.206609 
3233.000000	97.208267 
3232.000000	97.207119 
3231.000000	97.203840 
3230.000000	97.198798 
3229.000000	97.193060 
3228.000000	97.188669 
3227.000000	97.187358 
3226.000000	97.189158 
3225.000000	97.192473 
3224.000000	97.195587 
3223.000000	97.198089 
3222.000000	97.200826 
3221.000000	97.204542 
3220.000000	97.208595 
3219.000000	97.211134 
3218.000000	97.210596 
3217.000000	97.206961 
3216.000000	97.201781 
3215.000000	97.197344 
3214.000000	97.195512 
3213.000000	97.196629 
3212.000000	97.199201 
3211.000000	97.201134 
3210.000000	97.201747 
3209.000000	97.202330 
3208.000000	97.204506 
3207.000000	97.208456 
3206.000000	97.213110 
3205.000000	97.217597 
3204.000000	97.221824 
3203.000000	97.225631 
3202.000000	97.227883 
3201.000000	97.226643 
3200.000000	97.220438 
3199.000000	97.209801 
3198.000000	97.197658 
3197.000000	97.187441 
3196.000000	97.180581 
3195.000000	97.176532 
3194.000000	97.175231 
3193.000000	97.178169 
3192.000000	97.186123 
3191.000000	97.196668 
3190.000000	97.205357 
3189.000000	97.209572 
3188.000000	97.210466 
3187.000000	97.211339 
3186.000000	97.214667 
3185.000000	97.220254 
3184.000000	97.225517 
3183.000000	97.228000 
3182.000000	97.228040 
3181.000000	97.228366 
3180.000000	97.230972 
3179.000000	97.235428 
3178.000000	97.240753 
3177.000000	97.247446 
3176.000000	97.256315 
3175.000000	97.266461 
3174.000000	97.276100 
3173.000000	97.284522 
3172.000000	97.291415 
3171.000000	97.294997 
3170.000000	97.293208 
3169.000000	97.286811 
3168.000000	97.279374 
3167.000000	97.273732 
3166.000000	97.269931 
3165.000000	97.267020 
3164.000000	97.265038 
3163.000000	97.264574 
3162.000000	97.265857 
3161.000000	97.269126 
3160.000000	97.274854 
3159.000000	97.282701 
3158.000000	97.290965 
3157.000000	97.297778 
3156.000000	97.302238 
3155.000000	97.303944 
3154.000000	97.302285 
3153.000000	97.296960 
3152.000000	97.288756 
3151.000000	97.279283 
3150.000000	97.270232 
3149.000000	97.263045 
3148.000000	97.258815 
3147.000000	97.258211 
3146.000000	97.261639 
3145.000000	97.269265 
3144.000000	97.280158 
3143.000000	97.291472 
3142.000000	97.299754 
3141.000000	97.303644 
3140.000000	97.304550 
3139.000000	97.304487 
3138.000000	97.303954 
3137.000000	97.302159 
3136.000000	97.298374 
3135.000000	97.292577 
3134.000000	97.285741 
3133.000000	97.280132 
3132.000000	97.278399 
3131.000000	97.281461 
3130.000000	97.287617 
3129.000000	97.294159 
3128.000000	97.299682 
3127.000000	97.304454 
3126.000000	97.309087 
3125.000000	97.313570 
3124.000000	97.317331 
3123.000000	97.319619 
3122.000000	97.319879 
3121.000000	97.318252 
3120.000000	97.315665 
3119.000000	97.313145 
3118.000000	97.311205 
3117.000000	97.310009 
3116.000000	97.309715 
3115.000000	97.310405 
3114.000000	97.312155 
3113.000000	97.315453 
3112.000000	97.321013 
3111.000000	97.328636 
3110.000000	97.336520 
3109.000000	97.342344 
3108.000000	97.345022 
3107.000000	97.345113 
3106.000000	97.343867 
3105.000000	97.342237 
3104.000000	97.340567 
3103.000000	97.338656 
3102.000000	97.335963 
3101.000000	97.332156 
3100.000000	97.327660 
3099.000000	97.323637 
3098.000000	97.321554 
3097.000000	97.322666 
3096.000000	97.327279 
3095.000000	97.334057 
3094.000000	97.340523 
3093.000000	97.344848 
3092.000000	97.346981 
3091.000000	97.348042 
3090.000000	97.349153 
3089.000000	97.351004 
3088.000000	97.353883 
3087.000000	97.357657 
3086.000000	97.361907 
3085.000000	97.366184 
3084.000000	97.369789 
3083.000000	97.371599 
3082.000000	97.371078 
3081.000000	97.369587 
3080.000000	97.369456 
3079.000000	97.371161 
3078.000000	97.372718 
3077.000000	97.372495 
3076.000000	97.371316 
3075.000000	97.370857 
3074.000000	97.371220 
3073.000000	97.371447 
3072.000000	97.371585 
3071.000000	97.372521 
3070.000000	97.374090 
3069.000000	97.374979 
3068.000000	97.374653 
3067.000000	97.374038 
3066.000000	97.374016 
3065.000000	97.374343 
3064.000000	97.374429 
3063.000000	97.374168 
3062.000000	97.373540 
3061.000000	97.372236 
3060.000000	97.370324 
3059.000000	97.368819 
3058.000000	97.369019 
3057.000000	97.371380 
3056.000000	97.375180 
3055.000000	97.378963 
3054.000000	97.381407 
3053.000000	97.382163 
3052.000000	97.382093 
3051.000000	97.382519 
3050.000000	97.383910 
3049.000000	97.385455 
3048.000000	97.385993 
3047.000000	97.385001 
3046.000000	97.382645 
3045.000000	97.379494 
3044.000000	97.376516 
3043.000000	97.374884 
3042.000000	97.375240 
3041.000000	97.377071 
3040.000000	97.378960 
3039.000000	97.379710 
3038.000000	97.379218 
3037.000000	97.378303 
3036.000000	97.377865 
3035.000000	97.378159 
3034.000000	97.378777 
3033.000000	97.379178 
3032.000000	97.379124 
3031.000000	97.378647 
3030.000000	97.377802 
3029.000000	97.376504 
3028.000000	97.374481 
3027.000000	97.371351 
3026.000000	97.367053 
3025.000000	97.362461 
3024.000000	97.359237 
3023.000000	97.358604 
3022.000000	97.360267 
3021.000000	97.362695 
3020.000000	97.364463 
3019.000000	97.365128 
3018.000000	97.364884 
3017.000000	97.363977 
3016.000000	97.362594 
3015.000000	97.360962 
3014.000000	97.359439 
3013.000000	97.358521 
3012.000000	97.358467 
3011.000000	97.358573 
3010.000000	97.357204 
3009.000000	97.353222 
3008.000000	97.347267 
3007.000000	97.341191 
3006.000000	97.336185 
3005.000000	97.332120 
3004.000000	97.328768 
3003.000000	97.326810 
3002.000000	97.327182 
3001.000000	97.329862 
3000.000000	97.333661 
2999.000000	97.336969 
2998.000000	97.338551 
2997.000000	97.337862 
2996.000000	97.335037 
2995.000000	97.330736 
2994.000000	97.325980 
2993.000000	97.321904 
2992.000000	97.319117 
2991.000000	97.317092 
2990.000000	97.314602 
2989.000000	97.311158 
2988.000000	97.307771 
2987.000000	97.305923 
2986.000000	97.306248 
2985.000000	97.308612 
2984.000000	97.312766 
2983.000000	97.318108 
2982.000000	97.323280 
2981.000000	97.326910 
2980.000000	97.328621 
2979.000000	97.328636 
2978.000000	97.326853 
2977.000000	97.323410 
2976.000000	97.319831 
2975.000000	97.318199 
2974.000000	97.319022 
2973.000000	97.320952 
2972.000000	97.322634 
2971.000000	97.323800 
2970.000000	97.324416 
2969.000000	97.324191 
2968.000000	97.323539 
2967.000000	97.323864 
2966.000000	97.326008 
2965.000000	97.329249 
2964.000000	97.332470 
2963.000000	97.335508 
2962.000000	97.338566 
2961.000000	97.341134 
2960.000000	97.342613 
2959.000000	97.343567 
2958.000000	97.345280 
2957.000000	97.348047 
2956.000000	97.350630 
2955.000000	97.351525 
2954.000000	97.350344 
2953.000000	97.348138 
2952.000000	97.346865 
2951.000000	97.348233 
2950.000000	97.352475 
2949.000000	97.358021 
2948.000000	97.362724 
2947.000000	97.365634 
2946.000000	97.367262 
2945.000000	97.368367 
2944.000000	97.368979 
2943.000000	97.368569 
2942.000000	97.366609 
2941.000000	97.362991 
2940.000000	97.358530 
2939.000000	97.355119 
2938.000000	97.354570 
2937.000000	97.357041 
2936.000000	97.360888 
2935.000000	97.364319 
2934.000000	97.366910 
2933.000000	97.369113 
2932.000000	97.371096 
2931.000000	97.372746 
2930.000000	97.374329 
2929.000000	97.376251 
2928.000000	97.378122 
2927.000000	97.378713 
2926.000000	97.377127 
2925.000000	97.373828 
2924.000000	97.370409 
2923.000000	97.368399 
2922.000000	97.368275 
2921.000000	97.369476 
2920.000000	97.371349 
2919.000000	97.374063 
2918.000000	97.378325 
2917.000000	97.384021 
2916.000000	97.389497 
2915.000000	97.392855 
2914.000000	97.393906 
2913.000000	97.394305 
2912.000000	97.395575 
2911.000000	97.397348 
2910.000000	97.397987 
2909.000000	97.396609 
2908.000000	97.394012 
2907.000000	97.391720 
2906.000000	97.390415 
2905.000000	97.389594 
2904.000000	97.388402 
2903.000000	97.386896 
2902.000000	97.386279 
2901.000000	97.387713 
2900.000000	97.391207 
2899.000000	97.395595 
2898.000000	97.400002 
2897.000000	97.404662 
2896.000000	97.409802 
2895.000000	97.414214 
2894.000000	97.416135 
2893.000000	97.415559 
2892.000000	97.414531 
2891.000000	97.414650 
2890.000000	97.415157 
2889.000000	97.414498 
2888.000000	97.412951 
2887.000000	97.412224 
2886.000000	97.412761 
2885.000000	97.413311 
2884.000000	97.413631 
2883.000000	97.415736 
2882.000000	97.421083 
2881.000000	97.427907 
2880.000000	97.432927 
2879.000000	97.435506 
2878.000000	97.438117 
2877.000000	97.442652 
2876.000000	97.447923 
2875.000000	97.451520 
2874.000000	97.452904 
2873.000000	97.453431 
2872.000000	97.454175 
2871.000000	97.454977 
2870.000000	97.455531 
2869.000000	97.456158 
2868.000000	97.457219 
2867.000000	97.458616 
2866.000000	97.460235 
2865.000000	97.462322 
2864.000000	97.465095 
2863.000000	97.468408 
2862.000000	97.472045 
2861.000000	97.475909 
2860.000000	97.479613 
2859.000000	97.482352 
2858.000000	97.483654 
2857.000000	97.484034 
2856.000000	97.484616 
2855.000000	97.486061 
2854.000000	97.488131 
2853.000000	97.490176 
2852.000000	97.491735 
2851.000000	97.492790 
2850.000000	97.493758 
2849.000000	97.495260 
2848.000000	97.497635 
2847.000000	97.500569 
2846.000000	97.503299 
2845.000000	97.505304 
2844.000000	97.506737 
2843.000000	97.508178 
2842.000000	97.510036 
2841.000000	97.512190 
2840.000000	97.514129 
2839.000000	97.515454 
2838.000000	97.516323 
2837.000000	97.517377 
2836.000000	97.519124 
2835.000000	97.521485 
2834.000000	97.524059 
2833.000000	97.526632 
2832.000000	97.529213 
2831.000000	97.531624 
2830.000000	97.533453 
2829.000000	97.534502 
2828.000000	97.535018 
2827.000000	97.535450 
2826.000000	97.536161 
2825.000000	97.537490 
2824.000000	97.539725 
2823.000000	97.542689 
2822.000000	97.545549 
2821.000000	97.547483 
2820.000000	97.548465 
2819.000000	97.549056 
2818.000000	97.549537 
2817.000000	97.549684 
2816.000000	97.549444 
2815.000000	97.549332 
2814.000000	97.549905 
2813.000000	97.551100 
2812.000000	97.552370 
2811.000000	97.553360 
2810.000000	97.554279 
2809.000000	97.555543 
2808.000000	97.557226 
2807.000000	97.558965 
2806.000000	97.560382 
2805.000000	97.561414 
2804.000000	97.562084 
2803.000000	97.562158 
2802.000000	97.561424 
2801.000000	97.560348 
2800.000000	97.560000 
2799.000000	97.561002 
2798.000000	97.562786 
2797.000000	97.564156 
2796.000000	97.564719 
2795.000000	97.565240 
2794.000000	97.566445 
2793.000000	97.568031 
2792.000000	97.569232 
2791.000000	97.569837 
2790.000000	97.570120 
2789.000000	97.570053 
2788.000000	97.569307 
2787.000000	97.568097 
2786.000000	97.567417 
2785.000000	97.568041 
2784.000000	97.569649 
2783.000000	97.571249 
2782.000000	97.572283 
2781.000000	97.573054 
2780.000000	97.574188 
2779.000000	97.575983 
2778.000000	97.578201 
2777.000000	97.580216 
2776.000000	97.581413 
2775.000000	97.581641 
2774.000000	97.581400 
2773.000000	97.581446 
2772.000000	97.582089 
2771.000000	97.582976 
2770.000000	97.583604 
2769.000000	97.583940 
2768.000000	97.584422 
2767.000000	97.585413 
2766.000000	97.586800 
2765.000000	97.588215 
2764.000000	97.589587 
2763.000000	97.591300 
2762.000000	97.593662 
2761.000000	97.596297 
2760.000000	97.598365 
2759.000000	97.599481 
2758.000000	97.600082 
2757.000000	97.600619 
2756.000000	97.600767 
2755.000000	97.600082 
2754.000000	97.599066 
2753.000000	97.598919 
2752.000000	97.600097 
2751.000000	97.601795 
2750.000000	97.603043 
2749.000000	97.603844 
2748.000000	97.604680 
2747.000000	97.605300 
2746.000000	97.604855 
2745.000000	97.603219 
2744.000000	97.601521 
2743.000000	97.601039 
2742.000000	97.602018 
2741.000000	97.603807 
2740.000000	97.605674 
2739.000000	97.607267 
2738.000000	97.608437 
2737.000000	97.609148 
2736.000000	97.609576 
2735.000000	97.609973 
2734.000000	97.610319 
2733.000000	97.610363 
2732.000000	97.610063 
2731.000000	97.609805 
2730.000000	97.610073 
2729.000000	97.610968 
2728.000000	97.612116 
2727.000000	97.613018 
2726.000000	97.613514 
2725.000000	97.613911 
2724.000000	97.614603 
2723.000000	97.615583 
2722.000000	97.616454 
2721.000000	97.616987 
2720.000000	97.617472 
2719.000000	97.618303 
2718.000000	97.619320 
2717.000000	97.619854 
2716.000000	97.619445 
2715.000000	97.618292 
2714.000000	97.617033 
2713.000000	97.616206 
2712.000000	97.615944 
2711.000000	97.616052 
2710.000000	97.616296 
2709.000000	97.616678 
2708.000000	97.617439 
2707.000000	97.618787 
2706.000000	97.620612 
2705.000000	97.622475 
2704.000000	97.623856 
2703.000000	97.624408 
2702.000000	97.624142 
2701.000000	97.623536 
2700.000000	97.623385 
2699.000000	97.624224 
2698.000000	97.625827 
2697.000000	97.627311 
2696.000000	97.627939 
2695.000000	97.627825 
2694.000000	97.627746 
2693.000000	97.628230 
2692.000000	97.629009 
2691.000000	97.629466 
2690.000000	97.629466 
2689.000000	97.629507 
2688.000000	97.630009 
2687.000000	97.630709 
2686.000000	97.630993 
2685.000000	97.630684 
2684.000000	97.630193 
2683.000000	97.629953 
2682.000000	97.629963 
2681.000000	97.630003 
2680.000000	97.630000 
2679.000000	97.630031 
2678.000000	97.630174 
2677.000000	97.630544 
2676.000000	97.631279 
2675.000000	97.632274 
2674.000000	97.633095 
2673.000000	97.633430 
2672.000000	97.633496 
2671.000000	97.633649 
2670.000000	97.633746 
2669.000000	97.633351 
2668.000000	97.632453 
2667.000000	97.631560 
2666.000000	97.631046 
2665.000000	97.630742 
2664.000000	97.630322 
2663.000000	97.629843 
2662.000000	97.629673 
2661.000000	97.629923 
2660.000000	97.630280 
2659.000000	97.630416 
2658.000000	97.630372 
2657.000000	97.630460 
2656.000000	97.630900 
2655.000000	97.631561 
2654.000000	97.632002 
2653.000000	97.631870 
2652.000000	97.631251 
2651.000000	97.630625 
2650.000000	97.630425 
2649.000000	97.630621 
2648.000000	97.630816 
2647.000000	97.630665 
2646.000000	97.630130 
2645.000000	97.629395 
2644.000000	97.628707 
2643.000000	97.628302 
2642.000000	97.628337 
2641.000000	97.628766 
2640.000000	97.629329 
2639.000000	97.629756 
2638.000000	97.629941 
2637.000000	97.629879 
2636.000000	97.629606 
2635.000000	97.629292 
2634.000000	97.629254 
2633.000000	97.629637 
2632.000000	97.630161 
2631.000000	97.630356 
2630.000000	97.630132 
2629.000000	97.629909 
2628.000000	97.630141 
2627.000000	97.630837 
2626.000000	97.631618 
2625.000000	97.632130 
2624.000000	97.632321 
2623.000000	97.632347 
2622.000000	97.632323 
2621.000000	97.632117 
2620.000000	97.631368 
2619.000000	97.629790 
2618.000000	97.627646 
2617.000000	97.625872 
2616.000000	97.625377 
2615.000000	97.626373 
2614.000000	97.628346 
2613.000000	97.630478 
2612.000000	97.632121 
2611.000000	97.632953 
2610.000000	97.633015 
2609.000000	97.632732 
2608.000000	97.632605 
2607.000000	97.632800 
2606.000000	97.633132 
2605.000000	97.633390 
2604.000000	97.633496 
2603.000000	97.633456 
2602.000000	97.633411 
2601.000000	97.633670 
2600.000000	97.634352 
2599.000000	97.634990 
2598.000000	97.634900 
2597.000000	97.634052 
2596.000000	97.633181 
2595.000000	97.632850 
2594.000000	97.632777 
2593.000000	97.632482 
2592.000000	97.632194 
2591.000000	97.632415 
2590.000000	97.632811 
2589.000000	97.632370 
2588.000000	97.630771 
2587.000000	97.628965 
2586.000000	97.628184 
2585.000000	97.628814 
2584.000000	97.630343 
2583.000000	97.631920 
2582.000000	97.632817 
2581.000000	97.632856 
2580.000000	97.632795 
2579.000000	97.633954 
2578.000000	97.636984 
2577.000000	97.640955 
2576.000000	97.643867 
2575.000000	97.644216 
2574.000000	97.641991 
2573.000000	97.638606 
2572.000000	97.635888 
2571.000000	97.634656 
2570.000000	97.634276 
2569.000000	97.633657 
2568.000000	97.632603 
2567.000000	97.631836 
2566.000000	97.631712 
2565.000000	97.631644 
2564.000000	97.631109 
2563.000000	97.630673 
2562.000000	97.631483 
2561.000000	97.634156 
2560.000000	97.638572 
2559.000000	97.644229 
2558.000000	97.650099 
2557.000000	97.654591 
2556.000000	97.656662 
2555.000000	97.656892 
2554.000000	97.656621 
2553.000000	97.655888 
2552.000000	97.653370 
2551.000000	97.648867 
2550.000000	97.644748 
2549.000000	97.643598 
2548.000000	97.645088 
2547.000000	97.646627 
2546.000000	97.646746 
2545.000000	97.646580 
2544.000000	97.647572 
2543.000000	97.649048 
2542.000000	97.649171 
2541.000000	97.647566 
2540.000000	97.645656 
2539.000000	97.644454 
2538.000000	97.643209 
2537.000000	97.640889 
2536.000000	97.638150 
2535.000000	97.636810 
2534.000000	97.637551 
2533.000000	97.639103 
2532.000000	97.639867 
2531.000000	97.639816 
2530.000000	97.640198 
2529.000000	97.641692 
2528.000000	97.643581 
2527.000000	97.644821 
2526.000000	97.645374 
2525.000000	97.646039 
2524.000000	97.647223 
2523.000000	97.648371 
2522.000000	97.648690 
2521.000000	97.648054 
2520.000000	97.646985 
2519.000000	97.646012 
2518.000000	97.645319 
2517.000000	97.644901 
2516.000000	97.644709 
2515.000000	97.644560 
2514.000000	97.644271 
2513.000000	97.644149 
2512.000000	97.645130 
2511.000000	97.648031 
2510.000000	97.652591 
2509.000000	97.657168 
2508.000000	97.659813 
2507.000000	97.659760 
2506.000000	97.657900 
2505.000000	97.656140 
2504.000000	97.655847 
2503.000000	97.656920 
2502.000000	97.658095 
2501.000000	97.658045 
2500.000000	97.656468 
2499.000000	97.654394 
2498.000000	97.653414 
2497.000000	97.654437 
2496.000000	97.657207 
2495.000000	97.660844 
2494.000000	97.664635 
2493.000000	97.668089 
2492.000000	97.670543 
2491.000000	97.671349 
2490.000000	97.670566 
2489.000000	97.668983 
2488.000000	97.667202 
2487.000000	97.665016 
2486.000000	97.662086 
2485.000000	97.658981 
2484.000000	97.657136 
2483.000000	97.657819 
2482.000000	97.661344 
2481.000000	97.666935 
2480.000000	97.672986 
2479.000000	97.677829 
2478.000000	97.680741 
2477.000000	97.682136 
2476.000000	97.682460 
2475.000000	97.681174 
2474.000000	97.677427 
2473.000000	97.671479 
2472.000000	97.664808 
2471.000000	97.658847 
2470.000000	97.654281 
2469.000000	97.651548 
2468.000000	97.651120 
2467.000000	97.652958 
2466.000000	97.656348 
2465.000000	97.660476 
2464.000000	97.664591 
2463.000000	97.667741 
2462.000000	97.669171 
2461.000000	97.669387 
2460.000000	97.670046 
2459.000000	97.671944 
2458.000000	97.673652 
2457.000000	97.673009 
2456.000000	97.669641 
2455.000000	97.665269 
2454.000000	97.661651 
2453.000000	97.658843 
2452.000000	97.655895 
2451.000000	97.652803 
2450.000000	97.651109 
2449.000000	97.652300 
2448.000000	97.655893 
2447.000000	97.659565 
2446.000000	97.661436 
2445.000000	97.661849 
2444.000000	97.662400 
2443.000000	97.663624 
2442.000000	97.664381 
2441.000000	97.663499 
2440.000000	97.661338 
2439.000000	97.659498 
2438.000000	97.659363 
2437.000000	97.661072 
2436.000000	97.663469 
2435.000000	97.665058 
2434.000000	97.665514 
2433.000000	97.666097 
2432.000000	97.668111 
2431.000000	97.671127 
2430.000000	97.673561 
2429.000000	97.674983 
2428.000000	97.676579 
2427.000000	97.679025 
2426.000000	97.680996 
2425.000000	97.680599 
2424.000000	97.677607 
2423.000000	97.673716 
2422.000000	97.670636 
2421.000000	97.668590 
2420.000000	97.666910 
2419.000000	97.665157 
2418.000000	97.663580 
2417.000000	97.662955 
2416.000000	97.663993 
2415.000000	97.666507 
2414.000000	97.669388 
2413.000000	97.671854 
2412.000000	97.674097 
2411.000000	97.676159 
2410.000000	97.677119 
2409.000000	97.676387 
2408.000000	97.675177 
2407.000000	97.675464 
2406.000000	97.677612 
2405.000000	97.679922 
2404.000000	97.680365 
2403.000000	97.678115 
2402.000000	97.673825 
2401.000000	97.669372 
2400.000000	97.667030 
2399.000000	97.667963 
2398.000000	97.671525 
2397.000000	97.676500 
2396.000000	97.682386 
2395.000000	97.688611 
2394.000000	97.693430 
2393.000000	97.695311 
2392.000000	97.695039 
2391.000000	97.694643 
2390.000000	97.694098 
2389.000000	97.690903 
2388.000000	97.683531 
2387.000000	97.673753 
2386.000000	97.664691 
2385.000000	97.657840 
2384.000000	97.653159 
2383.000000	97.651315 
2382.000000	97.654610 
2381.000000	97.665702 
2380.000000	97.685745 
2379.000000	97.712922 
2378.000000	97.741690 
2377.000000	97.764173 
2376.000000	97.773944 
2375.000000	97.769553 
2374.000000	97.755167 
2373.000000	97.737689 
2372.000000	97.722564 
2371.000000	97.711501 
2370.000000	97.703428 
2369.000000	97.696835 
2368.000000	97.691291 
2367.000000	97.687101 
2366.000000	97.684485 
2365.000000	97.683625 
2364.000000	97.684487 
2363.000000	97.685988 
2362.000000	97.687926 
2361.000000	97.690796 
2360.000000	97.691865 
2359.000000	97.687768 
2358.000000	97.679289 
2357.000000	97.671760 
2356.000000	97.669459 
2355.000000	97.670907 
2354.000000	97.675116 
2353.000000	97.678709 
2352.000000	97.678114 
2351.000000	97.671351 
2350.000000	97.658633 
2349.000000	97.644722 
2348.000000	97.635046 
2347.000000	97.632937 
2346.000000	97.632279 
2345.000000	97.625417 
2344.000000	97.615435 
2343.000000	97.606652 
2342.000000	97.604494 
2341.000000	97.609952 
2340.000000	97.620369 
2339.000000	97.628306 
2338.000000	97.628528 
2337.000000	97.624209 
2336.000000	97.620655 
2335.000000	97.620020 
2334.000000	97.618348 
2333.000000	97.611984 
2332.000000	97.598513 
2331.000000	97.582061 
2330.000000	97.563084 
2329.000000	97.543719 
2328.000000	97.518916 
2327.000000	97.491929 
2326.000000	97.466665 
2325.000000	97.449013 
2324.000000	97.441338 
2323.000000	97.442719 
2322.000000	97.450768 
2321.000000	97.459910 
2320.000000	97.466322 
2319.000000	97.471724 
2318.000000	97.479658 
2317.000000	97.492816 
2316.000000	97.506519 
2315.000000	97.516550 
2314.000000	97.517697 
2313.000000	97.512370 
2312.000000	97.503068 
2311.000000	97.495161 
2310.000000	97.488110 
2309.000000	97.482288 
2308.000000	97.477680 
2307.000000	97.478469 
2306.000000	97.484443 
2305.000000	97.491744 
2304.000000	97.494537 
2303.000000	97.493491 
2302.000000	97.492356 
2301.000000	97.494673 
2300.000000	97.498521 
2299.000000	97.501525 
2298.000000	97.501206 
2297.000000	97.498326 
2296.000000	97.493993 
2295.000000	97.491539 
2294.000000	97.492937 
2293.000000	97.498303 
2292.000000	97.504810 
2291.000000	97.510334 
2290.000000	97.514682 
2289.000000	97.518706 
2288.000000	97.522326 
2287.000000	97.524531 
2286.000000	97.525100 
2285.000000	97.525122 
2284.000000	97.526194 
2283.000000	97.528686 
2282.000000	97.531691 
2281.000000	97.533851 
2280.000000	97.534519 
2279.000000	97.533929 
2278.000000	97.533062 
2277.000000	97.533135 
2276.000000	97.534778 
2275.000000	97.537518 
2274.000000	97.540087 
2273.000000	97.541671 
2272.000000	97.542573 
2271.000000	97.543518 
2270.000000	97.544501 
2269.000000	97.544951 
2268.000000	97.544783 
2267.000000	97.544691 
2266.000000	97.545258 
2265.000000	97.546431 
2264.000000	97.547853 
2263.000000	97.549245 
2262.000000	97.550203 
2261.000000	97.550133 
2260.000000	97.548837 
2259.000000	97.546761 
2258.000000	97.544578 
2257.000000	97.542820 
2256.000000	97.542144 
2255.000000	97.543272 
2254.000000	97.546175 
2253.000000	97.549361 
2252.000000	97.550684 
2251.000000	97.549084 
2250.000000	97.545036 
2249.000000	97.539955 
2248.000000	97.535379 
2247.000000	97.532363 
2246.000000	97.531046 
2245.000000	97.530465 
2244.000000	97.529190 
2243.000000	97.526608 
2242.000000	97.523437 
2241.000000	97.521035 
2240.000000	97.520265 
2239.000000	97.520970 
2238.000000	97.522138 
2237.000000	97.522628 
2236.000000	97.522001 
2235.000000	97.520626 
2234.000000	97.518985 
2233.000000	97.517096 
2232.000000	97.514917 
2231.000000	97.512854 
2230.000000	97.511157 
2229.000000	97.509012 
2228.000000	97.505236 
2227.000000	97.500063 
2226.000000	97.495443 
2225.000000	97.492810 
2224.000000	97.491348 
2223.000000	97.489256 
2222.000000	97.486468 
2221.000000	97.484651 
2220.000000	97.484540 
2219.000000	97.484721 
2218.000000	97.483375 
2217.000000	97.480328 
2216.000000	97.476776 
2215.000000	97.473662 
2214.000000	97.471013 
2213.000000	97.468590 
2212.000000	97.466352 
2211.000000	97.464261 
2210.000000	97.462278 
2209.000000	97.460564 
2208.000000	97.459157 
2207.000000	97.457580 
2206.000000	97.455458 
2205.000000	97.453545 
2204.000000	97.453416 
2203.000000	97.455740 
2202.000000	97.459179 
2201.000000	97.461123 
2200.000000	97.459497 
2199.000000	97.454023 
2198.000000	97.446219 
2197.000000	97.438949 
2196.000000	97.434537 
2195.000000	97.432518 
2194.000000	97.430139 
2193.000000	97.425750 
2192.000000	97.420728 
2191.000000	97.416990 
2190.000000	97.414117 
2189.000000	97.410892 
2188.000000	97.408428 
2187.000000	97.408885 
2186.000000	97.411393 
2185.000000	97.412238 
2184.000000	97.410148 
2183.000000	97.408669 
2182.000000	97.411422 
2181.000000	97.417085 
2180.000000	97.420924 
2179.000000	97.420281 
2178.000000	97.416423 
2177.000000	97.411967 
2176.000000	97.408422 
2175.000000	97.406261 
2174.000000	97.405747 
2173.000000	97.407040 
2172.000000	97.410291 
2171.000000	97.415679 
2170.000000	97.422447 
2169.000000	97.428155 
2168.000000	97.430335 
2167.000000	97.428932 
2166.000000	97.425752 
2165.000000	97.421249 
2164.000000	97.413727 
2163.000000	97.403314 
2162.000000	97.395471 
2161.000000	97.397254 
2160.000000	97.409888 
2159.000000	97.426359 
2158.000000	97.437622 
2157.000000	97.441625 
2156.000000	97.443179 
2155.000000	97.447052 
2154.000000	97.453982 
2153.000000	97.462560 
2152.000000	97.471819 
2151.000000	97.480537 
2150.000000	97.485891 
2149.000000	97.485574 
2148.000000	97.481159 
2147.000000	97.477465 
2146.000000	97.477973 
2145.000000	97.482531 
2144.000000	97.489713 
2143.000000	97.499120 
2142.000000	97.510026 
2141.000000	97.519654 
2140.000000	97.525235 
2139.000000	97.527318 
2138.000000	97.529320 
2137.000000	97.533517 
2136.000000	97.538638 
2135.000000	97.541419 
2134.000000	97.539686 
2133.000000	97.534267 
2132.000000	97.528864 
2131.000000	97.527499 
2130.000000	97.531152 
2129.000000	97.536964 
2128.000000	97.541137 
2127.000000	97.542663 
2126.000000	97.543546 
2125.000000	97.545657 
2124.000000	97.548176 
2123.000000	97.548442 
2122.000000	97.544838 
2121.000000	97.538576 
2120.000000	97.532825 
2119.000000	97.530056 
2118.000000	97.530420 
2117.000000	97.532291 
2116.000000	97.534022 
2115.000000	97.534817 
2114.000000	97.534261 
2113.000000	97.532267 
2112.000000	97.529778 
2111.000000	97.528484 
2110.000000	97.529119 
2109.000000	97.530580 
2108.000000	97.531277 
2107.000000	97.530830 
2106.000000	97.529872 
2105.000000	97.528908 
2104.000000	97.528231 
2103.000000	97.528274 
2102.000000	97.528795 
2101.000000	97.528084 
2100.000000	97.524442 
2099.000000	97.518509 
2098.000000	97.513292 
2097.000000	97.511439 
2096.000000	97.513027 
2095.000000	97.515987 
2094.000000	97.517700 
2093.000000	97.516432 
2092.000000	97.511844 
2091.000000	97.505288 
2090.000000	97.499219 
2089.000000	97.495282 
2088.000000	97.492954 
2087.000000	97.490111 
2086.000000	97.484914 
2085.000000	97.477339 
2084.000000	97.469514 
2083.000000	97.464438 
2082.000000	97.463724 
2081.000000	97.466156 
2080.000000	97.468595 
2079.000000	97.468960 
2078.000000	97.467639 
2077.000000	97.465767 
2076.000000	97.463251 
2075.000000	97.459263 
2074.000000	97.453591 
2073.000000	97.446422 
2072.000000	97.437657 
2071.000000	97.427617 
2070.000000	97.417846 
2069.000000	97.410102 
2068.000000	97.404940 
2067.000000	97.402036 
2066.000000	97.401279 
2065.000000	97.402379 
2064.000000	97.403948 
2063.000000	97.404425 
2062.000000	97.403651 
2061.000000	97.402544 
2060.000000	97.401674 
2059.000000	97.401135 
2058.000000	97.401063 
2057.000000	97.400839 
2056.000000	97.398228 
2055.000000	97.391178 
2054.000000	97.380826 
2053.000000	97.371514 
2052.000000	97.366650 
2051.000000	97.365492 
2050.000000	97.364548 
2049.000000	97.361432 
2048.000000	97.356968 
2047.000000	97.353702 
2046.000000	97.353169 
2045.000000	97.354786 
2044.000000	97.356580 
2043.000000	97.356761 
2042.000000	97.354931 
2041.000000	97.352118 
2040.000000	97.349832 
2039.000000	97.348965 
2038.000000	97.349478 
2037.000000	97.350731 
2036.000000	97.351888 
2035.000000	97.352359 
2034.000000	97.352265 
2033.000000	97.352428 
2032.000000	97.353551 
2031.000000	97.355226 
2030.000000	97.355926 
2029.000000	97.354274 
2028.000000	97.350420 
2027.000000	97.346148 
2026.000000	97.343675 
2025.000000	97.344287 
2024.000000	97.348050 
2023.000000	97.354103 
2022.000000	97.360762 
2021.000000	97.365668 
2020.000000	97.366757 
2019.000000	97.363475 
2018.000000	97.357317 
2017.000000	97.351114 
2016.000000	97.347327 
2015.000000	97.346820 
2014.000000	97.348343 
2013.000000	97.348784 
2012.000000	97.345565 
2011.000000	97.340089 
2010.000000	97.337751 
2009.000000	97.342690 
2008.000000	97.353087 
2007.000000	97.362754 
2006.000000	97.367690 
2005.000000	97.368675 
2004.000000	97.367836 
2003.000000	97.365907 
2002.000000	97.363584 
2001.000000	97.362369 
2000.000000	97.362265 
1999.000000	97.360539 
1998.000000	97.354564 
1997.000000	97.345097 
1996.000000	97.335399 
1995.000000	97.327834 
1994.000000	97.322726 
1993.000000	97.319802 
1992.000000	97.318943 
1991.000000	97.319968 
1990.000000	97.323009 
1989.000000	97.328182 
1988.000000	97.333345 
1987.000000	97.333478 
1986.000000	97.325136 
1985.000000	97.311512 
1984.000000	97.300227 
1983.000000	97.294895 
1982.000000	97.291760 
1981.000000	97.285913 
1980.000000	97.278637 
1979.000000	97.275358 
1978.000000	97.277718 
1977.000000	97.281957 
1976.000000	97.285340 
1975.000000	97.290081 
1974.000000	97.299073 
1973.000000	97.311362 
1972.000000	97.323599 
1971.000000	97.333606 
1970.000000	97.340227 
1969.000000	97.341324 
1968.000000	97.334925 
1967.000000	97.322955 
1966.000000	97.312403 
1965.000000	97.310151 
1964.000000	97.317614 
1963.000000	97.331248 
1962.000000	97.345945 
1961.000000	97.357719 
1960.000000	97.364138 
1959.000000	97.364469 
1958.000000	97.360731 
1957.000000	97.357317 
1956.000000	97.357497 
1955.000000	97.360805 
1954.000000	97.364672 
1953.000000	97.367620 
1952.000000	97.369693 
1951.000000	97.370854 
1950.000000	97.371066 
1949.000000	97.371509 
1948.000000	97.373847 
1947.000000	97.378076 
1946.000000	97.382556 
1945.000000	97.386355 
1944.000000	97.390054 
1943.000000	97.393892 
1942.000000	97.396779 
1941.000000	97.397958 
1940.000000	97.398186 
1939.000000	97.398549 
1938.000000	97.399394 
1937.000000	97.400785 
1936.000000	97.402838 
1935.000000	97.405296 
1934.000000	97.407486 
1933.000000	97.409047 
1932.000000	97.410313 
1931.000000	97.411790 
1930.000000	97.413525 
1929.000000	97.415267 
1928.000000	97.417188 
1927.000000	97.419756 
1926.000000	97.422810 
1925.000000	97.425389 
1924.000000	97.426801 
1923.000000	97.427216 
1922.000000	97.427046 
1921.000000	97.426583 
1920.000000	97.426265 
1919.000000	97.426591 
1918.000000	97.427553 
1917.000000	97.428466 
1916.000000	97.428866 
1915.000000	97.429089 
1914.000000	97.429607 
1913.000000	97.430364 
1912.000000	97.430956 
1911.000000	97.431305 
1910.000000	97.431793 
1909.000000	97.432775 
1908.000000	97.434249 
1907.000000	97.435817 
1906.000000	97.436868 
1905.000000	97.437044 
1904.000000	97.436508 
1903.000000	97.435906 
1902.000000	97.435784 
1901.000000	97.436132 
1900.000000	97.436645 
1899.000000	97.437093 
1898.000000	97.437471 
1897.000000	97.437875 
1896.000000	97.438373 
1895.000000	97.438976 
1894.000000	97.439592 
1893.000000	97.440022 
1892.000000	97.440153 
1891.000000	97.440110 
1890.000000	97.440182 
1889.000000	97.440544 
1888.000000	97.441158 
1887.000000	97.441952 
1886.000000	97.442869 
1885.000000	97.443729 
1884.000000	97.444313 
1883.000000	97.444657 
1882.000000	97.445109 
1881.000000	97.445993 
1880.000000	97.447305 
1879.000000	97.448735 
1878.000000	97.449927 
1877.000000	97.450858 
1876.000000	97.451931 
1875.000000	97.453573 
1874.000000	97.455815 
1873.000000	97.458264 
1872.000000	97.460491 
1871.000000	97.462367 
1870.000000	97.463960 
1869.000000	97.465409 
1868.000000	97.466998 
1867.000000	97.469134 
1866.000000	97.471855 
1865.000000	97.474468 
1864.000000	97.476263 
1863.000000	97.477483 
1862.000000	97.479189 
1861.000000	97.481957 
1860.000000	97.485270 
1859.000000	97.488380 
1858.000000	97.491236 
1857.000000	97.494063 
1856.000000	97.496696 
1855.000000	97.498823 
1854.000000	97.500437 
1853.000000	97.501843 
1852.000000	97.503724 
1851.000000	97.506883 
1850.000000	97.511439 
1849.000000	97.516531 
1848.000000	97.521012 
1847.000000	97.524487 
1846.000000	97.527220 
1845.000000	97.529623 
1844.000000	97.532203 
1843.000000	97.535306 
1842.000000	97.538652 
1841.000000	97.541642 
1840.000000	97.544461 
1839.000000	97.547978 
1838.000000	97.552187 
1837.000000	97.555415 
1836.000000	97.556361 
1835.000000	97.556350 
1834.000000	97.557825 
1833.000000	97.561275 
1832.000000	97.565404 
1831.000000	97.569127 
1830.000000	97.572493 
1829.000000	97.575693 
1828.000000	97.578231 
1827.000000	97.579732 
1826.000000	97.580269 
1825.000000	97.580159 
1824.000000	97.579632 
1823.000000	97.578942 
1822.000000	97.578566 
1821.000000	97.578616 
1820.000000	97.578828 
1819.000000	97.579570 
1818.000000	97.582130 
1817.000000	97.586725 
1816.000000	97.591274 
1815.000000	97.593958 
1814.000000	97.595318 
1813.000000	97.596972 
1812.000000	97.599190 
1811.000000	97.600686 
1810.000000	97.601005 
1809.000000	97.601013 
1808.000000	97.601449 
1807.000000	97.602661 
1806.000000	97.604888 
1805.000000	97.607527 
1804.000000	97.608900 
1803.000000	97.607968 
1802.000000	97.605570 
1801.000000	97.603841 
1800.000000	97.603704 
1799.000000	97.604270 
1798.000000	97.604928 
1797.000000	97.605693 
1796.000000	97.606498 
1795.000000	97.607430 
1794.000000	97.608930 
1793.000000	97.611234 
1792.000000	97.613529 
1791.000000	97.614835 
1790.000000	97.615618 
1789.000000	97.616861 
1788.000000	97.618657 
1787.000000	97.620338 
1786.000000	97.621388 
1785.000000	97.621884 
1784.000000	97.622254 
1783.000000	97.623033 
1782.000000	97.624385 
1781.000000	97.626134 
1780.000000	97.628034 
1779.000000	97.629889 
1778.000000	97.631794 
1777.000000	97.633659 
1776.000000	97.635022 
1775.000000	97.635435 
1774.000000	97.634867 
1773.000000	97.634247 
1772.000000	97.634770 
1771.000000	97.636132 
1770.000000	97.637292 
1769.000000	97.638047 
1768.000000	97.639013 
1767.000000	97.640690 
1766.000000	97.642800 
1765.000000	97.644805 
1764.000000	97.646545 
1763.000000	97.648223 
1762.000000	97.650149 
1761.000000	97.652502 
1760.000000	97.655012 
1759.000000	97.657152 
1758.000000	97.658528 
1757.000000	97.659161 
1756.000000	97.659809 
1755.000000	97.660830 
1754.000000	97.661552 
1753.000000	97.661169 
1752.000000	97.659905 
1751.000000	97.659350 
1750.000000	97.660721 
1749.000000	97.663436 
1748.000000	97.665969 
1747.000000	97.667572 
1746.000000	97.668452 
1745.000000	97.669386 
1744.000000	97.670955 
1743.000000	97.672680 
1742.000000	97.673632 
1741.000000	97.673805 
1740.000000	97.674205 
1739.000000	97.675518 
1738.000000	97.677155 
1737.000000	97.677986 
1736.000000	97.677116 
1735.000000	97.674454 
1734.000000	97.671631 
1733.000000	97.669929 
1732.000000	97.669603 
1731.000000	97.671054 
1730.000000	97.674392 
1729.000000	97.678540 
1728.000000	97.682053 
1727.000000	97.684339 
1726.000000	97.685492 
1725.000000	97.685737 
1724.000000	97.685043 
1723.000000	97.683648 
1722.000000	97.682482 
1721.000000	97.681825 
1720.000000	97.680754 
1719.000000	97.678334 
1718.000000	97.675531 
1717.000000	97.674048 
1716.000000	97.673150 
1715.000000	97.672061 
1714.000000	97.671671 
1713.000000	97.672158 
1712.000000	97.672456 
1711.000000	97.672449 
1710.000000	97.672933 
1709.000000	97.673653 
1708.000000	97.673310 
1707.000000	97.671710 
1706.000000	97.670415 
1705.000000	97.669984 
1704.000000	97.668327 
1703.000000	97.664055 
1702.000000	97.657978 
1701.000000	97.653222 
1700.000000	97.651965 
1699.000000	97.651363 
1698.000000	97.650664 
1697.000000	97.651134 
1696.000000	97.652487 
1695.000000	97.653350 
1694.000000	97.653185 
1693.000000	97.652420 
1692.000000	97.651078 
1691.000000	97.649217 
1690.000000	97.647349 
1689.000000	97.645739 
1688.000000	97.643960 
1687.000000	97.641411 
1686.000000	97.638249 
1685.000000	97.635781 
1684.000000	97.634295 
1683.000000	97.632204 
1682.000000	97.629372 
1681.000000	97.626648 
1680.000000	97.624720 
1679.000000	97.623505 
1678.000000	97.622292 
1677.000000	97.620641 
1676.000000	97.618956 
1675.000000	97.617672 
1674.000000	97.616111 
1673.000000	97.613867 
1672.000000	97.611456 
1671.000000	97.609485 
1670.000000	97.608023 
1669.000000	97.606466 
1668.000000	97.604666 
1667.000000	97.602960 
1666.000000	97.601219 
1665.000000	97.599305 
1664.000000	97.597642 
1663.000000	97.596819 
1662.000000	97.596337 
1661.000000	97.595118 
1660.000000	97.593390 
1659.000000	97.591924 
1658.000000	97.590624 
1657.000000	97.588794 
1656.000000	97.585862 
1655.000000	97.581609 
1654.000000	97.577472 
1653.000000	97.576283 
1652.000000	97.575687 
1651.000000	97.574142 
1650.000000	97.571886 
1649.000000	97.569261 
1648.000000	97.567348 
1647.000000	97.567646 
1646.000000	97.569240 
1645.000000	97.569908 
1644.000000	97.569585 
1643.000000	97.569402 
1642.000000	97.569880 
1641.000000	97.570556 
1640.000000	97.571005 
1639.000000	97.570759 
1638.000000	97.569333 
1637.000000	97.566772 
1636.000000	97.564280 
1635.000000	97.562675 
1634.000000	97.561521 
1633.000000	97.560633 
1632.000000	97.559498 
1631.000000	97.558158 
1630.000000	97.557128 
1629.000000	97.556926 
1628.000000	97.558090 
1627.000000	97.560657 
1626.000000	97.562995 
1625.000000	97.563379 
1624.000000	97.563020 
1623.000000	97.565024 
1622.000000	97.569381 
1621.000000	97.572865 
1620.000000	97.573811 
1619.000000	97.572637 
1618.000000	97.570290 
1617.000000	97.567698 
1616.000000	97.566168 
1615.000000	97.567316 
1614.000000	97.570562 
1613.000000	97.572899 
1612.000000	97.572797 
1611.000000	97.571871 
1610.000000	97.571982 
1609.000000	97.573366 
1608.000000	97.576551 
1607.000000	97.581840 
1606.000000	97.586882 
1605.000000	97.589293 
1604.000000	97.590597 
1603.000000	97.593224 
1602.000000	97.596798 
1601.000000	97.599616 
1600.000000	97.602327 
1599.000000	97.606712 
1598.000000	97.612172 
1597.000000	97.616511 
1596.000000	97.619016 
1595.000000	97.620920 
1594.000000	97.623240 
1593.000000	97.625978 
1592.000000	97.629525 
1591.000000	97.634702 
1590.000000	97.641002 
1589.000000	97.646760 
1588.000000	97.651616 
1587.000000	97.656549 
1586.000000	97.661140 
1585.000000	97.663321 
1584.000000	97.663503 
1583.000000	97.664720 
1582.000000	97.668120 
1581.000000	97.672334 
1580.000000	97.676199 
1579.000000	97.679419 
1578.000000	97.682097 
1577.000000	97.686131 
1576.000000	97.693080 
1575.000000	97.699740 
1574.000000	97.702631 
1573.000000	97.702487 
1572.000000	97.702370 
1571.000000	97.705201 
1570.000000	97.710318 
1569.000000	97.712668 
1568.000000	97.711577 
1567.000000	97.710394 
1566.000000	97.709700 
1565.000000	97.708771 
1564.000000	97.708886 
1563.000000	97.709418 
1562.000000	97.707564 
1561.000000	97.699268 
1560.000000	97.692142 
1559.000000	97.697145 
1558.000000	97.701592 
1557.000000	97.698663 
1556.000000	97.696020 
1555.000000	97.696529 
1554.000000	97.698779 
1553.000000	97.701148 
1552.000000	97.702789 
1551.000000	97.701412 
1550.000000	97.696145 
1549.000000	97.689656 
1548.000000	97.685450 
1547.000000	97.683699 
1546.000000	97.680544 
1545.000000	97.672957 
1544.000000	97.662537 
1543.000000	97.652796 
1542.000000	97.646406 
1541.000000	97.645012 
1540.000000	97.645061 
1539.000000	97.640995 
1538.000000	97.633377 
1537.000000	97.625037 
1536.000000	97.616792 
1535.000000	97.609794 
1534.000000	97.605124 
1533.000000	97.601202 
1532.000000	97.595060 
1531.000000	97.586778 
1530.000000	97.578622 
1529.000000	97.571240 
1528.000000	97.563152 
1527.000000	97.553757 
1526.000000	97.544442 
1525.000000	97.536738 
1524.000000	97.530851 
1523.000000	97.526235 
1522.000000	97.522193 
1521.000000	97.516226 
1520.000000	97.506094 
1519.000000	97.493272 
1518.000000	97.480504 
1517.000000	97.469711 
1516.000000	97.461451 
1515.000000	97.455438 
1514.000000	97.451101 
1513.000000	97.447086 
1512.000000	97.441199 
1511.000000	97.431909 
1510.000000	97.420036 
1509.000000	97.407152 
1508.000000	97.394988 
1507.000000	97.384935 
1506.000000	97.376639 
1505.000000	97.368468 
1504.000000	97.360345 
1503.000000	97.352110 
1502.000000	97.343452 
1501.000000	97.334563 
1500.000000	97.325865 
1499.000000	97.316936 
1498.000000	97.306900 
1497.000000	97.296586 
1496.000000	97.287489 
1495.000000	97.280141 
1494.000000	97.274728 
1493.000000	97.271312 
1492.000000	97.269010 
1491.000000	97.265780 
1490.000000	97.259682 
1489.000000	97.250754 
1488.000000	97.239981 
1487.000000	97.228468 
1486.000000	97.217688 
1485.000000	97.207274 
1484.000000	97.196680 
1483.000000	97.186647 
1482.000000	97.177611 
1481.000000	97.169464 
1480.000000	97.161949 
1479.000000	97.155570 
1478.000000	97.150615 
1477.000000	97.145894 
1476.000000	97.138966 
1475.000000	97.128706 
1474.000000	97.116966 
1473.000000	97.107341 
1472.000000	97.101247 
1471.000000	97.096335 
1470.000000	97.091344 
1469.000000	97.086374 
1468.000000	97.080092 
1467.000000	97.070751 
1466.000000	97.059319 
1465.000000	97.049742 
1464.000000	97.044569 
1463.000000	97.041163 
1462.000000	97.036681 
1461.000000	97.032145 
1460.000000	97.029725 
1459.000000	97.027894 
1458.000000	97.020067 
1457.000000	97.003782 
1456.000000	96.987496 
1455.000000	96.978034 
1454.000000	96.973144 
1453.000000	96.970085 
1452.000000	96.969176 
1451.000000	96.970898 
1450.000000	96.974372 
1449.000000	96.977740 
1448.000000	96.978268 
1447.000000	96.974934 
1446.000000	96.969977 
1445.000000	96.967447 
1444.000000	96.969694 
1443.000000	96.974063 
1442.000000	96.977056 
1441.000000	96.978375 
1440.000000	96.979263 
1439.000000	96.978204 
1438.000000	96.972371 
1437.000000	96.964241 
1436.000000	96.960383 
1435.000000	96.961054 
1434.000000	96.962395 
1433.000000	96.963622 
1432.000000	96.965778 
1431.000000	96.968983 
1430.000000	96.971925 
1429.000000	96.974343 
1428.000000	96.977037 
1427.000000	96.981263 
1426.000000	96.987509 
1425.000000	96.995759 
1424.000000	97.006552 
1423.000000	97.017293 
1422.000000	97.024636 
1421.000000	97.028707 
1420.000000	97.031376 
1419.000000	97.031310 
1418.000000	97.027172 
1417.000000	97.025527 
1416.000000	97.033195 
1415.000000	97.047715 
1414.000000	97.060726 
1413.000000	97.067545 
1412.000000	97.071297 
1411.000000	97.076279 
1410.000000	97.082876 
1409.000000	97.090961 
1408.000000	97.101382 
1407.000000	97.113810 
1406.000000	97.126084 
1405.000000	97.137538 
1404.000000	97.150292 
1403.000000	97.163327 
1402.000000	97.173386 
1401.000000	97.181359 
1400.000000	97.192164 
1399.000000	97.208153 
1398.000000	97.225496 
1397.000000	97.240373 
1396.000000	97.253485 
1395.000000	97.267095 
1394.000000	97.280727 
1393.000000	97.293910 
1392.000000	97.309245 
1391.000000	97.327325 
1390.000000	97.344925 
1389.000000	97.358682 
1388.000000	97.368259 
1387.000000	97.376089 
1386.000000	97.384695 
1385.000000	97.395692 
1384.000000	97.409682 
1383.000000	97.424736 
1382.000000	97.437774 
1381.000000	97.448288 
1380.000000	97.458520 
1379.000000	97.470745 
1378.000000	97.485075 
1377.000000	97.499745 
1376.000000	97.512650 
1375.000000	97.522748 
1374.000000	97.530876 
1373.000000	97.540011 
1372.000000	97.552768 
1371.000000	97.568983 
1370.000000	97.585190 
1369.000000	97.596544 
1368.000000	97.601869 
1367.000000	97.604635 
1366.000000	97.609593 
1365.000000	97.619206 
1364.000000	97.631599 
1363.000000	97.641983 
1362.000000	97.647688 
1361.000000	97.651255 
1360.000000	97.657317 
1359.000000	97.667979 
1358.000000	97.681680 
1357.000000	97.695219 
1356.000000	97.706251 
1355.000000	97.714135 
1354.000000	97.719746 
1353.000000	97.725392 
1352.000000	97.732508 
1351.000000	97.741268 
1350.000000	97.751085 
1349.000000	97.760100 
1348.000000	97.766967 
1347.000000	97.771975 
1346.000000	97.776649 
1345.000000	97.782159 
1344.000000	97.788353 
1343.000000	97.794430 
1342.000000	97.799640 
1341.000000	97.802968 
1340.000000	97.803396 
1339.000000	97.801563 
1338.000000	97.799932 
1337.000000	97.800552 
1336.000000	97.803059 
1335.000000	97.805382 
1334.000000	97.806338 
1333.000000	97.806625 
1332.000000	97.807049 
1331.000000	97.807701 
1330.000000	97.809035 
1329.000000	97.812279 
1328.000000	97.817580 
1327.000000	97.823025 
1326.000000	97.825909 
1325.000000	97.824856 
1324.000000	97.821272 
1323.000000	97.817671 
1322.000000	97.815266 
1321.000000	97.813606 
1320.000000	97.811883 
1319.000000	97.810073 
1318.000000	97.809131 
1317.000000	97.810294 
1316.000000	97.813457 
1315.000000	97.816519 
1314.000000	97.817367 
1313.000000	97.816688 
1312.000000	97.817058 
1311.000000	97.818995 
1310.000000	97.819731 
1309.000000	97.817047 
1308.000000	97.812529 
1307.000000	97.810207 
1306.000000	97.812372 
1305.000000	97.817639 
1304.000000	97.822925 
1303.000000	97.825563 
1302.000000	97.824445 
1301.000000	97.820659 
1300.000000	97.817185 
1299.000000	97.816763 
1298.000000	97.819543 
1297.000000	97.823056 
1296.000000	97.824483 
1295.000000	97.823096 
1294.000000	97.820527 
1293.000000	97.818793 
1292.000000	97.818007 
1291.000000	97.816387 
1290.000000	97.813081 
1289.000000	97.810261 
1288.000000	97.811035 
1287.000000	97.815345 
1286.000000	97.819598 
1285.000000	97.820964 
1284.000000	97.820360 
1283.000000	97.820146 
1282.000000	97.820589 
1281.000000	97.820070 
1280.000000	97.817957 
1279.000000	97.815681 
1278.000000	97.815229 
1277.000000	97.817501 
1276.000000	97.821363 
1275.000000	97.823658 
1274.000000	97.821185 
1273.000000	97.814227 
1272.000000	97.807491 
1271.000000	97.805757 
1270.000000	97.808836 
1269.000000	97.812394 
1268.000000	97.813285 
1267.000000	97.811788 
1266.000000	97.808996 
1265.000000	97.805138 
1264.000000	97.801223 
1263.000000	97.799784 
1262.000000	97.802455 
1261.000000	97.807913 
1260.000000	97.813668 
1259.000000	97.818907 
1258.000000	97.823943 
1257.000000	97.827538 
1256.000000	97.826584 
1255.000000	97.819730 
1254.000000	97.810811 
1253.000000	97.806615 
1252.000000	97.809925 
1251.000000	97.815913 
1250.000000	97.817101 
1249.000000	97.811393 
1248.000000	97.803369 
1247.000000	97.797798 
1246.000000	97.794386 
1245.000000	97.790030 
1244.000000	97.783617 
1243.000000	97.776494 
1242.000000	97.769861 
1241.000000	97.763882 
1240.000000	97.758422 
1239.000000	97.752683 
1238.000000	97.744777 
1237.000000	97.733374 
1236.000000	97.719472 
1235.000000	97.705378 
1234.000000	97.692496 
1233.000000	97.680964 
1232.000000	97.670263 
1231.000000	97.658740 
1230.000000	97.643954 
1229.000000	97.625314 
1228.000000	97.605081 
1227.000000	97.584667 
1226.000000	97.561033 
1225.000000	97.529346 
1224.000000	97.488765 
1223.000000	97.443197 
1222.000000	97.396305 
1221.000000	97.348088 
1220.000000	97.297097 
1219.000000	97.243687 
1218.000000	97.189536 
1217.000000	97.135110 
1216.000000	97.078701 
1215.000000	97.017708 
1214.000000	96.951173 
1213.000000	96.882017 
1212.000000	96.815873 
1211.000000	96.755551 
1210.000000	96.697176 
1209.000000	96.634234 
1208.000000	96.565098 
1207.000000	96.494051 
1206.000000	96.425018 
1205.000000	96.357157 
1204.000000	96.287468 
1203.000000	96.215216 
1202.000000	96.142487 
1201.000000	96.072051 
1200.000000	96.005597 
1199.000000	95.942592 
1198.000000	95.880086 
1197.000000	95.815095 
1196.000000	95.747586 
1195.000000	95.680044 
1194.000000	95.614159 
1193.000000	95.549056 
1192.000000	95.482633 
1191.000000	95.413341 
1190.000000	95.340820 
1189.000000	95.265822 
1188.000000	95.189045 
1187.000000	95.109565 
1186.000000	95.026040 
1185.000000	94.940337 
1184.000000	94.857170 
1183.000000	94.777914 
1182.000000	94.697491 
1181.000000	94.610404 
1180.000000	94.517148 
1179.000000	94.420990 
1178.000000	94.321161 
1177.000000	94.214328 
1176.000000	94.100927 
1175.000000	93.984487 
1174.000000	93.865729 
1173.000000	93.743132 
1172.000000	93.619066 
1171.000000	93.499227 
1170.000000	93.385536 
1169.000000	93.275600 
1168.000000	93.170052 
1167.000000	93.074645 
1166.000000	92.994313 
1165.000000	92.931603 
1164.000000	92.892183 
1163.000000	92.884605 
1162.000000	92.910734 
1161.000000	92.960101 
1160.000000	93.015396 
1159.000000	93.060364 
1158.000000	93.082804 
1157.000000	93.075918 
1156.000000	93.039589 
1155.000000	92.978202 
1154.000000	92.896779 
1153.000000	92.801283 
1152.000000	92.700810 
1151.000000	92.604023 
1150.000000	92.512889 
1149.000000	92.424351 
1148.000000	92.337781 
1147.000000	92.255256 
1146.000000	92.174800 
1145.000000	92.090174 
1144.000000	91.998987 
1143.000000	91.905665 
1142.000000	91.814962 
1141.000000	91.727383 
1140.000000	91.641893 
1139.000000	91.557878 
1138.000000	91.473476 
1137.000000	91.386802 
1136.000000	91.299107 
1135.000000	91.211931 
1134.000000	91.122082 
1133.000000	91.025657 
1132.000000	90.926187 
1131.000000	90.831626 
1130.000000	90.743380 
1129.000000	90.655686 
1128.000000	90.565539 
1127.000000	90.474866 
1126.000000	90.382802 
1125.000000	90.285283 
1124.000000	90.183943 
1123.000000	90.086261 
1122.000000	89.994250 
1121.000000	89.901547 
1120.000000	89.804371 
1119.000000	89.706765 
1118.000000	89.612164 
1117.000000	89.518747 
1116.000000	89.426271 
1115.000000	89.338713 
1114.000000	89.256623 
1113.000000	89.175225 
1112.000000	89.093262 
1111.000000	89.015308 
1110.000000	88.942348 
1109.000000	88.868716 
1108.000000	88.791015 
1107.000000	88.711741 
1106.000000	88.632250 
1105.000000	88.550812 
1104.000000	88.469355 
1103.000000	88.393249 
1102.000000	88.321640 
1101.000000	88.247777 
1100.000000	88.170060 
1099.000000	88.094425 
1098.000000	88.024567 
1097.000000	87.957997 
1096.000000	87.893586 
1095.000000	87.832919 
1094.000000	87.773274 
1093.000000	87.709636 
1092.000000	87.645568 
1091.000000	87.591884 
1090.000000	87.552570 
1089.000000	87.521357 
1088.000000	87.492755 
1087.000000	87.465991 
1086.000000	87.437842 
1085.000000	87.403789 
1084.000000	87.368017 
1083.000000	87.340525 
1082.000000	87.322123 
1081.000000	87.303430 
1080.000000	87.280444 
1079.000000	87.259269 
1078.000000	87.243173 
1077.000000	87.226687 
1076.000000	87.205337 
1075.000000	87.179874 
1074.000000	87.148094 
1073.000000	87.103173 
1072.000000	87.042494 
1071.000000	86.968095 
1070.000000	86.877225 
1069.000000	86.763403 
1068.000000	86.628468 
1067.000000	86.482789 
1066.000000	86.332054 
1065.000000	86.175230 
1064.000000	86.016930 
1063.000000	85.868200 
1062.000000	85.731270 
1061.000000	85.595961 
1060.000000	85.455072 
1059.000000	85.311848 
1058.000000	85.169806 
1057.000000	85.027823 
1056.000000	84.888413 
1055.000000	84.757868 
1054.000000	84.633768 
1053.000000	84.504453 
1052.000000	84.365710 
1051.000000	84.226220 
1050.000000	84.092110 
1049.000000	83.959662 
1048.000000	83.827565 
1047.000000	83.701266 
1046.000000	83.580620 
1045.000000	83.456673 
1044.000000	83.323757 
1043.000000	83.183770 
1042.000000	83.038348 
1041.000000	82.889206 
1040.000000	82.746329 
1039.000000	82.621933 
1038.000000	82.514681 
1037.000000	82.412874 
1036.000000	82.313783 
1035.000000	82.225877 
1034.000000	82.152178 
1033.000000	82.087269 
1032.000000	82.031047 
1031.000000	81.988793 
1030.000000	81.956347 
1029.000000	81.922309 
1028.000000	81.887277 
1027.000000	81.864213 
1026.000000	81.857174 
1025.000000	81.855808 
1024.000000	81.852915 
1023.000000	81.851119 
1022.000000	81.849958 
1021.000000	81.843153 
1020.000000	81.831556 
1019.000000	81.823048 
1018.000000	81.817585 
1017.000000	81.808055 
1016.000000	81.797003 
1015.000000	81.795520 
1014.000000	81.803852 
1013.000000	81.810497 
1012.000000	81.812527 
1011.000000	81.818951 
1010.000000	81.831542 
1009.000000	81.841084 
1008.000000	81.846734 
1007.000000	81.861294 
1006.000000	81.892337 
1005.000000	81.934380 
1004.000000	81.983128 
1003.000000	82.040530 
1002.000000	82.102112 
1001.000000	82.157346 
1000.000000	82.208221 
999.000000	 82.270610 
998.000000	 82.351273 
997.000000	 82.439020 
996.000000	 82.523685 
995.000000	 82.608551 
994.000000	 82.698135 
993.000000	 82.788629 
992.000000	 82.877105 
991.000000	 82.967173 
990.000000	 83.059986 
989.000000	 83.151798 
988.000000	 83.244595 
987.000000	 83.346715 
986.000000	 83.459483 
985.000000	 83.575777 
984.000000	 83.694580 
983.000000	 83.823699 
982.000000	 83.965303 
981.000000	 84.112181 
980.000000	 84.260763 
979.000000	 84.414025 
978.000000	 84.569257 
977.000000	 84.718245 
976.000000	 84.863312 
975.000000	 85.018051 
974.000000	 85.187169 
973.000000	 85.359516 
972.000000	 85.526179 
971.000000	 85.692019 
970.000000	 85.863112 
969.000000	 86.035133 
968.000000	 86.201022 
967.000000	 86.360350 
966.000000	 86.515674 
965.000000	 86.668458 
964.000000	 86.822438 
963.000000	 86.982130 
962.000000	 87.144967 
961.000000	 87.303766 
960.000000	 87.458505 
959.000000	 87.615311 
958.000000	 87.772247 
957.000000	 87.918051 
956.000000	 88.048500 
955.000000	 88.173289 
954.000000	 88.302535 
953.000000	 88.435428 
952.000000	 88.565831 
951.000000	 88.689787 
950.000000	 88.804243 
949.000000	 88.907714 
948.000000	 89.005632 
947.000000	 89.106590 
946.000000	 89.210251 
945.000000	 89.307190 
944.000000	 89.392811 
943.000000	 89.472847 
942.000000	 89.553424 
941.000000	 89.634816 
940.000000	 89.717351 
939.000000	 89.804032 
938.000000	 89.894243 
937.000000	 89.983413 
936.000000	 90.071429 
935.000000	 90.162790 
934.000000	 90.256356 
933.000000	 90.344301 
932.000000	 90.423918 
931.000000	 90.501578 
930.000000	 90.582169 
929.000000	 90.663045 
928.000000	 90.741641 
927.000000	 90.820756 
926.000000	 90.902439 
925.000000	 90.983287 
924.000000	 91.058767 
923.000000	 91.126560 
922.000000	 91.184523 
921.000000	 91.232064 
920.000000	 91.274661 
919.000000	 91.320319 
918.000000	 91.370612 
917.000000	 91.421554 
916.000000	 91.473235 
915.000000	 91.531373 
914.000000	 91.599142 
913.000000	 91.674702 
912.000000	 91.756591 
911.000000	 91.844155 
910.000000	 91.933493 
909.000000	 92.021579 
908.000000	 92.113855 
907.000000	 92.219078 
906.000000	 92.337338 
905.000000	 92.461334 
904.000000	 92.587687 
903.000000	 92.717548 
902.000000	 92.848014 
901.000000	 92.973918 
900.000000	 93.097678 
899.000000	 93.226870 
898.000000	 93.361715 
897.000000	 93.494135 
896.000000	 93.618184 
895.000000	 93.731794 
894.000000	 93.830463 
893.000000	 93.911384 
892.000000	 93.983871 
891.000000	 94.063653 
890.000000	 94.153862 
889.000000	 94.241251 
888.000000	 94.312730 
887.000000	 94.366505 
886.000000	 94.407614 
885.000000	 94.442948 
884.000000	 94.480483 
883.000000	 94.522024 
882.000000	 94.556372 
881.000000	 94.572087 
880.000000	 94.577754 
879.000000	 94.596064 
878.000000	 94.636468 
877.000000	 94.689259 
876.000000	 94.748661 
875.000000	 94.823612 
874.000000	 94.919899 
873.000000	 95.029606 
872.000000	 95.146512 
871.000000	 95.275907 
870.000000	 95.419311 
869.000000	 95.562989 
868.000000	 95.692090 
867.000000	 95.806546 
866.000000	 95.914950 
865.000000	 96.021867 
864.000000	 96.128364 
863.000000	 96.235919 
862.000000	 96.341484 
861.000000	 96.436034 
860.000000	 96.515907 
859.000000	 96.589913 
858.000000	 96.668682 
857.000000	 96.752277 
856.000000	 96.833883 
855.000000	 96.909655 
854.000000	 96.979110 
853.000000	 97.041427 
852.000000	 97.097083 
851.000000	 97.148981 
850.000000	 97.198299 
849.000000	 97.243995 
848.000000	 97.288479 
847.000000	 97.336961 
846.000000	 97.388729 
845.000000	 97.436880 
844.000000	 97.479316 
843.000000	 97.521098 
842.000000	 97.562493 
841.000000	 97.594429 
840.000000	 97.610882 
839.000000	 97.616817 
838.000000	 97.618673 
837.000000	 97.616388 
836.000000	 97.611385 
835.000000	 97.613054 
834.000000	 97.628012 
833.000000	 97.649594 
832.000000	 97.666804 
831.000000	 97.678085 
830.000000	 97.688188 
829.000000	 97.697555 
828.000000	 97.705265 
827.000000	 97.718440 
826.000000	 97.746607 
825.000000	 97.786909 
824.000000	 97.824452 
823.000000	 97.847580 
822.000000	 97.855827 
821.000000	 97.854375 
820.000000	 97.847752 
819.000000	 97.837366 
818.000000	 97.818621 
817.000000	 97.780944 
816.000000	 97.715137 
815.000000	 97.620847 
814.000000	 97.504439 
813.000000	 97.370086 
812.000000	 97.214327 
811.000000	 97.026729 
810.000000	 96.793350 
809.000000	 96.502505 
808.000000	 96.151134 
807.000000	 95.746194 
806.000000	 95.301134 
805.000000	 94.835169 
804.000000	 94.375404 
803.000000	 93.950054 
802.000000	 93.573951 
801.000000	 93.247555 
800.000000	 92.974073 
799.000000	 92.768526 
798.000000	 92.644457 
797.000000	 92.599579 
796.000000	 92.618046 
795.000000	 92.677973 
794.000000	 92.754870 
793.000000	 92.829410 
792.000000	 92.897021 
791.000000	 92.962496 
790.000000	 93.023502 
789.000000	 93.067098 
788.000000	 93.081400 
787.000000	 93.059668 
786.000000	 92.993308 
785.000000	 92.874597 
784.000000	 92.710584 
783.000000	 92.524000 
782.000000	 92.337135 
781.000000	 92.164666 
780.000000	 92.022908 
779.000000	 91.930983 
778.000000	 91.897289 
777.000000	 91.917311 
776.000000	 91.988228 
775.000000	 92.110580 
774.000000	 92.270620 
773.000000	 92.437855 
772.000000	 92.589925 
771.000000	 92.729059 
770.000000	 92.867742 
769.000000	 93.009657 
768.000000	 93.150006 
767.000000	 93.281473 
766.000000	 93.392798 
765.000000	 93.474037 
764.000000	 93.531930 
763.000000	 93.590138 
762.000000	 93.666491 
761.000000	 93.758647 
760.000000	 93.857170 
759.000000	 93.960271 
758.000000	 94.067877 
757.000000	 94.174164 
756.000000	 94.277423 
755.000000	 94.387410 
754.000000	 94.510035 
753.000000	 94.630933 
752.000000	 94.726282 
751.000000	 94.787320 
750.000000	 94.826790 
749.000000	 94.865117 
748.000000	 94.916814 
747.000000	 94.985744 
746.000000	 95.065497 
745.000000	 95.145776 
744.000000	 95.223178 
743.000000	 95.303572 
742.000000	 95.391229 
741.000000	 95.480681 
740.000000	 95.563772 
739.000000	 95.640234 
738.000000	 95.716446 
737.000000	 95.796328 
736.000000	 95.876735 
735.000000	 95.950305 
734.000000	 96.011556 
733.000000	 96.062533 
732.000000	 96.112371 
731.000000	 96.167771 
730.000000	 96.223993 
729.000000	 96.268895 
728.000000	 96.297438 
727.000000	 96.316716 
726.000000	 96.336370 
725.000000	 96.362853 
724.000000	 96.401100 
723.000000	 96.450848 
722.000000	 96.501678 
721.000000	 96.543306 
720.000000	 96.581916 
719.000000	 96.632095 
718.000000	 96.691908 
717.000000	 96.743387 
716.000000	 96.777885 
715.000000	 96.805385 
714.000000	 96.836247 
713.000000	 96.868213 
712.000000	 96.898831 
711.000000	 96.934654 
710.000000	 96.977972 
709.000000	 97.019183 
708.000000	 97.049398 
707.000000	 97.072520 
706.000000	 97.092404 
705.000000	 97.100709 
704.000000	 97.089220 
703.000000	 97.058971 
702.000000	 97.006645 
701.000000	 96.912363 
700.000000	 96.754138 
699.000000	 96.533939 
698.000000	 96.280513 
697.000000	 96.034712 
696.000000	 95.838223 
695.000000	 95.720853 
694.000000	 95.688599 
693.000000	 95.725276 
692.000000	 95.810553 
691.000000	 95.934147 
690.000000	 96.085634 
689.000000	 96.243421 
688.000000	 96.384911 
687.000000	 96.500788 
686.000000	 96.595501 
685.000000	 96.678367 
684.000000	 96.758247 
683.000000	 96.840114 
682.000000	 96.918276 
681.000000	 96.982240 
680.000000	 97.032461 
679.000000	 97.084137 
678.000000	 97.144090 
677.000000	 97.199342 
676.000000	 97.246451 
675.000000	 97.296966 
674.000000	 97.354388 
673.000000	 97.409212 
672.000000	 97.460808 
671.000000	 97.538764 
670.000000	 97.682720 
669.000000	 97.896327 
668.000000	 98.036482 
667.000000	 97.976649 
666.000000	 97.846199 
665.000000	 97.767498 
664.000000	 97.732148 
663.000000	 97.729064 
662.000000	 97.758432 
661.000000	 97.802371 
660.000000	 97.833743 
659.000000	 97.842645 
658.000000	 97.835509 
657.000000	 97.818251 
656.000000	 97.806563 
655.000000	 97.817152 
654.000000	 97.839994 
653.000000	 97.843654 
652.000000	 97.818396 
651.000000	 97.791324 
650.000000	 97.787671 

