4000.000000	97.726007 
3999.000000	97.724289 
3998.000000	97.720869 
3997.000000	97.717014 
3996.000000	97.713873 
3995.000000	97.711941 
3994.000000	97.711186 
3993.000000	97.711142 
3992.000000	97.711064 
3991.000000	97.710345 
3990.000000	97.708951 
3989.000000	97.707481 
3988.000000	97.706656 
3987.000000	97.706764 
3986.000000	97.707570 
3985.000000	97.708591 
3984.000000	97.709345 
3983.000000	97.709559 
3982.000000	97.709395 
3981.000000	97.709253 
3980.000000	97.709138 
3979.000000	97.708546 
3978.000000	97.707262 
3977.000000	97.705960 
3976.000000	97.705563 
3975.000000	97.706049 
3974.000000	97.706356 
3973.000000	97.705494 
3972.000000	97.703439 
3971.000000	97.700988 
3970.000000	97.699051 
3969.000000	97.698260 
3968.000000	97.698938 
3967.000000	97.700889 
3966.000000	97.703209 
3965.000000	97.704591 
3964.000000	97.704048 
3963.000000	97.701595 
3962.000000	97.698380 
3961.000000	97.695858 
3960.000000	97.694672 
3959.000000	97.694505 
3958.000000	97.694762 
3957.000000	97.695119 
3956.000000	97.695298 
3955.000000	97.694643 
3954.000000	97.692521 
3953.000000	97.689027 
3952.000000	97.685115 
3951.000000	97.681866 
3950.000000	97.679621 
3949.000000	97.678006 
3948.000000	97.676515 
3947.000000	97.675098 
3946.000000	97.674354 
3945.000000	97.675112 
3944.000000	97.677638 
3943.000000	97.680957 
3942.000000	97.683483 
3941.000000	97.684446 
3940.000000	97.684163 
3939.000000	97.683361 
3938.000000	97.682411 
3937.000000	97.681229 
3936.000000	97.679705 
3935.000000	97.677901 
3934.000000	97.676094 
3933.000000	97.674522 
3932.000000	97.673236 
3931.000000	97.672100 
3930.000000	97.671194 
3929.000000	97.671096 
3928.000000	97.672199 
3927.000000	97.673970 
3926.000000	97.675130 
3925.000000	97.674648 
3924.000000	97.672581 
3923.000000	97.669841 
3922.000000	97.667336 
3921.000000	97.665596 
3920.000000	97.664822 
3919.000000	97.664939 
3918.000000	97.665551 
3917.000000	97.666110 
3916.000000	97.666324 
3915.000000	97.666253 
3914.000000	97.666163 
3913.000000	97.666245 
3912.000000	97.666464 
3911.000000	97.666664 
3910.000000	97.666558 
3909.000000	97.665949 
3908.000000	97.664964 
3907.000000	97.663871 
3906.000000	97.662811 
3905.000000	97.661458 
3904.000000	97.659289 
3903.000000	97.656361 
3902.000000	97.653615 
3901.000000	97.652213 
3900.000000	97.652543 
3899.000000	97.653882 
3898.000000	97.655105 
3897.000000	97.655650 
3896.000000	97.655643 
3895.000000	97.655493 
3894.000000	97.655480 
3893.000000	97.655561 
3892.000000	97.655410 
3891.000000	97.654736 
3890.000000	97.653588 
3889.000000	97.652254 
3888.000000	97.651120 
3887.000000	97.650476 
3886.000000	97.650325 
3885.000000	97.650309 
3884.000000	97.649989 
3883.000000	97.649240 
3882.000000	97.648319 
3881.000000	97.647616 
3880.000000	97.647277 
3879.000000	97.647091 
3878.000000	97.646790 
3877.000000	97.646350 
3876.000000	97.645938 
3875.000000	97.645623 
3874.000000	97.645246 
3873.000000	97.644623 
3872.000000	97.643785 
3871.000000	97.642971 
3870.000000	97.642404 
3869.000000	97.642111 
3868.000000	97.641924 
3867.000000	97.641693 
3866.000000	97.641439 
3865.000000	97.641252 
3864.000000	97.641150 
3863.000000	97.641036 
3862.000000	97.640840 
3861.000000	97.640669 
3860.000000	97.640681 
3859.000000	97.640844 
3858.000000	97.640908 
3857.000000	97.640634 
3856.000000	97.639993 
3855.000000	97.639218 
3854.000000	97.638528 
3853.000000	97.637916 
3852.000000	97.637397 
3851.000000	97.637093 
3850.000000	97.637057 
3849.000000	97.637334 
3848.000000	97.637911 
3847.000000	97.638661 
3846.000000	97.639323 
3845.000000	97.639670 
3844.000000	97.639685 
3843.000000	97.639478 
3842.000000	97.639109 
3841.000000	97.638692 
3840.000000	97.638437 
3839.000000	97.638537 
3838.000000	97.638975 
3837.000000	97.639437 
3836.000000	97.639591 
3835.000000	97.639354 
3834.000000	97.638910 
3833.000000	97.638594 
3832.000000	97.638619 
3831.000000	97.638915 
3830.000000	97.639232 
3829.000000	97.639431 
3828.000000	97.639717 
3827.000000	97.640428 
3826.000000	97.641548 
3825.000000	97.642552 
3824.000000	97.642879 
3823.000000	97.642498 
3822.000000	97.641970 
3821.000000	97.641776 
3820.000000	97.641704 
3819.000000	97.641272 
3818.000000	97.640412 
3817.000000	97.639666 
3816.000000	97.639610 
3815.000000	97.640166 
3814.000000	97.640733 
3813.000000	97.640993 
3812.000000	97.641209 
3811.000000	97.641754 
3810.000000	97.642568 
3809.000000	97.643179 
3808.000000	97.643276 
3807.000000	97.643001 
3806.000000	97.642600 
3805.000000	97.641951 
3804.000000	97.640817 
3803.000000	97.639627 
3802.000000	97.639295 
3801.000000	97.640039 
3800.000000	97.640931 
3799.000000	97.640898 
3798.000000	97.639952 
3797.000000	97.639270 
3796.000000	97.639897 
3795.000000	97.641553 
3794.000000	97.643121 
3793.000000	97.644066 
3792.000000	97.644889 
3791.000000	97.646282 
3790.000000	97.647939 
3789.000000	97.648641 
3788.000000	97.647553 
3787.000000	97.644982 
3786.000000	97.642160 
3785.000000	97.640282 
3784.000000	97.639504 
3783.000000	97.638753 
3782.000000	97.636757 
3781.000000	97.633681 
3780.000000	97.631617 
3779.000000	97.632698 
3778.000000	97.636458 
3777.000000	97.640065 
3776.000000	97.641263 
3775.000000	97.640263 
3774.000000	97.638552 
3773.000000	97.636776 
3772.000000	97.634694 
3771.000000	97.632131 
3770.000000	97.629323 
3769.000000	97.626857 
3768.000000	97.625231 
3767.000000	97.624615 
3766.000000	97.625099 
3765.000000	97.626209 
3764.000000	97.626971 
3763.000000	97.626763 
3762.000000	97.626399 
3761.000000	97.627273 
3760.000000	97.628642 
3759.000000	97.627991 
3758.000000	97.623490 
3757.000000	97.615471 
3756.000000	97.605331 
3755.000000	97.593819 
3754.000000	97.581733 
3753.000000	97.570649 
3752.000000	97.561983 
3751.000000	97.555954 
3750.000000	97.552621 
3749.000000	97.552669 
3748.000000	97.554843 
3747.000000	97.556351 
3746.000000	97.557169 
3745.000000	97.560088 
3744.000000	97.567591 
3743.000000	97.576537 
3742.000000	97.580209 
3741.000000	97.576439 
3740.000000	97.569309 
3739.000000	97.564700 
3738.000000	97.564645 
3737.000000	97.566708 
3736.000000	97.569233 
3735.000000	97.572765 
3734.000000	97.576734 
3733.000000	97.578700 
3732.000000	97.578236 
3731.000000	97.577090 
3730.000000	97.575082 
3729.000000	97.570800 
3728.000000	97.565796 
3727.000000	97.564097 
3726.000000	97.567322 
3725.000000	97.572617 
3724.000000	97.577063 
3723.000000	97.580731 
3722.000000	97.584510 
3721.000000	97.587267 
3720.000000	97.586015 
3719.000000	97.580466 
3718.000000	97.573992 
3717.000000	97.569310 
3716.000000	97.565891 
3715.000000	97.560998 
3714.000000	97.553450 
3713.000000	97.545211 
3712.000000	97.538753 
3711.000000	97.534656 
3710.000000	97.531839 
3709.000000	97.529339 
3708.000000	97.526593 
3707.000000	97.522403 
3706.000000	97.515869 
3705.000000	97.507641 
3704.000000	97.499331 
3703.000000	97.491128 
3702.000000	97.480220 
3701.000000	97.463979 
3700.000000	97.443808 
3699.000000	97.425050 
3698.000000	97.413380 
3697.000000	97.410328 
3696.000000	97.412007 
3695.000000	97.412440 
3694.000000	97.409070 
3693.000000	97.404693 
3692.000000	97.403539 
3691.000000	97.405854 
3690.000000	97.406446 
3689.000000	97.401055 
3688.000000	97.392029 
3687.000000	97.383358 
3686.000000	97.375388 
3685.000000	97.367301 
3684.000000	97.359903 
3683.000000	97.354643 
3682.000000	97.350829 
3681.000000	97.345500 
3680.000000	97.335828 
3679.000000	97.319966 
3678.000000	97.298431 
3677.000000	97.275277 
3676.000000	97.255690 
3675.000000	97.241666 
3674.000000	97.229389 
3673.000000	97.213569 
3672.000000	97.194485 
3671.000000	97.179097 
3670.000000	97.171238 
3669.000000	97.165392 
3668.000000	97.154739 
3667.000000	97.138971 
3666.000000	97.122914 
3665.000000	97.110535 
3664.000000	97.100988 
3663.000000	97.090877 
3662.000000	97.077515 
3661.000000	97.059798 
3660.000000	97.038014 
3659.000000	97.013688 
3658.000000	96.990199 
3657.000000	96.970389 
3656.000000	96.953358 
3655.000000	96.935419 
3654.000000	96.913571 
3653.000000	96.888283 
3652.000000	96.862488 
3651.000000	96.837446 
3650.000000	96.810377 
3649.000000	96.780219 
3648.000000	96.753463 
3647.000000	96.736702 
3646.000000	96.729357 
3645.000000	96.726804 
3644.000000	96.725292 
3643.000000	96.722885 
3642.000000	96.717516 
3641.000000	96.706796 
3640.000000	96.690546 
3639.000000	96.671332 
3638.000000	96.651774 
3637.000000	96.631741 
3636.000000	96.609629 
3635.000000	96.585317 
3634.000000	96.560399 
3633.000000	96.536026 
3632.000000	96.512095 
3631.000000	96.489073 
3630.000000	96.468239 
3629.000000	96.449021 
3628.000000	96.430143 
3627.000000	96.413969 
3626.000000	96.404082 
3625.000000	96.402093 
3624.000000	96.406528 
3623.000000	96.413217 
3622.000000	96.418417 
3621.000000	96.421025 
3620.000000	96.420213 
3619.000000	96.414060 
3618.000000	96.403212 
3617.000000	96.392946 
3616.000000	96.390156 
3615.000000	96.398834 
3614.000000	96.416951 
3613.000000	96.437147 
3612.000000	96.451724 
3611.000000	96.457670 
3610.000000	96.458304 
3609.000000	96.460346 
3608.000000	96.467658 
3607.000000	96.478705 
3606.000000	96.490031 
3605.000000	96.500866 
3604.000000	96.513240 
3603.000000	96.528489 
3602.000000	96.545226 
3601.000000	96.560260 
3600.000000	96.570398 
3599.000000	96.574669 
3598.000000	96.575626 
3597.000000	96.577438 
3596.000000	96.582735 
3595.000000	96.589870 
3594.000000	96.594452 
3593.000000	96.594266 
3592.000000	96.590906 
3591.000000	96.587269 
3590.000000	96.585474 
3589.000000	96.586027 
3588.000000	96.587466 
3587.000000	96.587687 
3586.000000	96.586679 
3585.000000	96.586863 
3584.000000	96.591083 
3583.000000	96.600069 
3582.000000	96.611809 
3581.000000	96.622405 
3580.000000	96.628364 
3579.000000	96.628703 
3578.000000	96.625406 
3577.000000	96.621864 
3576.000000	96.620148 
3575.000000	96.620050 
3574.000000	96.620076 
3573.000000	96.619229 
3572.000000	96.617277 
3571.000000	96.613853 
3570.000000	96.608350 
3569.000000	96.601157 
3568.000000	96.594101 
3567.000000	96.589092 
3566.000000	96.586785 
3565.000000	96.586847 
3564.000000	96.588860 
3563.000000	96.592492 
3562.000000	96.596829 
3561.000000	96.600300 
3560.000000	96.601544 
3559.000000	96.600310 
3558.000000	96.597688 
3557.000000	96.595466 
3556.000000	96.594922 
3555.000000	96.596139 
3554.000000	96.598345 
3553.000000	96.600358 
3552.000000	96.600845 
3551.000000	96.598817 
3550.000000	96.594585 
3549.000000	96.590216 
3548.000000	96.588166 
3547.000000	96.588894 
3546.000000	96.590468 
3545.000000	96.590856 
3544.000000	96.590141 
3543.000000	96.589771 
3542.000000	96.590530 
3541.000000	96.592123 
3540.000000	96.594106 
3539.000000	96.596264 
3538.000000	96.598223 
3537.000000	96.599311 
3536.000000	96.599134 
3535.000000	96.597926 
3534.000000	96.596325 
3533.000000	96.595020 
3532.000000	96.594452 
3531.000000	96.594639 
3530.000000	96.595163 
3529.000000	96.595436 
3528.000000	96.595122 
3527.000000	96.594330 
3526.000000	96.593463 
3525.000000	96.592929 
3524.000000	96.592924 
3523.000000	96.593383 
3522.000000	96.594053 
3521.000000	96.594692 
3520.000000	96.595240 
3519.000000	96.595741 
3518.000000	96.596152 
3517.000000	96.596284 
3516.000000	96.596030 
3515.000000	96.595556 
3514.000000	96.595199 
3513.000000	96.595158 
3512.000000	96.595303 
3511.000000	96.595327 
3510.000000	96.595072 
3509.000000	96.594685 
3508.000000	96.594451 
3507.000000	96.594479 
3506.000000	96.594632 
3505.000000	96.594678 
3504.000000	96.594475 
3503.000000	96.594025 
3502.000000	96.593439 
3501.000000	96.592886 
3500.000000	96.592522 
3499.000000	96.592400 
3498.000000	96.592373 
3497.000000	96.592113 
3496.000000	96.591377 
3495.000000	96.590275 
3494.000000	96.589261 
3493.000000	96.588706 
3492.000000	96.588482 
3491.000000	96.588041 
3490.000000	96.587035 
3489.000000	96.585772 
3488.000000	96.584800 
3487.000000	96.584060 
3486.000000	96.582926 
3485.000000	96.581211 
3484.000000	96.579687 
3483.000000	96.579229 
3482.000000	96.579678 
3481.000000	96.579879 
3480.000000	96.578949 
3479.000000	96.577037 
3478.000000	96.574854 
3477.000000	96.572859 
3476.000000	96.571058 
3475.000000	96.569376 
3474.000000	96.567889 
3473.000000	96.566704 
3472.000000	96.565770 
3471.000000	96.564866 
3470.000000	96.563742 
3469.000000	96.562357 
3468.000000	96.560934 
3467.000000	96.559752 
3466.000000	96.558895 
3465.000000	96.558151 
3464.000000	96.557092 
3463.000000	96.555232 
3462.000000	96.552208 
3461.000000	96.548087 
3460.000000	96.543495 
3459.000000	96.539228 
3458.000000	96.535646 
3457.000000	96.532489 
3456.000000	96.529364 
3455.000000	96.526303 
3454.000000	96.523805 
3453.000000	96.522300 
3452.000000	96.521676 
3451.000000	96.521402 
3450.000000	96.521008 
3449.000000	96.520313 
3448.000000	96.519144 
3447.000000	96.517141 
3446.000000	96.514102 
3445.000000	96.510478 
3444.000000	96.507220 
3443.000000	96.504953 
3442.000000	96.503421 
3441.000000	96.501820 
3440.000000	96.499632 
3439.000000	96.496956 
3438.000000	96.494125 
3437.000000	96.491296 
3436.000000	96.488591 
3435.000000	96.486371 
3434.000000	96.485068 
3433.000000	96.484666 
3432.000000	96.484563 
3431.000000	96.484072 
3430.000000	96.482923 
3429.000000	96.481193 
3428.000000	96.478976 
3427.000000	96.476389 
3426.000000	96.473879 
3425.000000	96.472129 
3424.000000	96.471432 
3423.000000	96.471303 
3422.000000	96.470802 
3421.000000	96.469441 
3420.000000	96.467549 
3419.000000	96.465803 
3418.000000	96.464466 
3417.000000	96.463292 
3416.000000	96.462091 
3415.000000	96.461019 
3414.000000	96.460157 
3413.000000	96.459133 
3412.000000	96.457521 
3411.000000	96.455512 
3410.000000	96.453912 
3409.000000	96.453405 
3408.000000	96.453938 
3407.000000	96.454763 
3406.000000	96.455078 
3405.000000	96.454662 
3404.000000	96.453937 
3403.000000	96.453374 
3402.000000	96.452879 
3401.000000	96.451929 
3400.000000	96.450309 
3399.000000	96.448418 
3398.000000	96.446708 
3397.000000	96.445179 
3396.000000	96.443734 
3395.000000	96.442818 
3394.000000	96.443158 
3393.000000	96.444759 
3392.000000	96.446503 
3391.000000	96.447083 
3390.000000	96.446302 
3389.000000	96.445223 
3388.000000	96.445126 
3387.000000	96.446461 
3386.000000	96.448646 
3385.000000	96.450484 
3384.000000	96.450838 
3383.000000	96.449404 
3382.000000	96.447197 
3381.000000	96.445914 
3380.000000	96.446274 
3379.000000	96.447349 
3378.000000	96.447906 
3377.000000	96.448306 
3376.000000	96.450191 
3375.000000	96.454176 
3374.000000	96.458779 
3373.000000	96.462062 
3372.000000	96.463809 
3371.000000	96.465339 
3370.000000	96.467583 
3369.000000	96.470081 
3368.000000	96.471885 
3367.000000	96.472822 
3366.000000	96.473590 
3365.000000	96.474966 
3364.000000	96.477129 
3363.000000	96.479549 
3362.000000	96.481337 
3361.000000	96.481879 
3360.000000	96.481387 
3359.000000	96.480829 
3358.000000	96.481174 
3357.000000	96.482662 
3356.000000	96.484881 
3355.000000	96.487413 
3354.000000	96.490222 
3353.000000	96.493406 
3352.000000	96.496836 
3351.000000	96.500163 
3350.000000	96.503028 
3349.000000	96.505229 
3348.000000	96.506822 
3347.000000	96.508198 
3346.000000	96.509902 
3345.000000	96.512153 
3344.000000	96.514493 
3343.000000	96.516152 
3342.000000	96.516854 
3341.000000	96.517159 
3340.000000	96.517947 
3339.000000	96.519568 
3338.000000	96.521741 
3337.000000	96.524038 
3336.000000	96.526297 
3335.000000	96.528564 
3334.000000	96.530794 
3333.000000	96.532775 
3332.000000	96.534331 
3331.000000	96.535522 
3330.000000	96.536630 
3329.000000	96.537961 
3328.000000	96.539652 
3327.000000	96.541629 
3326.000000	96.543707 
3325.000000	96.545716 
3324.000000	96.547561 
3323.000000	96.549213 
3322.000000	96.550707 
3321.000000	96.552165 
3320.000000	96.553777 
3319.000000	96.555723 
3318.000000	96.558061 
3317.000000	96.560634 
3316.000000	96.563049 
3315.000000	96.564880 
3314.000000	96.566038 
3313.000000	96.566998 
3312.000000	96.568536 
3311.000000	96.571151 
3310.000000	96.574752 
3309.000000	96.578747 
3308.000000	96.582352 
3307.000000	96.584865 
3306.000000	96.585901 
3305.000000	96.585623 
3304.000000	96.584836 
3303.000000	96.584632 
3302.000000	96.585644 
3301.000000	96.587669 
3300.000000	96.589874 
3299.000000	96.591451 
3298.000000	96.592266 
3297.000000	96.592931 
3296.000000	96.594251 
3295.000000	96.596570 
3294.000000	96.599648 
3293.000000	96.603026 
3292.000000	96.606404 
3291.000000	96.609634 
3290.000000	96.612485 
3289.000000	96.614670 
3288.000000	96.616170 
3287.000000	96.617380 
3286.000000	96.618785 
3285.000000	96.620447 
3284.000000	96.622000 
3283.000000	96.623246 
3282.000000	96.624582 
3281.000000	96.626589 
3280.000000	96.629271 
3279.000000	96.631972 
3278.000000	96.634174 
3277.000000	96.636097 
3276.000000	96.638251 
3275.000000	96.640655 
3274.000000	96.642883 
3273.000000	96.644819 
3272.000000	96.646927 
3271.000000	96.649660 
3270.000000	96.652888 
3269.000000	96.656035 
3268.000000	96.658649 
3267.000000	96.660781 
3266.000000	96.662893 
3265.000000	96.665454 
3264.000000	96.668555 
3263.000000	96.671809 
3262.000000	96.674657 
3261.000000	96.676830 
3260.000000	96.678451 
3259.000000	96.679810 
3258.000000	96.681187 
3257.000000	96.682876 
3256.000000	96.685131 
3255.000000	96.687904 
3254.000000	96.690782 
3253.000000	96.693414 
3252.000000	96.695913 
3251.000000	96.698656 
3250.000000	96.701739 
3249.000000	96.704799 
3248.000000	96.707424 
3247.000000	96.709596 
3246.000000	96.711651 
3245.000000	96.713888 
3244.000000	96.716283 
3243.000000	96.718637 
3242.000000	96.720856 
3241.000000	96.723028 
3240.000000	96.725278 
3239.000000	96.727666 
3238.000000	96.730230 
3237.000000	96.733054 
3236.000000	96.736174 
3235.000000	96.739428 
3234.000000	96.742446 
3233.000000	96.744951 
3232.000000	96.746990 
3231.000000	96.748910 
3230.000000	96.751063 
3229.000000	96.753471 
3228.000000	96.755922 
3227.000000	96.758248 
3226.000000	96.760510 
3225.000000	96.762876 
3224.000000	96.765415 
3223.000000	96.768048 
3222.000000	96.770680 
3221.000000	96.773292 
3220.000000	96.775913 
3219.000000	96.778560 
3218.000000	96.781219 
3217.000000	96.783865 
3216.000000	96.786473 
3215.000000	96.789043 
3214.000000	96.791603 
3213.000000	96.794181 
3212.000000	96.796769 
3211.000000	96.799342 
3210.000000	96.801894 
3209.000000	96.804438 
3208.000000	96.806992 
3207.000000	96.809565 
3206.000000	96.812160 
3205.000000	96.814775 
3204.000000	96.817409 
3203.000000	96.820063 
3202.000000	96.822732 
3201.000000	96.825405 
3200.000000	96.828073 
3199.000000	96.830735 
3198.000000	96.833397 
3197.000000	96.836068 
3196.000000	96.838755 
3195.000000	96.841456 
3194.000000	96.844166 
3193.000000	96.846884 
3192.000000	96.849617 
3191.000000	96.852373 
3190.000000	96.855151 
3189.000000	96.857949 
3188.000000	96.860759 
3187.000000	96.863581 
3186.000000	96.866420 
3185.000000	96.869280 
3184.000000	96.872162 
3183.000000	96.875057 
3182.000000	96.877957 
3181.000000	96.880851 
3180.000000	96.883735 
3179.000000	96.886609 
3178.000000	96.889479 
3177.000000	96.892353 
3176.000000	96.895235 
3175.000000	96.898123 
3174.000000	96.901010 
3173.000000	96.903887 
3172.000000	96.906751 
3171.000000	96.909603 
3170.000000	96.912452 
3169.000000	96.915306 
3168.000000	96.918175 
3167.000000	96.921067 
3166.000000	96.923964 
3165.000000	96.926824 
3164.000000	96.929620 
3163.000000	96.932373 
3162.000000	96.935126 
3161.000000	96.937903 
3160.000000	96.940687 
3159.000000	96.943447 
3158.000000	96.946228 
3157.000000	96.949215 
3156.000000	96.952593 
3155.000000	96.956289 
3154.000000	96.959888 
3153.000000	96.962992 
3152.000000	96.965579 
3151.000000	96.967965 
3150.000000	96.970432 
3149.000000	96.973017 
3148.000000	96.975681 
3147.000000	96.978487 
3146.000000	96.981549 
3145.000000	96.984872 
3144.000000	96.988257 
3143.000000	96.991363 
3142.000000	96.993946 
3141.000000	96.996097 
3140.000000	96.998175 
3139.000000	97.000408 
3138.000000	97.002665 
3137.000000	97.004688 
3136.000000	97.006445 
3135.000000	97.008137 
3134.000000	97.009986 
3133.000000	97.012050 
3132.000000	97.014166 
3131.000000	97.016172 
3130.000000	97.018347 
3129.000000	97.021482 
3128.000000	97.026102 
3127.000000	97.031647 
3126.000000	97.036746 
3125.000000	97.040552 
3124.000000	97.043360 
3123.000000	97.045791 
3122.000000	97.047941 
3121.000000	97.049547 
3120.000000	97.050605 
3119.000000	97.051468 
3118.000000	97.052566 
3117.000000	97.054337 
3116.000000	97.057107 
3115.000000	97.060685 
3114.000000	97.064295 
3113.000000	97.067320 
3112.000000	97.070013 
3111.000000	97.073087 
3110.000000	97.076708 
3109.000000	97.080238 
3108.000000	97.082960 
3107.000000	97.084755 
3106.000000	97.085943 
3105.000000	97.086687 
3104.000000	97.086846 
3103.000000	97.086481 
3102.000000	97.086213 
3101.000000	97.086781 
3100.000000	97.088275 
3099.000000	97.090108 
3098.000000	97.091914 
3097.000000	97.094111 
3096.000000	97.097274 
3095.000000	97.101281 
3094.000000	97.105407 
3093.000000	97.109008 
3092.000000	97.111850 
3091.000000	97.113866 
3090.000000	97.115056 
3089.000000	97.115721 
3088.000000	97.116447 
3087.000000	97.117753 
3086.000000	97.119774 
3085.000000	97.122216 
3084.000000	97.124530 
3083.000000	97.126315 
3082.000000	97.127708 
3081.000000	97.129306 
3080.000000	97.131523 
3079.000000	97.134079 
3078.000000	97.136266 
3077.000000	97.137778 
3076.000000	97.138969 
3075.000000	97.140301 
3074.000000	97.141778 
3073.000000	97.143172 
3072.000000	97.144505 
3071.000000	97.145999 
3070.000000	97.147691 
3069.000000	97.149387 
3068.000000	97.150920 
3067.000000	97.152270 
3066.000000	97.153449 
3065.000000	97.154482 
3064.000000	97.155469 
3063.000000	97.156481 
3062.000000	97.157428 
3061.000000	97.158178 
3060.000000	97.158831 
3059.000000	97.159722 
3058.000000	97.161097 
3057.000000	97.162899 
3056.000000	97.164766 
3055.000000	97.166207 
3054.000000	97.166883 
3053.000000	97.166886 
3052.000000	97.166868 
3051.000000	97.167599 
3050.000000	97.169269 
3049.000000	97.171252 
3048.000000	97.172655 
3047.000000	97.173156 
3046.000000	97.173108 
3045.000000	97.173061 
3044.000000	97.173316 
3043.000000	97.173944 
3042.000000	97.174918 
3041.000000	97.175989 
3040.000000	97.176638 
3039.000000	97.176477 
3038.000000	97.175713 
3037.000000	97.175006 
3036.000000	97.174712 
3035.000000	97.174465 
3034.000000	97.173724 
3033.000000	97.172509 
3032.000000	97.171352 
3031.000000	97.170660 
3030.000000	97.170425 
3029.000000	97.170504 
3028.000000	97.170763 
3027.000000	97.170802 
3026.000000	97.169939 
3025.000000	97.167867 
3024.000000	97.165200 
3023.000000	97.162988 
3022.000000	97.161702 
3021.000000	97.161202 
3020.000000	97.161446 
3019.000000	97.162576 
3018.000000	97.164102 
3017.000000	97.164688 
3016.000000	97.163292 
3015.000000	97.160296 
3014.000000	97.157318 
3013.000000	97.155865 
3012.000000	97.156124 
3011.000000	97.156732 
3010.000000	97.155710 
3009.000000	97.152149 
3008.000000	97.147190 
3007.000000	97.143049 
3006.000000	97.140880 
3005.000000	97.140131 
3004.000000	97.139832 
3003.000000	97.139752 
3002.000000	97.140120 
3001.000000	97.140896 
3000.000000	97.141710 
2999.000000	97.141969 
2998.000000	97.140770 
2997.000000	97.137446 
2996.000000	97.132629 
2995.000000	97.128162 
2994.000000	97.125362 
2993.000000	97.123794 
2992.000000	97.122081 
2991.000000	97.119457 
2990.000000	97.116122 
2989.000000	97.112640 
2988.000000	97.109679 
2987.000000	97.108035 
2986.000000	97.108373 
2985.000000	97.110874 
2984.000000	97.115134 
2983.000000	97.120102 
2982.000000	97.124189 
2981.000000	97.126102 
2980.000000	97.125719 
2979.000000	97.123660 
2978.000000	97.120220 
2977.000000	97.115739 
2976.000000	97.112099 
2975.000000	97.112300 
2974.000000	97.117550 
2973.000000	97.125567 
2972.000000	97.132700 
2971.000000	97.137423 
2970.000000	97.140709 
2969.000000	97.143791 
2968.000000	97.146912 
2967.000000	97.149867 
2966.000000	97.152429 
2965.000000	97.154164 
2964.000000	97.154909 
2963.000000	97.155633 
2962.000000	97.157934 
2961.000000	97.162367 
2960.000000	97.167887 
2959.000000	97.173153 
2958.000000	97.177881 
2957.000000	97.182660 
2956.000000	97.187853 
2955.000000	97.192922 
2954.000000	97.196831 
2953.000000	97.199273 
2952.000000	97.201532 
2951.000000	97.205544 
2950.000000	97.211483 
2949.000000	97.216902 
2948.000000	97.219277 
2947.000000	97.218807 
2946.000000	97.217801 
2945.000000	97.217631 
2944.000000	97.217623 
2943.000000	97.217130 
2942.000000	97.216955 
2941.000000	97.217892 
2940.000000	97.219310 
2939.000000	97.220318 
2938.000000	97.221328 
2937.000000	97.223123 
2936.000000	97.224939 
2935.000000	97.224972 
2934.000000	97.222788 
2933.000000	97.220092 
2932.000000	97.218917 
2931.000000	97.219741 
2930.000000	97.221632 
2929.000000	97.223544 
2928.000000	97.225026 
2927.000000	97.226100 
2926.000000	97.226934 
2925.000000	97.227648 
2924.000000	97.228326 
2923.000000	97.229142 
2922.000000	97.230315 
2921.000000	97.231823 
2920.000000	97.233389 
2919.000000	97.234997 
2918.000000	97.237036 
2917.000000	97.239423 
2916.000000	97.240885 
2915.000000	97.240030 
2914.000000	97.237268 
2913.000000	97.234957 
2912.000000	97.234988 
2911.000000	97.236685 
2910.000000	97.237722 
2909.000000	97.236943 
2908.000000	97.235641 
2907.000000	97.235876 
2906.000000	97.238136 
2905.000000	97.240939 
2904.000000	97.242359 
2903.000000	97.241794 
2902.000000	97.240675 
2901.000000	97.241156 
2900.000000	97.244252 
2899.000000	97.249111 
2898.000000	97.253786 
2897.000000	97.257015 
2896.000000	97.258883 
2895.000000	97.260076 
2894.000000	97.261225 
2893.000000	97.263008 
2892.000000	97.266074 
2891.000000	97.270219 
2890.000000	97.274113 
2889.000000	97.276618 
2888.000000	97.278168 
2887.000000	97.280076 
2886.000000	97.282604 
2885.000000	97.284651 
2884.000000	97.285633 
2883.000000	97.286687 
2882.000000	97.289246 
2881.000000	97.293126 
2880.000000	97.296918 
2879.000000	97.300040 
2878.000000	97.303336 
2877.000000	97.307511 
2876.000000	97.311955 
2875.000000	97.315548 
2874.000000	97.317993 
2873.000000	97.319734 
2872.000000	97.321098 
2871.000000	97.322155 
2870.000000	97.323186 
2869.000000	97.324713 
2868.000000	97.326964 
2867.000000	97.329654 
2866.000000	97.332329 
2865.000000	97.334708 
2864.000000	97.336802 
2863.000000	97.338928 
2862.000000	97.341488 
2861.000000	97.344537 
2860.000000	97.347628 
2859.000000	97.350295 
2858.000000	97.352574 
2857.000000	97.354849 
2856.000000	97.357373 
2855.000000	97.360018 
2854.000000	97.362477 
2853.000000	97.364618 
2852.000000	97.366558 
2851.000000	97.368482 
2850.000000	97.370496 
2849.000000	97.372601 
2848.000000	97.374720 
2847.000000	97.376766 
2846.000000	97.378709 
2845.000000	97.380597 
2844.000000	97.382499 
2843.000000	97.384453 
2842.000000	97.386449 
2841.000000	97.388447 
2840.000000	97.390396 
2839.000000	97.392275 
2838.000000	97.394105 
2837.000000	97.395920 
2836.000000	97.397739 
2835.000000	97.399562 
2834.000000	97.401378 
2833.000000	97.403183 
2832.000000	97.404976 
2831.000000	97.406749 
2830.000000	97.408493 
2829.000000	97.410202 
2828.000000	97.411874 
2827.000000	97.413514 
2826.000000	97.415129 
2825.000000	97.416722 
2824.000000	97.418291 
2823.000000	97.419826 
2822.000000	97.421309 
2821.000000	97.422733 
2820.000000	97.424112 
2819.000000	97.425464 
2818.000000	97.426795 
2817.000000	97.428096 
2816.000000	97.429365 
2815.000000	97.430621 
2814.000000	97.431888 
2813.000000	97.433176 
2812.000000	97.434457 
2811.000000	97.435687 
2810.000000	97.436838 
2809.000000	97.437935 
2808.000000	97.439052 
2807.000000	97.440264 
2806.000000	97.441605 
2805.000000	97.443059 
2804.000000	97.444549 
2803.000000	97.445945 
2802.000000	97.447150 
2801.000000	97.448243 
2800.000000	97.449477 
2799.000000	97.451014 
2798.000000	97.452669 
2797.000000	97.454037 
2796.000000	97.454904 
2795.000000	97.455503 
2794.000000	97.456307 
2793.000000	97.457553 
2792.000000	97.459054 
2791.000000	97.460374 
2790.000000	97.461197 
2789.000000	97.461515 
2788.000000	97.461564 
2787.000000	97.461672 
2786.000000	97.462180 
2785.000000	97.463325 
2784.000000	97.464982 
2783.000000	97.466598 
2782.000000	97.467665 
2781.000000	97.468302 
2780.000000	97.469139 
2779.000000	97.470626 
2778.000000	97.472650 
2777.000000	97.474780 
2776.000000	97.476573 
2775.000000	97.477720 
2774.000000	97.478237 
2773.000000	97.478694 
2772.000000	97.479943 
2771.000000	97.482366 
2770.000000	97.485498 
2769.000000	97.488500 
2768.000000	97.490858 
2767.000000	97.492524 
2766.000000	97.493610 
2765.000000	97.494307 
2764.000000	97.495023 
2763.000000	97.496134 
2762.000000	97.497507 
2761.000000	97.498597 
2760.000000	97.499233 
2759.000000	97.500024 
2758.000000	97.501560 
2757.000000	97.503307 
2756.000000	97.503951 
2755.000000	97.503132 
2754.000000	97.502324 
2753.000000	97.503381 
2752.000000	97.506373 
2751.000000	97.509587 
2750.000000	97.511718 
2749.000000	97.513226 
2748.000000	97.514988 
2747.000000	97.516481 
2746.000000	97.516328 
2745.000000	97.514222 
2744.000000	97.511367 
2743.000000	97.509162 
2742.000000	97.508212 
2741.000000	97.508564 
2740.000000	97.509941 
2739.000000	97.511485 
2738.000000	97.512007 
2737.000000	97.511097 
2736.000000	97.509651 
2735.000000	97.509009 
2734.000000	97.509826 
2733.000000	97.511947 
2732.000000	97.514840 
2731.000000	97.517830 
2730.000000	97.520341 
2729.000000	97.522344 
2728.000000	97.524280 
2727.000000	97.526186 
2726.000000	97.527279 
2725.000000	97.526931 
2724.000000	97.525785 
2723.000000	97.525245 
2722.000000	97.525838 
2721.000000	97.526725 
2720.000000	97.526958 
2719.000000	97.526600 
2718.000000	97.526261 
2717.000000	97.526080 
2716.000000	97.525746 
2715.000000	97.525328 
2714.000000	97.525378 
2713.000000	97.526066 
2712.000000	97.526786 
2711.000000	97.526898 
2710.000000	97.526574 
2709.000000	97.526583 
2708.000000	97.527424 
2707.000000	97.528982 
2706.000000	97.530910 
2705.000000	97.532888 
2704.000000	97.534439 
2703.000000	97.534933 
2702.000000	97.534175 
2701.000000	97.532913 
2700.000000	97.532419 
2699.000000	97.533432 
2698.000000	97.535654 
2697.000000	97.538008 
2696.000000	97.539407 
2695.000000	97.539477 
2694.000000	97.538725 
2693.000000	97.537853 
2692.000000	97.536910 
2691.000000	97.535402 
2690.000000	97.533312 
2689.000000	97.531581 
2688.000000	97.531138 
2687.000000	97.531789 
2686.000000	97.532546 
2685.000000	97.532908 
2684.000000	97.533153 
2683.000000	97.533460 
2682.000000	97.533589 
2681.000000	97.533592 
2680.000000	97.534012 
2679.000000	97.535028 
2678.000000	97.536007 
2677.000000	97.536278 
2676.000000	97.535847 
2675.000000	97.535048 
2674.000000	97.534163 
2673.000000	97.533806 
2672.000000	97.534930 
2671.000000	97.537696 
2670.000000	97.540698 
2669.000000	97.542148 
2668.000000	97.541534 
2667.000000	97.539431 
2666.000000	97.536209 
2665.000000	97.531950 
2664.000000	97.527515 
2663.000000	97.524491 
2662.000000	97.523639 
2661.000000	97.524009 
2660.000000	97.523854 
2659.000000	97.522362 
2658.000000	97.520236 
2657.000000	97.518902 
2656.000000	97.519224 
2655.000000	97.520769 
2654.000000	97.522044 
2653.000000	97.521702 
2652.000000	97.519762 
2651.000000	97.517466 
2650.000000	97.516021 
2649.000000	97.515634 
2648.000000	97.515874 
2647.000000	97.516455 
2646.000000	97.517343 
2645.000000	97.518349 
2644.000000	97.519088 
2643.000000	97.519311 
2642.000000	97.519043 
2641.000000	97.518467 
2640.000000	97.517847 
2639.000000	97.517473 
2638.000000	97.517486 
2637.000000	97.517727 
2636.000000	97.517882 
2635.000000	97.517824 
2634.000000	97.517696 
2633.000000	97.517695 
2632.000000	97.517857 
2631.000000	97.518096 
2630.000000	97.518321 
2629.000000	97.518495 
2628.000000	97.518620 
2627.000000	97.518727 
2626.000000	97.518856 
2625.000000	97.519034 
2624.000000	97.519270 
2623.000000	97.519567 
2622.000000	97.519926 
2621.000000	97.520322 
2620.000000	97.520699 
2619.000000	97.521003 
2618.000000	97.521238 
2617.000000	97.521452 
2616.000000	97.521717 
2615.000000	97.522082 
2614.000000	97.522547 
2613.000000	97.523068 
2612.000000	97.523585 
2611.000000	97.524072 
2610.000000	97.524532 
2609.000000	97.524982 
2608.000000	97.525430 
2607.000000	97.525868 
2606.000000	97.526283 
2605.000000	97.526660 
2604.000000	97.526996 
2603.000000	97.527292 
2602.000000	97.527557 
2601.000000	97.527826 
2600.000000	97.528150 
2599.000000	97.528554 
2598.000000	97.529029 
2597.000000	97.529539 
2596.000000	97.530035 
2595.000000	97.530456 
2594.000000	97.530773 
2593.000000	97.531005 
2592.000000	97.531220 
2591.000000	97.531473 
2590.000000	97.531776 
2589.000000	97.532110 
2588.000000	97.532442 
2587.000000	97.532762 
2586.000000	97.533077 
2585.000000	97.533405 
2584.000000	97.533762 
2583.000000	97.534149 
2582.000000	97.534538 
2581.000000	97.534888 
2580.000000	97.535167 
2579.000000	97.535375 
2578.000000	97.535544 
2577.000000	97.535727 
2576.000000	97.535968 
2575.000000	97.536277 
2574.000000	97.536597 
2573.000000	97.536838 
2572.000000	97.536943 
2571.000000	97.536909 
2570.000000	97.536777 
2569.000000	97.536625 
2568.000000	97.536561 
2567.000000	97.536646 
2566.000000	97.536849 
2565.000000	97.537067 
2564.000000	97.537235 
2563.000000	97.537358 
2562.000000	97.537431 
2561.000000	97.537432 
2560.000000	97.537413 
2559.000000	97.537525 
2558.000000	97.537842 
2557.000000	97.538188 
2556.000000	97.538267 
2555.000000	97.537998 
2554.000000	97.537631 
2553.000000	97.537489 
2552.000000	97.537650 
2551.000000	97.537987 
2550.000000	97.538398 
2549.000000	97.538799 
2548.000000	97.538874 
2547.000000	97.538289 
2546.000000	97.537148 
2545.000000	97.536054 
2544.000000	97.535577 
2543.000000	97.535741 
2542.000000	97.536114 
2541.000000	97.536277 
2540.000000	97.536103 
2539.000000	97.535676 
2538.000000	97.535211 
2537.000000	97.535057 
2536.000000	97.535495 
2535.000000	97.536349 
2534.000000	97.536922 
2533.000000	97.536533 
2532.000000	97.535124 
2531.000000	97.533305 
2530.000000	97.531844 
2529.000000	97.531035 
2528.000000	97.530523 
2527.000000	97.529797 
2526.000000	97.528885 
2525.000000	97.528378 
2524.000000	97.528750 
2523.000000	97.529946 
2522.000000	97.531731 
2521.000000	97.534016 
2520.000000	97.536538 
2519.000000	97.538492 
2518.000000	97.538988 
2517.000000	97.537865 
2516.000000	97.535833 
2515.000000	97.533921 
2514.000000	97.532828 
2513.000000	97.532771 
2512.000000	97.533503 
2511.000000	97.534456 
2510.000000	97.535303 
2509.000000	97.536342 
2508.000000	97.538030 
2507.000000	97.540148 
2506.000000	97.541835 
2505.000000	97.542505 
2504.000000	97.542364 
2503.000000	97.542020 
2502.000000	97.541915 
2501.000000	97.542259 
2500.000000	97.543155 
2499.000000	97.544436 
2498.000000	97.545595 
2497.000000	97.546230 
2496.000000	97.546550 
2495.000000	97.547215 
2494.000000	97.548571 
2493.000000	97.550259 
2492.000000	97.551587 
2491.000000	97.552231 
2490.000000	97.552420 
2489.000000	97.552632 
2488.000000	97.553134 
2487.000000	97.553878 
2486.000000	97.554732 
2485.000000	97.555640 
2484.000000	97.556545 
2483.000000	97.557316 
2482.000000	97.557848 
2481.000000	97.558162 
2480.000000	97.558310 
2479.000000	97.558273 
2478.000000	97.558128 
2477.000000	97.558263 
2476.000000	97.559059 
2475.000000	97.560351 
2474.000000	97.561504 
2473.000000	97.562081 
2472.000000	97.562057 
2471.000000	97.561482 
2470.000000	97.560500 
2469.000000	97.559743 
2468.000000	97.560014 
2467.000000	97.561267 
2466.000000	97.562472 
2465.000000	97.562894 
2464.000000	97.563082 
2463.000000	97.564099 
2462.000000	97.566144 
2461.000000	97.568465 
2460.000000	97.570368 
2459.000000	97.571789 
2458.000000	97.572948 
2457.000000	97.573797 
2456.000000	97.573870 
2455.000000	97.572647 
2454.000000	97.570181 
2453.000000	97.567262 
2452.000000	97.564683 
2451.000000	97.562571 
2450.000000	97.560851 
2449.000000	97.560116 
2448.000000	97.561188 
2447.000000	97.563790 
2446.000000	97.566413 
2445.000000	97.567728 
2444.000000	97.567638 
2443.000000	97.566814 
2442.000000	97.565907 
2441.000000	97.565509 
2440.000000	97.566246 
2439.000000	97.568439 
2438.000000	97.571816 
2437.000000	97.575707 
2436.000000	97.579264 
2435.000000	97.581582 
2434.000000	97.582109 
2433.000000	97.581150 
2432.000000	97.579791 
2431.000000	97.579104 
2430.000000	97.579537 
2429.000000	97.580969 
2428.000000	97.582836 
2427.000000	97.584242 
2426.000000	97.584495 
2425.000000	97.583626 
2424.000000	97.582294 
2423.000000	97.581194 
2422.000000	97.580770 
2421.000000	97.581404 
2420.000000	97.583315 
2419.000000	97.586049 
2418.000000	97.588468 
2417.000000	97.589820 
2416.000000	97.590355 
2415.000000	97.590663 
2414.000000	97.590790 
2413.000000	97.590729 
2412.000000	97.591220 
2411.000000	97.592786 
2410.000000	97.594587 
2409.000000	97.595484 
2408.000000	97.595716 
2407.000000	97.596256 
2406.000000	97.597104 
2405.000000	97.597513 
2404.000000	97.597417 
2403.000000	97.597267 
2402.000000	97.596913 
2401.000000	97.596056 
2400.000000	97.595410 
2399.000000	97.596001 
2398.000000	97.597573 
2397.000000	97.599083 
2396.000000	97.600419 
2395.000000	97.602092 
2394.000000	97.603483 
2393.000000	97.603102 
2392.000000	97.600836 
2391.000000	97.598422 
2390.000000	97.597268 
2389.000000	97.596922 
2388.000000	97.595937 
2387.000000	97.593157 
2386.000000	97.588013 
2385.000000	97.580891 
2384.000000	97.573779 
2383.000000	97.569421 
2382.000000	97.569470 
2381.000000	97.574247 
2380.000000	97.583927 
2379.000000	97.598412 
2378.000000	97.615069 
2377.000000	97.628254 
2376.000000	97.633209 
2375.000000	97.629779 
2374.000000	97.621447 
2373.000000	97.611351 
2372.000000	97.600796 
2371.000000	97.591393 
2370.000000	97.585557 
2369.000000	97.583769 
2368.000000	97.583231 
2367.000000	97.580778 
2366.000000	97.576430 
2365.000000	97.572884 
2364.000000	97.571830 
2363.000000	97.572099 
2362.000000	97.572366 
2361.000000	97.572810 
2360.000000	97.571870 
2359.000000	97.567199 
2358.000000	97.559761 
2357.000000	97.554872 
2356.000000	97.555887 
2355.000000	97.559317 
2354.000000	97.561034 
2353.000000	97.559966 
2352.000000	97.557360 
2351.000000	97.553465 
2350.000000	97.546601 
2349.000000	97.537703 
2348.000000	97.529957 
2347.000000	97.527391 
2346.000000	97.528433 
2345.000000	97.526744 
2344.000000	97.519801 
2343.000000	97.510625 
2342.000000	97.506860 
2341.000000	97.511898 
2340.000000	97.522112 
2339.000000	97.529795 
2338.000000	97.530676 
2337.000000	97.526502 
2336.000000	97.521032 
2335.000000	97.515365 
2334.000000	97.509544 
2333.000000	97.503513 
2332.000000	97.497477 
2331.000000	97.490569 
2330.000000	97.479982 
2329.000000	97.465631 
2328.000000	97.448077 
2327.000000	97.430598 
2326.000000	97.415457 
2325.000000	97.404163 
2324.000000	97.399716 
2323.000000	97.402844 
2322.000000	97.411155 
2321.000000	97.417165 
2320.000000	97.417859 
2319.000000	97.417301 
2318.000000	97.421352 
2317.000000	97.430687 
2316.000000	97.440950 
2315.000000	97.447967 
2314.000000	97.449195 
2313.000000	97.444451 
2312.000000	97.435802 
2311.000000	97.428279 
2310.000000	97.425694 
2309.000000	97.427537 
2308.000000	97.430539 
2307.000000	97.433068 
2306.000000	97.435540 
2305.000000	97.437141 
2304.000000	97.436181 
2303.000000	97.433166 
2302.000000	97.431789 
2301.000000	97.434881 
2300.000000	97.441111 
2299.000000	97.446748 
2298.000000	97.449162 
2297.000000	97.448831 
2296.000000	97.447563 
2295.000000	97.447176 
2294.000000	97.448361 
2293.000000	97.450943 
2292.000000	97.454283 
2291.000000	97.458190 
2290.000000	97.463140 
2289.000000	97.469238 
2288.000000	97.475300 
2287.000000	97.479296 
2286.000000	97.480416 
2285.000000	97.480137 
2284.000000	97.481062 
2283.000000	97.484294 
2282.000000	97.488672 
2281.000000	97.492287 
2280.000000	97.494430 
2279.000000	97.495684 
2278.000000	97.497032 
2277.000000	97.499245 
2276.000000	97.502616 
2275.000000	97.506656 
2274.000000	97.510156 
2273.000000	97.512468 
2272.000000	97.514421 
2271.000000	97.517288 
2270.000000	97.520932 
2269.000000	97.523972 
2268.000000	97.525727 
2267.000000	97.527039 
2266.000000	97.528961 
2265.000000	97.531695 
2264.000000	97.534849 
2263.000000	97.537670 
2262.000000	97.538927 
2261.000000	97.537733 
2260.000000	97.534864 
2259.000000	97.532323 
2258.000000	97.531459 
2257.000000	97.532158 
2256.000000	97.533982 
2255.000000	97.536825 
2254.000000	97.540112 
2253.000000	97.542418 
2252.000000	97.542808 
2251.000000	97.541813 
2250.000000	97.540540 
2249.000000	97.539321 
2248.000000	97.538014 
2247.000000	97.536995 
2246.000000	97.536835 
2245.000000	97.537324 
2244.000000	97.537545 
2243.000000	97.537007 
2242.000000	97.536157 
2241.000000	97.535761 
2240.000000	97.536109 
2239.000000	97.536971 
2238.000000	97.537885 
2237.000000	97.538414 
2236.000000	97.538403 
2235.000000	97.538017 
2234.000000	97.537545 
2233.000000	97.537156 
2232.000000	97.536855 
2231.000000	97.536563 
2230.000000	97.536187 
2229.000000	97.535692 
2228.000000	97.535144 
2227.000000	97.534587 
2226.000000	97.534015 
2225.000000	97.533442 
2224.000000	97.532872 
2223.000000	97.532310 
2222.000000	97.531769 
2221.000000	97.531266 
2220.000000	97.530806 
2219.000000	97.530376 
2218.000000	97.529971 
2217.000000	97.529600 
2216.000000	97.529280 
2215.000000	97.529013 
2214.000000	97.528793 
2213.000000	97.528611 
2212.000000	97.528470 
2211.000000	97.528375 
2210.000000	97.528320 
2209.000000	97.528283 
2208.000000	97.528242 
2207.000000	97.528187 
2206.000000	97.528123 
2205.000000	97.528048 
2204.000000	97.527956 
2203.000000	97.527838 
2202.000000	97.527711 
2201.000000	97.527662 
2200.000000	97.527746 
2199.000000	97.527789 
2198.000000	97.527411 
2197.000000	97.526617 
2196.000000	97.526305 
2195.000000	97.527302 
2194.000000	97.528963 
2193.000000	97.529819 
2192.000000	97.529703 
2191.000000	97.529851 
2190.000000	97.530769 
2189.000000	97.531518 
2188.000000	97.531601 
2187.000000	97.531887 
2186.000000	97.532829 
2185.000000	97.533306 
2184.000000	97.532708 
2183.000000	97.533099 
2182.000000	97.537302 
2181.000000	97.544937 
2180.000000	97.551818 
2179.000000	97.554123 
2178.000000	97.552239 
2177.000000	97.550174 
2176.000000	97.551459 
2175.000000	97.555893 
2174.000000	97.560396 
2173.000000	97.562622 
2172.000000	97.563201 
2171.000000	97.564139 
2170.000000	97.565476 
2169.000000	97.564620 
2168.000000	97.559636 
2167.000000	97.552621 
2166.000000	97.548337 
2165.000000	97.548859 
2164.000000	97.550987 
2163.000000	97.550604 
2162.000000	97.549406 
2161.000000	97.554620 
2160.000000	97.571214 
2159.000000	97.595985 
2158.000000	97.619273 
2157.000000	97.633481 
2156.000000	97.637820 
2155.000000	97.635981 
2154.000000	97.632780 
2153.000000	97.631962 
2152.000000	97.634114 
2151.000000	97.635739 
2150.000000	97.632489 
2149.000000	97.624667 
2148.000000	97.618129 
2147.000000	97.618142 
2146.000000	97.623631 
2145.000000	97.629105 
2144.000000	97.631501 
2143.000000	97.633027 
2142.000000	97.637045 
2141.000000	97.643343 
2140.000000	97.648657 
2139.000000	97.650930 
2138.000000	97.651743 
2137.000000	97.654330 
2136.000000	97.659590 
2135.000000	97.664442 
2134.000000	97.664708 
2133.000000	97.659707 
2132.000000	97.653357 
2131.000000	97.650095 
2130.000000	97.650649 
2129.000000	97.652623 
2128.000000	97.654156 
2127.000000	97.655656 
2126.000000	97.658053 
2125.000000	97.660726 
2124.000000	97.661780 
2123.000000	97.659759 
2122.000000	97.654739 
2121.000000	97.648096 
2120.000000	97.641315 
2119.000000	97.634856 
2118.000000	97.628365 
2117.000000	97.622241 
2116.000000	97.618046 
2115.000000	97.616684 
2114.000000	97.616734 
2113.000000	97.615760 
2112.000000	97.613512 
2111.000000	97.612004 
2110.000000	97.612370 
2109.000000	97.613364 
2108.000000	97.613528 
2107.000000	97.613257 
2106.000000	97.613772 
2105.000000	97.615360 
2104.000000	97.617475 
2103.000000	97.619550 
2102.000000	97.620723 
2101.000000	97.619569 
2100.000000	97.615688 
2099.000000	97.611430 
2098.000000	97.610530 
2097.000000	97.614521 
2096.000000	97.621247 
2095.000000	97.626691 
2094.000000	97.628333 
2093.000000	97.626471 
2092.000000	97.623041 
2091.000000	97.620109 
2090.000000	97.618968 
2089.000000	97.619729 
2088.000000	97.621280 
2087.000000	97.621918 
2086.000000	97.620627 
2085.000000	97.617819 
2084.000000	97.614768 
2083.000000	97.612401 
2082.000000	97.610882 
2081.000000	97.610262 
2080.000000	97.610838 
2079.000000	97.612563 
2078.000000	97.614551 
2077.000000	97.615702 
2076.000000	97.615848 
2075.000000	97.615798 
2074.000000	97.616179 
2073.000000	97.616557 
2072.000000	97.615948 
2071.000000	97.613949 
2070.000000	97.611236 
2069.000000	97.609161 
2068.000000	97.608805 
2067.000000	97.610176 
2066.000000	97.612122 
2065.000000	97.613093 
2064.000000	97.612431 
2063.000000	97.611014 
2062.000000	97.610618 
2061.000000	97.612462 
2060.000000	97.616378 
2059.000000	97.621078 
2058.000000	97.625045 
2057.000000	97.627394 
2056.000000	97.627861 
2055.000000	97.626410 
2054.000000	97.623479 
2053.000000	97.620623 
2052.000000	97.620003 
2051.000000	97.622411 
2050.000000	97.626149 
2049.000000	97.628515 
2048.000000	97.628763 
2047.000000	97.628614 
2046.000000	97.629845 
2045.000000	97.632559 
2044.000000	97.636039 
2043.000000	97.639913 
2042.000000	97.643729 
2041.000000	97.646436 
2040.000000	97.647626 
2039.000000	97.648803 
2038.000000	97.652019 
2037.000000	97.657314 
2036.000000	97.662523 
2035.000000	97.665775 
2034.000000	97.667305 
2033.000000	97.668859 
2032.000000	97.671874 
2031.000000	97.675930 
2030.000000	97.678475 
2029.000000	97.676799 
2028.000000	97.671179 
2027.000000	97.665336 
2026.000000	97.662797 
2025.000000	97.663849 
2024.000000	97.666995 
2023.000000	97.672096 
2022.000000	97.679858 
2021.000000	97.688194 
2020.000000	97.692038 
2019.000000	97.688089 
2018.000000	97.678125 
2017.000000	97.667453 
2016.000000	97.660370 
2015.000000	97.657796 
2014.000000	97.657662 
2013.000000	97.656261 
2012.000000	97.651599 
2011.000000	97.646835 
2010.000000	97.648085 
2009.000000	97.657229 
2008.000000	97.668803 
2007.000000	97.676269 
2006.000000	97.679163 
2005.000000	97.680737 
2004.000000	97.681694 
2003.000000	97.680558 
2002.000000	97.678377 
2001.000000	97.677898 
2000.000000	97.678152 
1999.000000	97.674070 
1998.000000	97.662455 
1997.000000	97.645797 
1996.000000	97.629756 
1995.000000	97.618726 
1994.000000	97.614356 
1993.000000	97.615524 
1992.000000	97.618112 
1991.000000	97.617905 
1990.000000	97.615459 
1989.000000	97.615128 
1988.000000	97.617998 
1987.000000	97.618556 
1986.000000	97.610824 
1985.000000	97.596331 
1984.000000	97.583137 
1983.000000	97.577378 
1982.000000	97.578652 
1981.000000	97.583242 
1980.000000	97.589100 
1979.000000	97.596522 
1978.000000	97.605226 
1977.000000	97.612766 
1976.000000	97.616319 
1975.000000	97.615747 
1974.000000	97.614458 
1973.000000	97.616727 
1972.000000	97.623558 
1971.000000	97.631483 
1970.000000	97.635751 
1969.000000	97.634233 
1968.000000	97.628134 
1967.000000	97.620610 
1966.000000	97.615536 
1965.000000	97.615915 
1964.000000	97.622005 
1963.000000	97.631058 
1962.000000	97.639396 
1961.000000	97.644647 
1960.000000	97.645814 
1959.000000	97.642720 
1958.000000	97.636964 
1957.000000	97.632164 
1956.000000	97.630951 
1955.000000	97.632291 
1954.000000	97.633237 
1953.000000	97.632524 
1952.000000	97.630857 
1951.000000	97.628635 
1950.000000	97.625815 
1949.000000	97.623684 
1948.000000	97.624295 
1947.000000	97.627771 
1946.000000	97.631694 
1945.000000	97.633566 
1944.000000	97.632952 
1943.000000	97.630785 
1942.000000	97.628045 
1941.000000	97.625476 
1940.000000	97.623668 
1939.000000	97.622760 
1938.000000	97.622447 
1937.000000	97.622471 
1936.000000	97.622771 
1935.000000	97.623005 
1934.000000	97.622466 
1933.000000	97.621002 
1932.000000	97.619527 
1931.000000	97.618989 
1930.000000	97.619161 
1929.000000	97.618958 
1928.000000	97.617903 
1927.000000	97.616520 
1926.000000	97.615369 
1925.000000	97.614341 
1924.000000	97.613039 
1923.000000	97.611348 
1922.000000	97.609397 
1921.000000	97.607334 
1920.000000	97.605373 
1919.000000	97.603723 
1918.000000	97.602234 
1917.000000	97.600421 
1916.000000	97.598066 
1915.000000	97.595577 
1914.000000	97.593589 
1913.000000	97.592228 
1912.000000	97.590978 
1911.000000	97.589431 
1910.000000	97.587828 
1909.000000	97.586658 
1908.000000	97.585959 
1907.000000	97.585176 
1906.000000	97.583586 
1905.000000	97.580730 
1904.000000	97.576887 
1903.000000	97.573234 
1902.000000	97.571038 
1901.000000	97.570459 
1900.000000	97.570301 
1899.000000	97.569250 
1898.000000	97.567067 
1897.000000	97.564396 
1896.000000	97.561745 
1895.000000	97.559035 
1894.000000	97.556107 
1893.000000	97.553202 
1892.000000	97.550896 
1891.000000	97.549795 
1890.000000	97.550036 
1889.000000	97.550804 
1888.000000	97.550786 
1887.000000	97.549474 
1886.000000	97.547497 
1885.000000	97.545521 
1884.000000	97.543320 
1883.000000	97.540446 
1882.000000	97.537690 
1881.000000	97.536837 
1880.000000	97.538602 
1879.000000	97.541392 
1878.000000	97.542658 
1877.000000	97.541738 
1876.000000	97.540445 
1875.000000	97.540824 
1874.000000	97.543174 
1873.000000	97.546331 
1872.000000	97.549032 
1871.000000	97.550540 
1870.000000	97.550530 
1869.000000	97.549578 
1868.000000	97.549316 
1867.000000	97.550831 
1866.000000	97.553185 
1865.000000	97.554335 
1864.000000	97.553601 
1863.000000	97.552650 
1862.000000	97.553654 
1861.000000	97.556949 
1860.000000	97.561064 
1859.000000	97.564621 
1858.000000	97.567584 
1857.000000	97.570549 
1856.000000	97.573764 
1855.000000	97.576890 
1854.000000	97.579106 
1853.000000	97.579778 
1852.000000	97.579647 
1851.000000	97.580648 
1850.000000	97.583893 
1849.000000	97.588495 
1848.000000	97.592551 
1847.000000	97.595303 
1846.000000	97.597534 
1845.000000	97.600097 
1844.000000	97.602733 
1843.000000	97.604686 
1842.000000	97.605765 
1841.000000	97.606331 
1840.000000	97.607175 
1839.000000	97.609189 
1838.000000	97.612408 
1837.000000	97.615464 
1836.000000	97.616914 
1835.000000	97.617049 
1834.000000	97.617376 
1833.000000	97.618514 
1832.000000	97.619782 
1831.000000	97.620387 
1830.000000	97.620455 
1829.000000	97.621136 
1828.000000	97.623426 
1827.000000	97.627056 
1826.000000	97.630635 
1825.000000	97.632578 
1824.000000	97.632337 
1823.000000	97.630888 
1822.000000	97.629739 
1821.000000	97.629482 
1820.000000	97.629591 
1819.000000	97.629629 
1818.000000	97.630299 
1817.000000	97.632072 
1816.000000	97.633421 
1815.000000	97.632945 
1814.000000	97.631883 
1813.000000	97.632670 
1812.000000	97.635007 
1811.000000	97.635155 
1810.000000	97.631404 
1809.000000	97.626812 
1808.000000	97.624399 
1807.000000	97.623825 
1806.000000	97.623831 
1805.000000	97.624265 
1804.000000	97.624786 
1803.000000	97.624005 
1802.000000	97.621229 
1801.000000	97.618192 
1800.000000	97.616262 
1799.000000	97.614242 
1798.000000	97.611441 
1797.000000	97.608837 
1796.000000	97.607376 
1795.000000	97.607734 
1794.000000	97.610480 
1793.000000	97.615012 
1792.000000	97.618132 
1791.000000	97.617468 
1790.000000	97.615692 
1789.000000	97.617035 
1788.000000	97.622382 
1787.000000	97.629037 
1786.000000	97.633876 
1785.000000	97.636117 
1784.000000	97.637115 
1783.000000	97.638606 
1782.000000	97.640974 
1781.000000	97.643425 
1780.000000	97.645229 
1779.000000	97.646854 
1778.000000	97.650104 
1777.000000	97.655773 
1776.000000	97.662279 
1775.000000	97.667256 
1774.000000	97.669545 
1773.000000	97.670443 
1772.000000	97.672040 
1771.000000	97.674206 
1770.000000	97.675632 
1769.000000	97.676243 
1768.000000	97.677144 
1767.000000	97.678850 
1766.000000	97.680820 
1765.000000	97.682933 
1764.000000	97.685773 
1763.000000	97.689296 
1762.000000	97.692436 
1761.000000	97.694672 
1760.000000	97.696529 
1759.000000	97.698269 
1758.000000	97.699556 
1757.000000	97.700380 
1756.000000	97.701694 
1755.000000	97.703627 
1754.000000	97.704602 
1753.000000	97.703253 
1752.000000	97.700440 
1751.000000	97.699319 
1750.000000	97.701717 
1749.000000	97.706060 
1748.000000	97.709782 
1747.000000	97.711917 
1746.000000	97.712561 
1745.000000	97.712406 
1744.000000	97.712640 
1743.000000	97.713705 
1742.000000	97.714692 
1741.000000	97.715002 
1740.000000	97.715549 
1739.000000	97.717347 
1738.000000	97.719624 
1737.000000	97.721075 
1736.000000	97.721142 
1735.000000	97.719805 
1734.000000	97.716783 
1733.000000	97.712519 
1732.000000	97.709570 
1731.000000	97.710431 
1730.000000	97.715246 
1729.000000	97.720847 
1728.000000	97.724064 
1727.000000	97.724548 
1726.000000	97.723860 
1725.000000	97.723274 
1724.000000	97.723199 
1723.000000	97.723746 
1722.000000	97.725039 
1721.000000	97.726615 
1720.000000	97.727628 
1719.000000	97.727024 
1718.000000	97.723989 
1717.000000	97.719450 
1716.000000	97.714248 
1715.000000	97.708571 
1714.000000	97.704122 
1713.000000	97.701670 
1712.000000	97.699756 
1711.000000	97.697478 
1710.000000	97.695065 
1709.000000	97.692350 
1708.000000	97.689001 
1707.000000	97.685914 
1706.000000	97.684754 
1705.000000	97.685024 
1704.000000	97.682990 
1703.000000	97.676482 
1702.000000	97.666580 
1701.000000	97.658417 
1700.000000	97.655316 
1699.000000	97.653481 
1698.000000	97.651311 
1697.000000	97.650146 
1696.000000	97.648712 
1695.000000	97.644848 
1694.000000	97.639264 
1693.000000	97.633924 
1692.000000	97.629199 
1691.000000	97.624385 
1690.000000	97.619024 
1689.000000	97.613514 
1688.000000	97.608705 
1687.000000	97.604949 
1686.000000	97.602197 
1685.000000	97.600435 
1684.000000	97.597347 
1683.000000	97.591792 
1682.000000	97.585864 
1681.000000	97.580089 
1680.000000	97.574784 
1679.000000	97.570092 
1678.000000	97.565658 
1677.000000	97.560943 
1676.000000	97.556556 
1675.000000	97.553180 
1674.000000	97.549269 
1673.000000	97.543457 
1672.000000	97.536954 
1671.000000	97.532187 
1670.000000	97.529806 
1669.000000	97.527608 
1668.000000	97.525295 
1667.000000	97.524366 
1666.000000	97.523817 
1665.000000	97.522128 
1664.000000	97.519872 
1663.000000	97.518026 
1662.000000	97.514734 
1661.000000	97.507613 
1660.000000	97.498448 
1659.000000	97.490875 
1658.000000	97.486600 
1657.000000	97.483800 
1656.000000	97.481604 
1655.000000	97.480547 
1654.000000	97.482065 
1653.000000	97.477724 
1652.000000	97.462921 
1651.000000	97.448836 
1650.000000	97.437536 
1649.000000	97.428027 
1648.000000	97.420514 
1647.000000	97.416050 
1646.000000	97.414128 
1645.000000	97.413529 
1644.000000	97.412182 
1643.000000	97.410036 
1642.000000	97.407934 
1641.000000	97.406520 
1640.000000	97.405785 
1639.000000	97.405309 
1638.000000	97.404620 
1637.000000	97.403917 
1636.000000	97.403817 
1635.000000	97.405739 
1634.000000	97.409971 
1633.000000	97.412828 
1632.000000	97.411710 
1631.000000	97.408707 
1630.000000	97.407555 
1629.000000	97.409078 
1628.000000	97.411790 
1627.000000	97.415480 
1626.000000	97.420900 
1625.000000	97.427825 
1624.000000	97.435891 
1623.000000	97.444784 
1622.000000	97.452992 
1621.000000	97.458407 
1620.000000	97.461364 
1619.000000	97.464437 
1618.000000	97.469336 
1617.000000	97.473206 
1616.000000	97.472748 
1615.000000	97.471883 
1614.000000	97.474082 
1613.000000	97.476793 
1612.000000	97.477366 
1611.000000	97.477099 
1610.000000	97.479120 
1609.000000	97.484646 
1608.000000	97.493217 
1607.000000	97.503857 
1606.000000	97.513812 
1605.000000	97.520680 
1604.000000	97.525843 
1603.000000	97.532439 
1602.000000	97.541242 
1601.000000	97.550517 
1600.000000	97.559118 
1599.000000	97.566987 
1598.000000	97.573236 
1597.000000	97.577331 
1596.000000	97.581214 
1595.000000	97.587762 
1594.000000	97.596984 
1593.000000	97.605738 
1592.000000	97.611954 
1591.000000	97.616643 
1590.000000	97.621271 
1589.000000	97.625910 
1588.000000	97.631093 
1587.000000	97.638320 
1586.000000	97.646682 
1585.000000	97.652605 
1584.000000	97.655412 
1583.000000	97.658435 
1582.000000	97.663553 
1581.000000	97.669080 
1580.000000	97.673820 
1579.000000	97.679613 
1578.000000	97.688802 
1577.000000	97.700783 
1576.000000	97.710713 
1575.000000	97.715982 
1574.000000	97.718511 
1573.000000	97.720108 
1572.000000	97.722670 
1571.000000	97.727790 
1570.000000	97.732419 
1569.000000	97.730153 
1568.000000	97.723442 
1567.000000	97.719199 
1566.000000	97.718491 
1565.000000	97.718270 
1564.000000	97.718609 
1563.000000	97.719541 
1562.000000	97.720866 
1561.000000	97.719783 
1560.000000	97.722342 
1559.000000	97.725952 
1558.000000	97.717809 
1557.000000	97.707664 
1556.000000	97.701571 
1555.000000	97.698713 
1554.000000	97.693359 
1553.000000	97.684667 
1552.000000	97.673371 
1551.000000	97.659784 
1550.000000	97.644151 
1549.000000	97.630878 
1548.000000	97.624066 
1547.000000	97.621686 
1546.000000	97.616843 
1545.000000	97.606004 
1544.000000	97.593478 
1543.000000	97.584922 
1542.000000	97.580636 
1541.000000	97.575621 
1540.000000	97.559530 
1539.000000	97.533524 
1538.000000	97.509709 
1537.000000	97.489823 
1536.000000	97.471606 
1535.000000	97.455549 
1534.000000	97.443034 
1533.000000	97.432455 
1532.000000	97.420709 
1531.000000	97.406027 
1530.000000	97.389555 
1529.000000	97.373231 
1528.000000	97.357088 
1527.000000	97.339922 
1526.000000	97.321408 
1525.000000	97.303667 
1524.000000	97.289255 
1523.000000	97.278221 
1522.000000	97.266783 
1521.000000	97.249529 
1520.000000	97.226076 
1519.000000	97.200259 
1518.000000	97.174626 
1517.000000	97.150735 
1516.000000	97.130322 
1515.000000	97.114524 
1514.000000	97.101757 
1513.000000	97.089107 
1512.000000	97.074224 
1511.000000	97.055710 
1510.000000	97.034647 
1509.000000	97.013955 
1508.000000	96.997462 
1507.000000	96.983075 
1506.000000	96.964356 
1505.000000	96.941774 
1504.000000	96.918537 
1503.000000	96.896317 
1502.000000	96.874971 
1501.000000	96.855157 
1500.000000	96.837859 
1499.000000	96.822353 
1498.000000	96.804202 
1497.000000	96.781087 
1496.000000	96.756767 
1495.000000	96.736119 
1494.000000	96.720002 
1493.000000	96.707069 
1492.000000	96.696236 
1491.000000	96.685893 
1490.000000	96.673022 
1489.000000	96.656645 
1488.000000	96.637719 
1487.000000	96.616738 
1486.000000	96.595078 
1485.000000	96.573001 
1484.000000	96.551295 
1483.000000	96.532097 
1482.000000	96.515677 
1481.000000	96.500284 
1480.000000	96.484226 
1479.000000	96.467579 
1478.000000	96.451136 
1477.000000	96.435225 
1476.000000	96.418889 
1475.000000	96.400418 
1474.000000	96.379969 
1473.000000	96.361480 
1472.000000	96.348755 
1471.000000	96.339407 
1470.000000	96.328835 
1469.000000	96.315796 
1468.000000	96.300881 
1467.000000	96.284303 
1466.000000	96.267317 
1465.000000	96.252982 
1464.000000	96.242576 
1463.000000	96.231825 
1462.000000	96.216591 
1461.000000	96.199554 
1460.000000	96.187694 
1459.000000	96.184615 
1458.000000	96.182220 
1457.000000	96.168783 
1456.000000	96.148714 
1455.000000	96.131210 
1454.000000	96.115517 
1453.000000	96.102456 
1452.000000	96.095274 
1451.000000	96.095418 
1450.000000	96.100163 
1449.000000	96.106402 
1448.000000	96.111592 
1447.000000	96.113110 
1446.000000	96.109796 
1445.000000	96.104269 
1444.000000	96.100676 
1443.000000	96.099675 
1442.000000	96.099316 
1441.000000	96.098451 
1440.000000	96.097755 
1439.000000	96.097202 
1438.000000	96.095031 
1437.000000	96.091998 
1436.000000	96.092272 
1435.000000	96.095523 
1434.000000	96.097981 
1433.000000	96.100715 
1432.000000	96.107011 
1431.000000	96.117821 
1430.000000	96.130210 
1429.000000	96.141029 
1428.000000	96.149521 
1427.000000	96.156846 
1426.000000	96.165582 
1425.000000	96.178878 
1424.000000	96.198312 
1423.000000	96.219037 
1422.000000	96.234760 
1421.000000	96.247196 
1420.000000	96.263876 
1419.000000	96.284036 
1418.000000	96.297175 
1417.000000	96.303924 
1416.000000	96.315963 
1415.000000	96.337298 
1414.000000	96.359982 
1413.000000	96.376020 
1412.000000	96.387291 
1411.000000	96.400282 
1410.000000	96.416190 
1409.000000	96.433210 
1408.000000	96.452041 
1407.000000	96.474435 
1406.000000	96.499466 
1405.000000	96.524760 
1404.000000	96.549544 
1403.000000	96.571650 
1402.000000	96.588613 
1401.000000	96.603996 
1400.000000	96.626076 
1399.000000	96.657937 
1398.000000	96.691935 
1397.000000	96.720076 
1396.000000	96.743511 
1395.000000	96.767883 
1394.000000	96.793913 
1393.000000	96.818830 
1392.000000	96.843879 
1391.000000	96.871680 
1390.000000	96.901528 
1389.000000	96.929869 
1388.000000	96.953071 
1387.000000	96.970119 
1386.000000	96.983540 
1385.000000	96.998000 
1384.000000	97.017085 
1383.000000	97.040285 
1382.000000	97.063863 
1381.000000	97.085187 
1380.000000	97.104100 
1379.000000	97.121806 
1378.000000	97.139656 
1377.000000	97.158351 
1376.000000	97.177343 
1375.000000	97.195159 
1374.000000	97.210998 
1373.000000	97.226125 
1372.000000	97.242053 
1371.000000	97.259143 
1370.000000	97.277198 
1369.000000	97.295165 
1368.000000	97.312613 
1367.000000	97.329477 
1366.000000	97.345763 
1365.000000	97.362163 
1364.000000	97.378353 
1363.000000	97.391827 
1362.000000	97.401174 
1361.000000	97.408829 
1360.000000	97.418587 
1359.000000	97.432290 
1358.000000	97.449109 
1357.000000	97.466686 
1356.000000	97.482830 
1355.000000	97.496408 
1354.000000	97.507946 
1353.000000	97.519883 
1352.000000	97.533686 
1351.000000	97.548659 
1350.000000	97.563264 
1349.000000	97.574969 
1348.000000	97.582654 
1347.000000	97.588121 
1346.000000	97.594921 
1345.000000	97.604756 
1344.000000	97.616097 
1343.000000	97.626556 
1342.000000	97.635410 
1341.000000	97.642742 
1340.000000	97.648002 
1339.000000	97.651289 
1338.000000	97.654401 
1337.000000	97.659108 
1336.000000	97.665115 
1335.000000	97.670525 
1334.000000	97.674331 
1333.000000	97.677447 
1332.000000	97.680998 
1331.000000	97.685300 
1330.000000	97.690438 
1329.000000	97.696469 
1328.000000	97.702821 
1327.000000	97.708593 
1326.000000	97.713011 
1325.000000	97.714816 
1324.000000	97.713406 
1323.000000	97.709701 
1322.000000	97.705731 
1321.000000	97.703323 
1320.000000	97.703336 
1319.000000	97.705596 
1318.000000	97.709173 
1317.000000	97.712868 
1316.000000	97.715362 
1315.000000	97.715492 
1314.000000	97.713314 
1313.000000	97.711232 
1312.000000	97.712440 
1311.000000	97.717298 
1310.000000	97.722290 
1309.000000	97.723876 
1308.000000	97.722486 
1307.000000	97.721837 
1306.000000	97.724527 
1305.000000	97.729172 
1304.000000	97.732932 
1303.000000	97.734299 
1302.000000	97.733282 
1301.000000	97.730414 
1300.000000	97.726951 
1299.000000	97.724831 
1298.000000	97.725006 
1297.000000	97.726131 
1296.000000	97.725983 
1295.000000	97.724383 
1294.000000	97.723353 
1293.000000	97.724331 
1292.000000	97.726260 
1291.000000	97.727002 
1290.000000	97.726157 
1289.000000	97.725449 
1288.000000	97.726041 
1287.000000	97.726437 
1286.000000	97.724004 
1285.000000	97.718566 
1284.000000	97.713463 
1283.000000	97.712149 
1282.000000	97.714406 
1281.000000	97.716826 
1280.000000	97.716900 
1279.000000	97.715647 
1278.000000	97.715851 
1277.000000	97.718692 
1276.000000	97.722645 
1275.000000	97.725524 
1274.000000	97.726598 
1273.000000	97.726690 
1272.000000	97.726831 
1271.000000	97.727217 
1270.000000	97.727287 
1269.000000	97.726493 
1268.000000	97.724861 
1267.000000	97.722709 
1266.000000	97.720248 
1265.000000	97.718365 
1264.000000	97.718984 
1263.000000	97.722953 
1262.000000	97.727740 
1261.000000	97.729114 
1260.000000	97.726277 
1259.000000	97.723828 
1258.000000	97.726509 
1257.000000	97.733005 
1256.000000	97.737056 
1255.000000	97.735012 
1254.000000	97.730388 
1253.000000	97.729325 
1252.000000	97.732332 
1251.000000	97.733237 
1250.000000	97.726948 
1249.000000	97.716000 
1248.000000	97.707560 
1247.000000	97.704916 
1246.000000	97.704405 
1245.000000	97.701205 
1244.000000	97.695270 
1243.000000	97.689855 
1242.000000	97.686352 
1241.000000	97.683186 
1240.000000	97.678814 
1239.000000	97.673121 
1238.000000	97.665893 
1237.000000	97.656171 
1236.000000	97.643629 
1235.000000	97.629107 
1234.000000	97.613387 
1233.000000	97.596680 
1232.000000	97.579431 
1231.000000	97.562086 
1230.000000	97.543669 
1229.000000	97.521876 
1228.000000	97.494873 
1227.000000	97.462087 
1226.000000	97.423444 
1225.000000	97.379099 
1224.000000	97.329908 
1223.000000	97.276698 
1222.000000	97.218662 
1221.000000	97.153826 
1220.000000	97.081599 
1219.000000	97.003773 
1218.000000	96.922516 
1217.000000	96.838451 
1216.000000	96.750847 
1215.000000	96.658514 
1214.000000	96.560739 
1213.000000	96.459059 
1212.000000	96.357492 
1211.000000	96.258274 
1210.000000	96.157799 
1209.000000	96.050312 
1208.000000	95.935969 
1207.000000	95.821625 
1206.000000	95.712601 
1205.000000	95.607033 
1204.000000	95.499774 
1203.000000	95.388629 
1202.000000	95.275355 
1201.000000	95.163264 
1200.000000	95.055038 
1199.000000	94.950446 
1198.000000	94.845279 
1197.000000	94.735288 
1196.000000	94.621419 
1195.000000	94.508183 
1194.000000	94.396985 
1193.000000	94.284628 
1192.000000	94.168604 
1191.000000	94.049599 
1190.000000	93.928110 
1189.000000	93.802928 
1188.000000	93.674182 
1187.000000	93.544018 
1186.000000	93.413181 
1185.000000	93.280482 
1184.000000	93.145954 
1183.000000	93.010427 
1182.000000	92.871955 
1181.000000	92.727368 
1180.000000	92.577513 
1179.000000	92.425800 
1178.000000	92.271197 
1177.000000	92.108454 
1176.000000	91.935967 
1175.000000	91.757583 
1174.000000	91.576028 
1173.000000	91.391133 
1172.000000	91.205634 
1171.000000	91.025039 
1170.000000	90.849508 
1169.000000	90.673558 
1168.000000	90.497035 
1167.000000	90.329767 
1166.000000	90.183298 
1165.000000	90.065893 
1164.000000	89.987847 
1163.000000	89.961401 
1162.000000	89.988794 
1161.000000	90.055274 
1160.000000	90.136811 
1159.000000	90.209898 
1158.000000	90.254006 
1157.000000	90.254201 
1156.000000	90.206892 
1155.000000	90.119326 
1154.000000	90.001592 
1153.000000	89.862934 
1152.000000	89.715145 
1151.000000	89.570761 
1150.000000	89.434040 
1149.000000	89.300090 
1148.000000	89.165597 
1147.000000	89.033504 
1146.000000	88.905015 
1145.000000	88.775339 
1144.000000	88.641321 
1143.000000	88.506227 
1142.000000	88.373307 
1141.000000	88.241248 
1140.000000	88.109052 
1139.000000	87.978425 
1138.000000	87.848544 
1137.000000	87.715809 
1136.000000	87.581304 
1135.000000	87.450630 
1134.000000	87.323529 
1133.000000	87.191967 
1132.000000	87.051811 
1131.000000	86.908336 
1130.000000	86.766953 
1129.000000	86.626439 
1128.000000	86.484478 
1127.000000	86.341710 
1126.000000	86.197116 
1125.000000	86.047631 
1124.000000	85.895339 
1123.000000	85.746845 
1122.000000	85.602801 
1121.000000	85.456758 
1120.000000	85.306854 
1119.000000	85.159009 
1118.000000	85.015967 
1117.000000	84.873901 
1116.000000	84.732586 
1115.000000	84.597593 
1114.000000	84.469157 
1113.000000	84.340475 
1112.000000	84.210224 
1111.000000	84.084414 
1110.000000	83.962938 
1109.000000	83.837500 
1108.000000	83.705774 
1107.000000	83.574236 
1106.000000	83.444753 
1105.000000	83.312370 
1104.000000	83.178831 
1103.000000	83.053240 
1102.000000	82.935119 
1101.000000	82.812525 
1100.000000	82.681281 
1099.000000	82.550940 
1098.000000	82.429054 
1097.000000	82.312335 
1096.000000	82.198345 
1095.000000	82.090510 
1094.000000	81.987541 
1093.000000	81.883026 
1092.000000	81.779960 
1091.000000	81.690433 
1090.000000	81.616395 
1089.000000	81.545703 
1088.000000	81.471204 
1087.000000	81.398372 
1086.000000	81.330605 
1085.000000	81.263394 
1084.000000	81.197150 
1083.000000	81.139109 
1082.000000	81.087716 
1081.000000	81.031288 
1080.000000	80.966814 
1079.000000	80.904026 
1078.000000	80.846489 
1077.000000	80.784762 
1076.000000	80.712445 
1075.000000	80.632065 
1074.000000	80.540829 
1073.000000	80.427569 
1072.000000	80.288374 
1071.000000	80.128965 
1070.000000	79.947855 
1069.000000	79.734273 
1068.000000	79.487452 
1067.000000	79.221512 
1066.000000	78.947186 
1065.000000	78.665760 
1064.000000	78.384667 
1063.000000	78.118260 
1062.000000	77.866093 
1061.000000	77.610390 
1060.000000	77.342812 
1059.000000	77.075123 
1058.000000	76.816721 
1057.000000	76.561112 
1056.000000	76.302388 
1055.000000	76.045387 
1054.000000	75.790603 
1053.000000	75.527570 
1052.000000	75.253089 
1051.000000	74.978249 
1050.000000	74.707772 
1049.000000	74.431578 
1048.000000	74.145227 
1047.000000	73.857659 
1046.000000	73.572433 
1045.000000	73.282764 
1044.000000	72.989433 
1043.000000	72.702232 
1042.000000	72.419657 
1041.000000	72.128784 
1040.000000	71.830237 
1039.000000	71.541532 
1038.000000	71.270710 
1037.000000	71.009420 
1036.000000	70.757000 
1035.000000	70.526956 
1034.000000	70.322878 
1033.000000	70.132073 
1032.000000	69.949982 
1031.000000	69.787233 
1030.000000	69.646013 
1029.000000	69.514141 
1028.000000	69.389459 
1027.000000	69.284996 
1026.000000	69.202001 
1025.000000	69.122354 
1024.000000	69.035870 
1023.000000	68.951598 
1022.000000	68.874552 
1021.000000	68.795484 
1020.000000	68.711379 
1019.000000	68.632393 
1018.000000	68.560575 
1017.000000	68.484227 
1016.000000	68.400216 
1015.000000	68.319651 
1014.000000	68.245816 
1013.000000	68.169653 
1012.000000	68.092379 
1011.000000	68.028727 
1010.000000	67.982096 
1009.000000	67.940058 
1008.000000	67.899369 
1007.000000	67.871397 
1006.000000	67.858345 
1005.000000	67.849304 
1004.000000	67.844594 
1003.000000	67.858104 
1002.000000	67.889969 
1001.000000	67.922941 
1000.000000	67.952065 
999.000000	 67.992252 
998.000000	 68.049869 
997.000000	 68.112585 
996.000000	 68.174251 
995.000000	 68.244751 
994.000000	 68.327682 
993.000000	 68.412559 
992.000000	 68.496385 
991.000000	 68.589647 
990.000000	 68.694639 
989.000000	 68.801138 
988.000000	 68.909010 
987.000000	 69.031405 
986.000000	 69.170533 
985.000000	 69.314760 
984.000000	 69.464593 
983.000000	 69.635969 
982.000000	 69.831525 
981.000000	 70.033801 
980.000000	 70.233875 
979.000000	 70.442533 
978.000000	 70.665865 
977.000000	 70.894509 
976.000000	 71.125055 
975.000000	 71.368804 
974.000000	 71.630609 
973.000000	 71.900260 
972.000000	 72.172254 
971.000000	 72.453650 
970.000000	 72.745642 
969.000000	 73.037382 
968.000000	 73.324138 
967.000000	 73.612478 
966.000000	 73.903063 
965.000000	 74.188089 
964.000000	 74.469618 
963.000000	 74.759776 
962.000000	 75.058260 
961.000000	 75.349873 
960.000000	 75.628720 
959.000000	 75.904668 
958.000000	 76.181646 
957.000000	 76.449968 
956.000000	 76.705336 
955.000000	 76.955875 
954.000000	 77.205257 
953.000000	 77.447353 
952.000000	 77.681756 
951.000000	 77.915763 
950.000000	 78.147060 
949.000000	 78.363522 
948.000000	 78.563942 
947.000000	 78.759970 
946.000000	 78.953993 
945.000000	 79.134668 
944.000000	 79.298843 
943.000000	 79.458244 
942.000000	 79.619188 
941.000000	 79.774670 
940.000000	 79.922634 
939.000000	 80.073454 
938.000000	 80.232599 
937.000000	 80.392879 
936.000000	 80.550079 
935.000000	 80.709816 
934.000000	 80.873709 
933.000000	 81.035293 
932.000000	 81.194720 
931.000000	 81.361068 
930.000000	 81.535046 
929.000000	 81.705483 
928.000000	 81.867722 
927.000000	 82.029430 
926.000000	 82.193515 
925.000000	 82.351017 
924.000000	 82.495714 
923.000000	 82.631122 
922.000000	 82.759619 
921.000000	 82.879679 
920.000000	 82.996571 
919.000000	 83.119365 
918.000000	 83.243767 
917.000000	 83.354505 
916.000000	 83.449516 
915.000000	 83.546439 
914.000000	 83.660880 
913.000000	 83.793517 
912.000000	 83.942167 
911.000000	 84.110299 
910.000000	 84.298724 
909.000000	 84.503778 
908.000000	 84.727729 
907.000000	 84.976728 
906.000000	 85.246227 
905.000000	 85.523291 
904.000000	 85.804604 
903.000000	 86.096480 
902.000000	 86.396728 
901.000000	 86.693715 
900.000000	 86.984565 
899.000000	 87.277148 
898.000000	 87.572422 
897.000000	 87.861266 
896.000000	 88.139912 
895.000000	 88.411779 
894.000000	 88.673186 
893.000000	 88.914726 
892.000000	 89.138706 
891.000000	 89.358153 
890.000000	 89.575474 
889.000000	 89.777626 
888.000000	 89.954667 
887.000000	 90.107623 
886.000000	 90.237208 
885.000000	 90.341797 
884.000000	 90.428744 
883.000000	 90.510300 
882.000000	 90.585416 
881.000000	 90.644052 
880.000000	 90.692981 
879.000000	 90.756924 
878.000000	 90.848124 
877.000000	 90.955442 
876.000000	 91.070587 
875.000000	 91.203673 
874.000000	 91.363847 
873.000000	 91.545710 
872.000000	 91.745365 
871.000000	 91.970211 
870.000000	 92.220884 
869.000000	 92.479817 
868.000000	 92.729029 
867.000000	 92.966907 
866.000000	 93.199721 
865.000000	 93.429510 
864.000000	 93.658162 
863.000000	 93.891300 
862.000000	 94.129270 
861.000000	 94.363173 
860.000000	 94.586334 
859.000000	 94.801399 
858.000000	 95.011647 
857.000000	 95.214262 
856.000000	 95.406410 
855.000000	 95.588919 
854.000000	 95.759778 
853.000000	 95.912683 
852.000000	 96.046114 
851.000000	 96.166565 
850.000000	 96.280563 
849.000000	 96.391035 
848.000000	 96.501777 
847.000000	 96.615180 
846.000000	 96.724295 
845.000000	 96.818033 
844.000000	 96.896092 
843.000000	 96.968234 
842.000000	 97.037489 
841.000000	 97.095302 
840.000000	 97.134931 
839.000000	 97.157863 
838.000000	 97.165537 
837.000000	 97.157984 
836.000000	 97.144162 
835.000000	 97.140573 
834.000000	 97.153732 
833.000000	 97.174671 
832.000000	 97.195289 
831.000000	 97.218599 
830.000000	 97.248222 
829.000000	 97.281069 
828.000000	 97.318430 
827.000000	 97.372155 
826.000000	 97.449323 
825.000000	 97.539309 
824.000000	 97.623999 
823.000000	 97.692045 
822.000000	 97.738683 
821.000000	 97.764019 
820.000000	 97.776991 
819.000000	 97.788820 
818.000000	 97.796152 
817.000000	 97.779256 
816.000000	 97.720750 
815.000000	 97.617901 
814.000000	 97.473602 
813.000000	 97.284084 
812.000000	 97.039271 
811.000000	 96.725848 
810.000000	 96.325333 
809.000000	 95.819850 
808.000000	 95.208758 
807.000000	 94.514242 
806.000000	 93.765174 
805.000000	 92.982927 
804.000000	 92.188602 
803.000000	 91.412637 
802.000000	 90.687237 
801.000000	 90.038629 
800.000000	 89.493928 
799.000000	 89.081834 
798.000000	 88.815156 
797.000000	 88.681466 
796.000000	 88.655355 
795.000000	 88.708068 
794.000000	 88.805760 
793.000000	 88.917700 
792.000000	 89.030982 
791.000000	 89.142578 
790.000000	 89.236905 
789.000000	 89.288549 
788.000000	 89.286479 
787.000000	 89.235212 
786.000000	 89.130611 
785.000000	 88.955916 
784.000000	 88.707432 
783.000000	 88.406364 
782.000000	 88.081613 
781.000000	 87.760686 
780.000000	 87.481050 
779.000000	 87.285181 
778.000000	 87.192207 
777.000000	 87.191775 
776.000000	 87.271550 
775.000000	 87.428855 
774.000000	 87.648665 
773.000000	 87.895307 
772.000000	 88.139023 
771.000000	 88.373346 
770.000000	 88.598510 
769.000000	 88.806943 
768.000000	 88.993361 
767.000000	 89.160498 
766.000000	 89.306421 
765.000000	 89.424060 
764.000000	 89.521454 
763.000000	 89.624205 
762.000000	 89.748099 
761.000000	 89.885147 
760.000000	 90.024404 
759.000000	 90.169061 
758.000000	 90.324039 
757.000000	 90.484414 
756.000000	 90.647067 
755.000000	 90.818484 
754.000000	 90.999659 
753.000000	 91.175262 
752.000000	 91.327177 
751.000000	 91.449707 
750.000000	 91.548370 
749.000000	 91.636516 
748.000000	 91.735414 
747.000000	 91.860919 
746.000000	 92.004038 
745.000000	 92.139571 
744.000000	 92.259122 
743.000000	 92.380319 
742.000000	 92.519599 
741.000000	 92.674023 
740.000000	 92.836094 
739.000000	 93.007201 
738.000000	 93.186504 
737.000000	 93.362075 
736.000000	 93.523377 
735.000000	 93.671138 
734.000000	 93.808334 
733.000000	 93.933146 
732.000000	 94.045414 
731.000000	 94.147224 
730.000000	 94.233017 
729.000000	 94.292689 
728.000000	 94.331754 
727.000000	 94.374520 
726.000000	 94.439116 
725.000000	 94.523128 
724.000000	 94.618238 
723.000000	 94.723089 
722.000000	 94.835542 
721.000000	 94.947607 
720.000000	 95.056110 
719.000000	 95.165105 
718.000000	 95.272403 
717.000000	 95.368764 
716.000000	 95.453336 
715.000000	 95.535604 
714.000000	 95.619794 
713.000000	 95.702352 
712.000000	 95.788123 
711.000000	 95.889330 
710.000000	 96.001827 
709.000000	 96.103217 
708.000000	 96.180918 
707.000000	 96.243050 
706.000000	 96.291854 
705.000000	 96.309236 
704.000000	 96.281661 
703.000000	 96.214945 
702.000000	 96.108684 
701.000000	 95.935013 
700.000000	 95.661252 
699.000000	 95.287064 
698.000000	 94.848237 
697.000000	 94.400841 
696.000000	 94.014623 
695.000000	 93.758108 
694.000000	 93.668184 
693.000000	 93.733479 
692.000000	 93.911176 
691.000000	 94.155209 
690.000000	 94.424762 
689.000000	 94.686223 
688.000000	 94.923236 
687.000000	 95.135618 
686.000000	 95.323773 
685.000000	 95.484637 
684.000000	 95.624208 
683.000000	 95.756928 
682.000000	 95.885103 
681.000000	 95.997136 
680.000000	 96.092618 
679.000000	 96.191361 
678.000000	 96.304980 
677.000000	 96.418846 
676.000000	 96.526576 
675.000000	 96.641972 
674.000000	 96.768289 
673.000000	 96.883927 
672.000000	 96.978668 
671.000000	 97.084083 
670.000000	 97.255146 
669.000000	 97.523907 
668.000000	 97.780329 
667.000000	 97.830785 
666.000000	 97.737502 
665.000000	 97.642767 
664.000000	 97.578460 
663.000000	 97.554497 
662.000000	 97.579900 
661.000000	 97.636618 
660.000000	 97.700790 
659.000000	 97.767080 
658.000000	 97.829147 
657.000000	 97.860484 
656.000000	 97.850907 
655.000000	 97.818603 
654.000000	 97.773392 
653.000000	 97.704881 
652.000000	 97.628987 
651.000000	 97.602830 
650.000000	 97.655295 

