4000.000000	97.132723 
3999.000000	97.130265 
3998.000000	97.126592 
3997.000000	97.122743 
3996.000000	97.119903 
3995.000000	97.118865 
3994.000000	97.119774 
3993.000000	97.121852 
3992.000000	97.123632 
3991.000000	97.124008 
3990.000000	97.122996 
3989.000000	97.121439 
3988.000000	97.120175 
3987.000000	97.119599 
3986.000000	97.119875 
3985.000000	97.120993 
3984.000000	97.122491 
3983.000000	97.123545 
3982.000000	97.123738 
3981.000000	97.123413 
3980.000000	97.122966 
3979.000000	97.122127 
3978.000000	97.120391 
3977.000000	97.117962 
3976.000000	97.115805 
3975.000000	97.114602 
3974.000000	97.114047 
3973.000000	97.113266 
3972.000000	97.111683 
3971.000000	97.109501 
3970.000000	97.107542 
3969.000000	97.106771 
3968.000000	97.107635 
3967.000000	97.109677 
3966.000000	97.111831 
3965.000000	97.113094 
3964.000000	97.112938 
3963.000000	97.111423 
3962.000000	97.109179 
3961.000000	97.107086 
3960.000000	97.105629 
3959.000000	97.104720 
3958.000000	97.104098 
3957.000000	97.103728 
3956.000000	97.103443 
3955.000000	97.102656 
3954.000000	97.101002 
3953.000000	97.098859 
3952.000000	97.097025 
3951.000000	97.095773 
3950.000000	97.094639 
3949.000000	97.093121 
3948.000000	97.091315 
3947.000000	97.089921 
3946.000000	97.089549 
3945.000000	97.090046 
3944.000000	97.090490 
3943.000000	97.090175 
3942.000000	97.089590 
3941.000000	97.089800 
3940.000000	97.091115 
3939.000000	97.092734 
3938.000000	97.093514 
3937.000000	97.093105 
3936.000000	97.091878 
3935.000000	97.090100 
3934.000000	97.087865 
3933.000000	97.085569 
3932.000000	97.083963 
3931.000000	97.083217 
3930.000000	97.082875 
3929.000000	97.082911 
3928.000000	97.083777 
3927.000000	97.085295 
3926.000000	97.086038 
3925.000000	97.084885 
3924.000000	97.082662 
3923.000000	97.080980 
3922.000000	97.080229 
3921.000000	97.079890 
3920.000000	97.079821 
3919.000000	97.080295 
3918.000000	97.080871 
3917.000000	97.080764 
3916.000000	97.080157 
3915.000000	97.080018 
3914.000000	97.080553 
3913.000000	97.081040 
3912.000000	97.080957 
3911.000000	97.080722 
3910.000000	97.080686 
3909.000000	97.080752 
3908.000000	97.080671 
3907.000000	97.080282 
3906.000000	97.079239 
3905.000000	97.076873 
3904.000000	97.073199 
3903.000000	97.069388 
3902.000000	97.066827 
3901.000000	97.065990 
3900.000000	97.066390 
3899.000000	97.067333 
3898.000000	97.068403 
3897.000000	97.069213 
3896.000000	97.069461 
3895.000000	97.069329 
3894.000000	97.069184 
3893.000000	97.069116 
3892.000000	97.068626 
3891.000000	97.067398 
3890.000000	97.065812 
3889.000000	97.064525 
3888.000000	97.063748 
3887.000000	97.063183 
3886.000000	97.062634 
3885.000000	97.062201 
3884.000000	97.061836 
3883.000000	97.061284 
3882.000000	97.060472 
3881.000000	97.059613 
3880.000000	97.058962 
3879.000000	97.058507 
3878.000000	97.058093 
3877.000000	97.057639 
3876.000000	97.057152 
3875.000000	97.056644 
3874.000000	97.056132 
3873.000000	97.055637 
3872.000000	97.055159 
3871.000000	97.054683 
3870.000000	97.054228 
3869.000000	97.053827 
3868.000000	97.053479 
3867.000000	97.053167 
3866.000000	97.052873 
3865.000000	97.052594 
3864.000000	97.052344 
3863.000000	97.052128 
3862.000000	97.051927 
3861.000000	97.051719 
3860.000000	97.051508 
3859.000000	97.051299 
3858.000000	97.051063 
3857.000000	97.050760 
3856.000000	97.050389 
3855.000000	97.049948 
3854.000000	97.049441 
3853.000000	97.049043 
3852.000000	97.048893 
3851.000000	97.048912 
3850.000000	97.048973 
3849.000000	97.049071 
3848.000000	97.049302 
3847.000000	97.049682 
3846.000000	97.050023 
3845.000000	97.050116 
3844.000000	97.049913 
3843.000000	97.049499 
3842.000000	97.049037 
3841.000000	97.048707 
3840.000000	97.048590 
3839.000000	97.048730 
3838.000000	97.049084 
3837.000000	97.049455 
3836.000000	97.049666 
3835.000000	97.049705 
3834.000000	97.049677 
3833.000000	97.049679 
3832.000000	97.049747 
3831.000000	97.049889 
3830.000000	97.050081 
3829.000000	97.050285 
3828.000000	97.050472 
3827.000000	97.050609 
3826.000000	97.050661 
3825.000000	97.050660 
3824.000000	97.050642 
3823.000000	97.050599 
3822.000000	97.050524 
3821.000000	97.050485 
3820.000000	97.050543 
3819.000000	97.050665 
3818.000000	97.050806 
3817.000000	97.050957 
3816.000000	97.051161 
3815.000000	97.051433 
3814.000000	97.051728 
3813.000000	97.051991 
3812.000000	97.052212 
3811.000000	97.052412 
3810.000000	97.052623 
3809.000000	97.052847 
3808.000000	97.053038 
3807.000000	97.053132 
3806.000000	97.053126 
3805.000000	97.053091 
3804.000000	97.053068 
3803.000000	97.053054 
3802.000000	97.053086 
3801.000000	97.053312 
3800.000000	97.053711 
3799.000000	97.053907 
3798.000000	97.053662 
3797.000000	97.053272 
3796.000000	97.053355 
3795.000000	97.054144 
3794.000000	97.055124 
3793.000000	97.055558 
3792.000000	97.055488 
3791.000000	97.055776 
3790.000000	97.056826 
3789.000000	97.057803 
3788.000000	97.057667 
3787.000000	97.056394 
3786.000000	97.054771 
3785.000000	97.053424 
3784.000000	97.052640 
3783.000000	97.052591 
3782.000000	97.052732 
3781.000000	97.052071 
3780.000000	97.050653 
3779.000000	97.050222 
3778.000000	97.051829 
3777.000000	97.054247 
3776.000000	97.055198 
3775.000000	97.053947 
3774.000000	97.052107 
3773.000000	97.051695 
3772.000000	97.052278 
3771.000000	97.051518 
3770.000000	97.049006 
3769.000000	97.047078 
3768.000000	97.046694 
3767.000000	97.046146 
3766.000000	97.043847 
3765.000000	97.040806 
3764.000000	97.039737 
3763.000000	97.041170 
3762.000000	97.042050 
3761.000000	97.039668 
3760.000000	97.035509 
3759.000000	97.032881 
3758.000000	97.030125 
3757.000000	97.023946 
3756.000000	97.015567 
3755.000000	97.008161 
3754.000000	97.001925 
3753.000000	96.994942 
3752.000000	96.989259 
3751.000000	96.988695 
3750.000000	96.989797 
3749.000000	96.987011 
3748.000000	96.983407 
3747.000000	96.985275 
3746.000000	96.990824 
3745.000000	96.992634 
3744.000000	96.993970 
3743.000000	97.000044 
3742.000000	97.004605 
3741.000000	97.001238 
3740.000000	96.993353 
3739.000000	96.991433 
3738.000000	96.998222 
3737.000000	97.003766 
3736.000000	97.001501 
3735.000000	96.998766 
3734.000000	97.003378 
3733.000000	97.010268 
3732.000000	97.012226 
3731.000000	97.010418 
3730.000000	97.009023 
3729.000000	97.008318 
3728.000000	97.005503 
3727.000000	96.999957 
3726.000000	96.995432 
3725.000000	96.994248 
3724.000000	96.994333 
3723.000000	96.993929 
3722.000000	96.994552 
3721.000000	96.996879 
3720.000000	96.997850 
3719.000000	96.995351 
3718.000000	96.989634 
3717.000000	96.982792 
3716.000000	96.977309 
3715.000000	96.972675 
3714.000000	96.966131 
3713.000000	96.956777 
3712.000000	96.947762 
3711.000000	96.942534 
3710.000000	96.940274 
3709.000000	96.938749 
3708.000000	96.936242 
3707.000000	96.931244 
3706.000000	96.923911 
3705.000000	96.916171 
3704.000000	96.909875 
3703.000000	96.904493 
3702.000000	96.896807 
3701.000000	96.883739 
3700.000000	96.865853 
3699.000000	96.847602 
3698.000000	96.832899 
3697.000000	96.822491 
3696.000000	96.816454 
3695.000000	96.813866 
3694.000000	96.811354 
3693.000000	96.806593 
3692.000000	96.801563 
3691.000000	96.799736 
3690.000000	96.799795 
3689.000000	96.797667 
3688.000000	96.792541 
3687.000000	96.786644 
3686.000000	96.781248 
3685.000000	96.775067 
3684.000000	96.767925 
3683.000000	96.763008 
3682.000000	96.761335 
3681.000000	96.756320 
3680.000000	96.741226 
3679.000000	96.718822 
3678.000000	96.698762 
3677.000000	96.682273 
3676.000000	96.663196 
3675.000000	96.643952 
3674.000000	96.629376 
3673.000000	96.617549 
3672.000000	96.603663 
3671.000000	96.586708 
3670.000000	96.573674 
3669.000000	96.569725 
3668.000000	96.567820 
3667.000000	96.560121 
3666.000000	96.548388 
3665.000000	96.537879 
3664.000000	96.529764 
3663.000000	96.520972 
3662.000000	96.507360 
3661.000000	96.487298 
3660.000000	96.463583 
3659.000000	96.440155 
3658.000000	96.418984 
3657.000000	96.398080 
3656.000000	96.376302 
3655.000000	96.355253 
3654.000000	96.335405 
3653.000000	96.314855 
3652.000000	96.290571 
3651.000000	96.262236 
3650.000000	96.234553 
3649.000000	96.211030 
3648.000000	96.190239 
3647.000000	96.172694 
3646.000000	96.161758 
3645.000000	96.157447 
3644.000000	96.155256 
3643.000000	96.151043 
3642.000000	96.143735 
3641.000000	96.134561 
3640.000000	96.123673 
3639.000000	96.109321 
3638.000000	96.091618 
3637.000000	96.073046 
3636.000000	96.054684 
3635.000000	96.033569 
3634.000000	96.007915 
3633.000000	95.981636 
3632.000000	95.960022 
3631.000000	95.941766 
3630.000000	95.919730 
3629.000000	95.894737 
3628.000000	95.875478 
3627.000000	95.862656 
3626.000000	95.851690 
3625.000000	95.843428 
3624.000000	95.842842 
3623.000000	95.852281 
3622.000000	95.866550 
3621.000000	95.874677 
3620.000000	95.869230 
3619.000000	95.853764 
3618.000000	95.837953 
3617.000000	95.829485 
3616.000000	95.832104 
3615.000000	95.844043 
3614.000000	95.859520 
3613.000000	95.874163 
3612.000000	95.887374 
3611.000000	95.899278 
3610.000000	95.908863 
3609.000000	95.915432 
3608.000000	95.919888 
3607.000000	95.923732 
3606.000000	95.927771 
3605.000000	95.934163 
3604.000000	95.946350 
3603.000000	95.965041 
3602.000000	95.986036 
3601.000000	96.002121 
3600.000000	96.009319 
3599.000000	96.009062 
3598.000000	96.005774 
3597.000000	96.003742 
3596.000000	96.005964 
3595.000000	96.011693 
3594.000000	96.018401 
3593.000000	96.024894 
3592.000000	96.031592 
3591.000000	96.038691 
3590.000000	96.043889 
3589.000000	96.043169 
3588.000000	96.035718 
3587.000000	96.026482 
3586.000000	96.020946 
3585.000000	96.020977 
3584.000000	96.026313 
3583.000000	96.035666 
3582.000000	96.046803 
3581.000000	96.056240 
3580.000000	96.060777 
3579.000000	96.059253 
3578.000000	96.053427 
3577.000000	96.047101 
3576.000000	96.043536 
3575.000000	96.043325 
3574.000000	96.044443 
3573.000000	96.044891 
3572.000000	96.044066 
3571.000000	96.042345 
3570.000000	96.039440 
3569.000000	96.033952 
3568.000000	96.025836 
3567.000000	96.018437 
3566.000000	96.015038 
3565.000000	96.015453 
3564.000000	96.017951 
3563.000000	96.021458 
3562.000000	96.025191 
3561.000000	96.027994 
3560.000000	96.028734 
3559.000000	96.027474 
3558.000000	96.025658 
3557.000000	96.025118 
3556.000000	96.026593 
3555.000000	96.029240 
3554.000000	96.031270 
3553.000000	96.031363 
3552.000000	96.029633 
3551.000000	96.027123 
3550.000000	96.024847 
3549.000000	96.023446 
3548.000000	96.023083 
3547.000000	96.023178 
3546.000000	96.022628 
3545.000000	96.021150 
3544.000000	96.020194 
3543.000000	96.021550 
3542.000000	96.025131 
3541.000000	96.029048 
3540.000000	96.031614 
3539.000000	96.032603 
3538.000000	96.032683 
3537.000000	96.032466 
3536.000000	96.032285 
3535.000000	96.031954 
3534.000000	96.030908 
3533.000000	96.028803 
3532.000000	96.026279 
3531.000000	96.024645 
3530.000000	96.024529 
3529.000000	96.025191 
3528.000000	96.025296 
3527.000000	96.024263 
3526.000000	96.022636 
3525.000000	96.021481 
3524.000000	96.021618 
3523.000000	96.023187 
3522.000000	96.025527 
3521.000000	96.027718 
3520.000000	96.029393 
3519.000000	96.030828 
3518.000000	96.032343 
3517.000000	96.033715 
3516.000000	96.034370 
3515.000000	96.034031 
3514.000000	96.033062 
3513.000000	96.032086 
3512.000000	96.031327 
3511.000000	96.030530 
3510.000000	96.029520 
3509.000000	96.028648 
3508.000000	96.028560 
3507.000000	96.029560 
3506.000000	96.031221 
3505.000000	96.032548 
3504.000000	96.032752 
3503.000000	96.031913 
3502.000000	96.030950 
3501.000000	96.030847 
3500.000000	96.031866 
3499.000000	96.033452 
3498.000000	96.034715 
3497.000000	96.035123 
3496.000000	96.034733 
3495.000000	96.033946 
3494.000000	96.033160 
3493.000000	96.032574 
3492.000000	96.032122 
3491.000000	96.031577 
3490.000000	96.030942 
3489.000000	96.030610 
3488.000000	96.030872 
3487.000000	96.031293 
3486.000000	96.030993 
3485.000000	96.029663 
3484.000000	96.027965 
3483.000000	96.026773 
3482.000000	96.026271 
3481.000000	96.026112 
3480.000000	96.026124 
3479.000000	96.026407 
3478.000000	96.026733 
3477.000000	96.026375 
3476.000000	96.024759 
3475.000000	96.022148 
3474.000000	96.019530 
3473.000000	96.017830 
3472.000000	96.017228 
3471.000000	96.017146 
3470.000000	96.016865 
3469.000000	96.016231 
3468.000000	96.015670 
3467.000000	96.015542 
3466.000000	96.015560 
3465.000000	96.014891 
3464.000000	96.012797 
3463.000000	96.009199 
3462.000000	96.004815 
3461.000000	96.000831 
3460.000000	95.998057 
3459.000000	95.996191 
3458.000000	95.994103 
3457.000000	95.990936 
3456.000000	95.987004 
3455.000000	95.983469 
3454.000000	95.981307 
3453.000000	95.980555 
3452.000000	95.980605 
3451.000000	95.980851 
3450.000000	95.980873 
3449.000000	95.980189 
3448.000000	95.978231 
3447.000000	95.974810 
3446.000000	95.970429 
3445.000000	95.966077 
3444.000000	95.962605 
3443.000000	95.960235 
3442.000000	95.958478 
3441.000000	95.956542 
3440.000000	95.954003 
3439.000000	95.951056 
3438.000000	95.948165 
3437.000000	95.945529 
3436.000000	95.943106 
3435.000000	95.941000 
3434.000000	95.939560 
3433.000000	95.938856 
3432.000000	95.938412 
3431.000000	95.937637 
3430.000000	95.936307 
3429.000000	95.934604 
3428.000000	95.932743 
3427.000000	95.930807 
3426.000000	95.928949 
3425.000000	95.927534 
3424.000000	95.926763 
3423.000000	95.926151 
3422.000000	95.924778 
3421.000000	95.922275 
3420.000000	95.919370 
3419.000000	95.917176 
3418.000000	95.916110 
3417.000000	95.915786 
3416.000000	95.915710 
3415.000000	95.915578 
3414.000000	95.914932 
3413.000000	95.913187 
3412.000000	95.910348 
3411.000000	95.907420 
3410.000000	95.905684 
3409.000000	95.905647 
3408.000000	95.906772 
3407.000000	95.907956 
3406.000000	95.908328 
3405.000000	95.907814 
3404.000000	95.907059 
3403.000000	95.906688 
3402.000000	95.906651 
3401.000000	95.906449 
3400.000000	95.905935 
3399.000000	95.905528 
3398.000000	95.905568 
3397.000000	95.905858 
3396.000000	95.906067 
3395.000000	95.906317 
3394.000000	95.907011 
3393.000000	95.908110 
3392.000000	95.908927 
3391.000000	95.908809 
3390.000000	95.907936 
3389.000000	95.907302 
3388.000000	95.907807 
3387.000000	95.909407 
3386.000000	95.911108 
3385.000000	95.911754 
3384.000000	95.910912 
3383.000000	95.909176 
3382.000000	95.907821 
3381.000000	95.907861 
3380.000000	95.909164 
3379.000000	95.910505 
3378.000000	95.910860 
3377.000000	95.910703 
3376.000000	95.911481 
3375.000000	95.913827 
3374.000000	95.916854 
3373.000000	95.919287 
3372.000000	95.920847 
3371.000000	95.922200 
3370.000000	95.923994 
3369.000000	95.926296 
3368.000000	95.928659 
3367.000000	95.930332 
3366.000000	95.930668 
3365.000000	95.929772 
3364.000000	95.928682 
3363.000000	95.928500 
3362.000000	95.929349 
3361.000000	95.930545 
3360.000000	95.931731 
3359.000000	95.933418 
3358.000000	95.936296 
3357.000000	95.940332 
3356.000000	95.944680 
3355.000000	95.948341 
3354.000000	95.950933 
3353.000000	95.952919 
3352.000000	95.955159 
3351.000000	95.958119 
3350.000000	95.961441 
3349.000000	95.964301 
3348.000000	95.966218 
3347.000000	95.967455 
3346.000000	95.968701 
3345.000000	95.970413 
3344.000000	95.972341 
3343.000000	95.973682 
3342.000000	95.973938 
3341.000000	95.973624 
3340.000000	95.973778 
3339.000000	95.974794 
3338.000000	95.976164 
3337.000000	95.977372 
3336.000000	95.978656 
3335.000000	95.980623 
3334.000000	95.983373 
3333.000000	95.986345 
3332.000000	95.988973 
3331.000000	95.991249 
3330.000000	95.993537 
3329.000000	95.996016 
3328.000000	95.998458 
3327.000000	96.000486 
3326.000000	96.001958 
3325.000000	96.003045 
3324.000000	96.004006 
3323.000000	96.004980 
3322.000000	96.005991 
3321.000000	96.007047 
3320.000000	96.008153 
3319.000000	96.009317 
3318.000000	96.010653 
3317.000000	96.012391 
3316.000000	96.014653 
3315.000000	96.017224 
3314.000000	96.019663 
3313.000000	96.021706 
3312.000000	96.023485 
3311.000000	96.025353 
3310.000000	96.027555 
3309.000000	96.030021 
3308.000000	96.032386 
3307.000000	96.034251 
3306.000000	96.035512 
3305.000000	96.036447 
3304.000000	96.037551 
3303.000000	96.039155 
3302.000000	96.041247 
3301.000000	96.043560 
3300.000000	96.045751 
3299.000000	96.047587 
3298.000000	96.049017 
3297.000000	96.050191 
3296.000000	96.051444 
3295.000000	96.053113 
3294.000000	96.055312 
3293.000000	96.057880 
3292.000000	96.060509 
3291.000000	96.062968 
3290.000000	96.065200 
3289.000000	96.067248 
3288.000000	96.069165 
3287.000000	96.071012 
3286.000000	96.072869 
3285.000000	96.074808 
3284.000000	96.076837 
3283.000000	96.078931 
3282.000000	96.081096 
3281.000000	96.083337 
3280.000000	96.085549 
3279.000000	96.087561 
3278.000000	96.089383 
3277.000000	96.091306 
3276.000000	96.093615 
3275.000000	96.096245 
3274.000000	96.098829 
3273.000000	96.101134 
3272.000000	96.103276 
3271.000000	96.105508 
3270.000000	96.107926 
3269.000000	96.110468 
3268.000000	96.113035 
3267.000000	96.115522 
3266.000000	96.117875 
3265.000000	96.120228 
3264.000000	96.122801 
3263.000000	96.125553 
3262.000000	96.128102 
3261.000000	96.130156 
3260.000000	96.131834 
3259.000000	96.133437 
3258.000000	96.135095 
3257.000000	96.136873 
3256.000000	96.138947 
3255.000000	96.141315 
3254.000000	96.143532 
3253.000000	96.145129 
3252.000000	96.146283 
3251.000000	96.147781 
3250.000000	96.150187 
3249.000000	96.153320 
3248.000000	96.156498 
3247.000000	96.159226 
3246.000000	96.161545 
3245.000000	96.163740 
3244.000000	96.165955 
3243.000000	96.168103 
3242.000000	96.170080 
3241.000000	96.171961 
3240.000000	96.173966 
3239.000000	96.176303 
3238.000000	96.179114 
3237.000000	96.182492 
3236.000000	96.186327 
3235.000000	96.190045 
3234.000000	96.192770 
3233.000000	96.193980 
3232.000000	96.194038 
3231.000000	96.194073 
3230.000000	96.195047 
3229.000000	96.197035 
3228.000000	96.199393 
3227.000000	96.201462 
3226.000000	96.203174 
3225.000000	96.204963 
3224.000000	96.207212 
3223.000000	96.209938 
3222.000000	96.212982 
3221.000000	96.216302 
3220.000000	96.219914 
3219.000000	96.223618 
3218.000000	96.226962 
3217.000000	96.229565 
3216.000000	96.231412 
3215.000000	96.232829 
3214.000000	96.234270 
3213.000000	96.236129 
3212.000000	96.238588 
3211.000000	96.241557 
3210.000000	96.244741 
3209.000000	96.247831 
3208.000000	96.250671 
3207.000000	96.253226 
3206.000000	96.255448 
3205.000000	96.257280 
3204.000000	96.258842 
3203.000000	96.260531 
3202.000000	96.262751 
3201.000000	96.265541 
3200.000000	96.268529 
3199.000000	96.271350 
3198.000000	96.274008 
3197.000000	96.276737 
3196.000000	96.279640 
3195.000000	96.282644 
3194.000000	96.285738 
3193.000000	96.289023 
3192.000000	96.292469 
3191.000000	96.295779 
3190.000000	96.298637 
3189.000000	96.301019 
3188.000000	96.303202 
3187.000000	96.305534 
3186.000000	96.308221 
3185.000000	96.311306 
3184.000000	96.314711 
3183.000000	96.318268 
3182.000000	96.321787 
3181.000000	96.325089 
3180.000000	96.328024 
3179.000000	96.330530 
3178.000000	96.332692 
3177.000000	96.334760 
3176.000000	96.337045 
3175.000000	96.339746 
3174.000000	96.342886 
3173.000000	96.346336 
3172.000000	96.349847 
3171.000000	96.353148 
3170.000000	96.356104 
3169.000000	96.358776 
3168.000000	96.361349 
3167.000000	96.363967 
3166.000000	96.366659 
3165.000000	96.369423 
3164.000000	96.372268 
3163.000000	96.375193 
3162.000000	96.378166 
3161.000000	96.381134 
3160.000000	96.384050 
3159.000000	96.386892 
3158.000000	96.389682 
3157.000000	96.392492 
3156.000000	96.395387 
3155.000000	96.398353 
3154.000000	96.401300 
3153.000000	96.404121 
3152.000000	96.406754 
3151.000000	96.409183 
3150.000000	96.411444 
3149.000000	96.413638 
3148.000000	96.415905 
3147.000000	96.418360 
3146.000000	96.421040 
3145.000000	96.423900 
3144.000000	96.426812 
3143.000000	96.429595 
3142.000000	96.432123 
3141.000000	96.434393 
3140.000000	96.436523 
3139.000000	96.438681 
3138.000000	96.440985 
3137.000000	96.443479 
3136.000000	96.446133 
3135.000000	96.448836 
3134.000000	96.451472 
3133.000000	96.454001 
3132.000000	96.456441 
3131.000000	96.458783 
3130.000000	96.460996 
3129.000000	96.463129 
3128.000000	96.465365 
3127.000000	96.467863 
3126.000000	96.470597 
3125.000000	96.473384 
3124.000000	96.476014 
3123.000000	96.478357 
3122.000000	96.480395 
3121.000000	96.482229 
3120.000000	96.484033 
3119.000000	96.485928 
3118.000000	96.487918 
3117.000000	96.489986 
3116.000000	96.492163 
3115.000000	96.494427 
3114.000000	96.496617 
3113.000000	96.498601 
3112.000000	96.500536 
3111.000000	96.502817 
3110.000000	96.505728 
3109.000000	96.509199 
3108.000000	96.512868 
3107.000000	96.516342 
3106.000000	96.519311 
3105.000000	96.521462 
3104.000000	96.522518 
3103.000000	96.522610 
3102.000000	96.522501 
3101.000000	96.523130 
3100.000000	96.524853 
3099.000000	96.527255 
3098.000000	96.529755 
3097.000000	96.532289 
3096.000000	96.535036 
3095.000000	96.537736 
3094.000000	96.539850 
3093.000000	96.541304 
3092.000000	96.542599 
3091.000000	96.544119 
3090.000000	96.545755 
3089.000000	96.547282 
3088.000000	96.548737 
3087.000000	96.550316 
3086.000000	96.552200 
3085.000000	96.554504 
3084.000000	96.557090 
3083.000000	96.559481 
3082.000000	96.561347 
3081.000000	96.563024 
3080.000000	96.565084 
3079.000000	96.567351 
3078.000000	96.568969 
3077.000000	96.569606 
3076.000000	96.569971 
3075.000000	96.570840 
3074.000000	96.572090 
3073.000000	96.573199 
3072.000000	96.574241 
3071.000000	96.575757 
3070.000000	96.577849 
3069.000000	96.580001 
3068.000000	96.581684 
3067.000000	96.582676 
3066.000000	96.582934 
3065.000000	96.582675 
3064.000000	96.582436 
3063.000000	96.582556 
3062.000000	96.582767 
3061.000000	96.582787 
3060.000000	96.583091 
3059.000000	96.584526 
3058.000000	96.587431 
3057.000000	96.591563 
3056.000000	96.596396 
3055.000000	96.600793 
3054.000000	96.603019 
3053.000000	96.602247 
3052.000000	96.600015 
3051.000000	96.599231 
3050.000000	96.601066 
3049.000000	96.603839 
3048.000000	96.605150 
3047.000000	96.604303 
3046.000000	96.602259 
3045.000000	96.600238 
3044.000000	96.599148 
3043.000000	96.599760 
3042.000000	96.602372 
3041.000000	96.606137 
3040.000000	96.609294 
3039.000000	96.610513 
3038.000000	96.609953 
3037.000000	96.608929 
3036.000000	96.608523 
3035.000000	96.608497 
3034.000000	96.607764 
3033.000000	96.605935 
3032.000000	96.604012 
3031.000000	96.603331 
3030.000000	96.603986 
3029.000000	96.604643 
3028.000000	96.603734 
3027.000000	96.600542 
3026.000000	96.595546 
3025.000000	96.590202 
3024.000000	96.586105 
3023.000000	96.583753 
3022.000000	96.582239 
3021.000000	96.580584 
3020.000000	96.579078 
3019.000000	96.578651 
3018.000000	96.579101 
3017.000000	96.578870 
3016.000000	96.576781 
3015.000000	96.573321 
3014.000000	96.570084 
3013.000000	96.568350 
3012.000000	96.568148 
3011.000000	96.568154 
3010.000000	96.566644 
3009.000000	96.563112 
3008.000000	96.558791 
3007.000000	96.555132 
3006.000000	96.551945 
3005.000000	96.547810 
3004.000000	96.542173 
3003.000000	96.536167 
3002.000000	96.531421 
3001.000000	96.528892 
3000.000000	96.528804 
2999.000000	96.530549 
2998.000000	96.532298 
2997.000000	96.531678 
2996.000000	96.527583 
2995.000000	96.521153 
2994.000000	96.514759 
2993.000000	96.510211 
2992.000000	96.507875 
2991.000000	96.506862 
2990.000000	96.505837 
2989.000000	96.504202 
2988.000000	96.502741 
2987.000000	96.502780 
2986.000000	96.504772 
2985.000000	96.507958 
2984.000000	96.511341 
2983.000000	96.514613 
2982.000000	96.518024 
2981.000000	96.521607 
2980.000000	96.524588 
2979.000000	96.525419 
2978.000000	96.522786 
2977.000000	96.517164 
2976.000000	96.511283 
2975.000000	96.508338 
2974.000000	96.509659 
2973.000000	96.514438 
2972.000000	96.521076 
2971.000000	96.528113 
2970.000000	96.534127 
2969.000000	96.537929 
2968.000000	96.539510 
2967.000000	96.540267 
2966.000000	96.541876 
2965.000000	96.545120 
2964.000000	96.549686 
2963.000000	96.554510 
2962.000000	96.558340 
2961.000000	96.560618 
2960.000000	96.562022 
2959.000000	96.563663 
2958.000000	96.565670 
2957.000000	96.567119 
2956.000000	96.567422 
2955.000000	96.567168 
2954.000000	96.567496 
2953.000000	96.569273 
2952.000000	96.572973 
2951.000000	96.578411 
2950.000000	96.584114 
2949.000000	96.587928 
2948.000000	96.589213 
2947.000000	96.589990 
2946.000000	96.593060 
2945.000000	96.599003 
2944.000000	96.605643 
2943.000000	96.610367 
2942.000000	96.612391 
2941.000000	96.612862 
2940.000000	96.613550 
2939.000000	96.615573 
2938.000000	96.618568 
2937.000000	96.620651 
2936.000000	96.619821 
2935.000000	96.616064 
2934.000000	96.611885 
2933.000000	96.610050 
2932.000000	96.610643 
2931.000000	96.610940 
2930.000000	96.608343 
2929.000000	96.603169 
2928.000000	96.598413 
2927.000000	96.596889 
2926.000000	96.599004 
2925.000000	96.603162 
2924.000000	96.607654 
2923.000000	96.611831 
2922.000000	96.615679 
2921.000000	96.619035 
2920.000000	96.621730 
2919.000000	96.624174 
2918.000000	96.627083 
2917.000000	96.630293 
2916.000000	96.632286 
2915.000000	96.631594 
2914.000000	96.628786 
2913.000000	96.626444 
2912.000000	96.626541 
2911.000000	96.628088 
2910.000000	96.628125 
2909.000000	96.625162 
2908.000000	96.621087 
2907.000000	96.619271 
2906.000000	96.620998 
2905.000000	96.624272 
2904.000000	96.625678 
2903.000000	96.623679 
2902.000000	96.619926 
2901.000000	96.617653 
2900.000000	96.619114 
2899.000000	96.623983 
2898.000000	96.630227 
2897.000000	96.636050 
2896.000000	96.640890 
2895.000000	96.644750 
2894.000000	96.647642 
2893.000000	96.650077 
2892.000000	96.653184 
2891.000000	96.657403 
2890.000000	96.661512 
2889.000000	96.663986 
2888.000000	96.665076 
2887.000000	96.666389 
2886.000000	96.668396 
2885.000000	96.669715 
2884.000000	96.669418 
2883.000000	96.668800 
2882.000000	96.669860 
2881.000000	96.672942 
2880.000000	96.677092 
2879.000000	96.682026 
2878.000000	96.688206 
2877.000000	96.695019 
2876.000000	96.700486 
2875.000000	96.703424 
2874.000000	96.704806 
2873.000000	96.706416 
2872.000000	96.708833 
2871.000000	96.711461 
2870.000000	96.713962 
2869.000000	96.716607 
2868.000000	96.719440 
2867.000000	96.722060 
2866.000000	96.724315 
2865.000000	96.726517 
2864.000000	96.728895 
2863.000000	96.731420 
2862.000000	96.734191 
2861.000000	96.737442 
2860.000000	96.740993 
2859.000000	96.744175 
2858.000000	96.746603 
2857.000000	96.748725 
2856.000000	96.751383 
2855.000000	96.755024 
2854.000000	96.759416 
2853.000000	96.763859 
2852.000000	96.767626 
2851.000000	96.770418 
2850.000000	96.772634 
2849.000000	96.775102 
2848.000000	96.778248 
2847.000000	96.781635 
2846.000000	96.784504 
2845.000000	96.786686 
2844.000000	96.788753 
2843.000000	96.791320 
2842.000000	96.794409 
2841.000000	96.797414 
2840.000000	96.799528 
2839.000000	96.800290 
2838.000000	96.800026 
2837.000000	96.799784 
2836.000000	96.800566 
2835.000000	96.802569 
2834.000000	96.805318 
2833.000000	96.808426 
2832.000000	96.811909 
2831.000000	96.815685 
2830.000000	96.819136 
2829.000000	96.821490 
2828.000000	96.822595 
2827.000000	96.823226 
2826.000000	96.824660 
2825.000000	96.827872 
2824.000000	96.832934 
2823.000000	96.838895 
2822.000000	96.844229 
2821.000000	96.847609 
2820.000000	96.848398 
2819.000000	96.846810 
2818.000000	96.843943 
2817.000000	96.841521 
2816.000000	96.841014 
2815.000000	96.842725 
2814.000000	96.845649 
2813.000000	96.848143 
2812.000000	96.848959 
2811.000000	96.847923 
2810.000000	96.846025 
2809.000000	96.844861 
2808.000000	96.845527 
2807.000000	96.847867 
2806.000000	96.850885 
2805.000000	96.853836 
2804.000000	96.856674 
2803.000000	96.859530 
2802.000000	96.862313 
2801.000000	96.864985 
2800.000000	96.867702 
2799.000000	96.870313 
2798.000000	96.872131 
2797.000000	96.872762 
2796.000000	96.872893 
2795.000000	96.873653 
2794.000000	96.875214 
2793.000000	96.876529 
2792.000000	96.876625 
2791.000000	96.875706 
2790.000000	96.874840 
2789.000000	96.874833 
2788.000000	96.875644 
2787.000000	96.876761 
2786.000000	96.877832 
2785.000000	96.878865 
2784.000000	96.879977 
2783.000000	96.881164 
2782.000000	96.882302 
2781.000000	96.883285 
2780.000000	96.884187 
2779.000000	96.885305 
2778.000000	96.887001 
2777.000000	96.889410 
2776.000000	96.892208 
2775.000000	96.894708 
2774.000000	96.896309 
2773.000000	96.896922 
2772.000000	96.897002 
2771.000000	96.897197 
2770.000000	96.897996 
2769.000000	96.899590 
2768.000000	96.901774 
2767.000000	96.903929 
2766.000000	96.905340 
2765.000000	96.905732 
2764.000000	96.905446 
2763.000000	96.905066 
2762.000000	96.904921 
2761.000000	96.905024 
2760.000000	96.905402 
2759.000000	96.906269 
2758.000000	96.907763 
2757.000000	96.909598 
2756.000000	96.911134 
2755.000000	96.911949 
2754.000000	96.912233 
2753.000000	96.912607 
2752.000000	96.913531 
2751.000000	96.914980 
2750.000000	96.916687 
2749.000000	96.918483 
2748.000000	96.920223 
2747.000000	96.921533 
2746.000000	96.922006 
2745.000000	96.921710 
2744.000000	96.921285 
2743.000000	96.921388 
2742.000000	96.922132 
2741.000000	96.923157 
2740.000000	96.924032 
2739.000000	96.924557 
2738.000000	96.924774 
2737.000000	96.924831 
2736.000000	96.924860 
2735.000000	96.924921 
2734.000000	96.925059 
2733.000000	96.925436 
2732.000000	96.926287 
2731.000000	96.927691 
2730.000000	96.929445 
2729.000000	96.931208 
2728.000000	96.932681 
2727.000000	96.933624 
2726.000000	96.933900 
2725.000000	96.933652 
2724.000000	96.933383 
2723.000000	96.933631 
2722.000000	96.934531 
2721.000000	96.935748 
2720.000000	96.936811 
2719.000000	96.937552 
2718.000000	96.938156 
2717.000000	96.938835 
2716.000000	96.939532 
2715.000000	96.939972 
2714.000000	96.939984 
2713.000000	96.939725 
2712.000000	96.939590 
2711.000000	96.939852 
2710.000000	96.940486 
2709.000000	96.941266 
2708.000000	96.941951 
2707.000000	96.942448 
2706.000000	96.942894 
2705.000000	96.943585 
2704.000000	96.944691 
2703.000000	96.945947 
2702.000000	96.946805 
2701.000000	96.947036 
2700.000000	96.947101 
2699.000000	96.947717 
2698.000000	96.949073 
2697.000000	96.950647 
2696.000000	96.951774 
2695.000000	96.952241 
2694.000000	96.952377 
2693.000000	96.952591 
2692.000000	96.952918 
2691.000000	96.953064 
2690.000000	96.952808 
2689.000000	96.952230 
2688.000000	96.951603 
2687.000000	96.951133 
2686.000000	96.950948 
2685.000000	96.951210 
2684.000000	96.951931 
2683.000000	96.952804 
2682.000000	96.953404 
2681.000000	96.953620 
2680.000000	96.953692 
2679.000000	96.953863 
2678.000000	96.954138 
2677.000000	96.954387 
2676.000000	96.954494 
2675.000000	96.954344 
2674.000000	96.953866 
2673.000000	96.953189 
2672.000000	96.952599 
2671.000000	96.952235 
2670.000000	96.951968 
2669.000000	96.951613 
2668.000000	96.951156 
2667.000000	96.950690 
2666.000000	96.950244 
2665.000000	96.949778 
2664.000000	96.949279 
2663.000000	96.948779 
2662.000000	96.948294 
2661.000000	96.947802 
2660.000000	96.947280 
2659.000000	96.946725 
2658.000000	96.946144 
2657.000000	96.945543 
2656.000000	96.944936 
2655.000000	96.944333 
2654.000000	96.943735 
2653.000000	96.943136 
2652.000000	96.942533 
2651.000000	96.941932 
2650.000000	96.941343 
2649.000000	96.940773 
2648.000000	96.940221 
2647.000000	96.939675 
2646.000000	96.939123 
2645.000000	96.938561 
2644.000000	96.937994 
2643.000000	96.937432 
2642.000000	96.936882 
2641.000000	96.936354 
2640.000000	96.935838 
2639.000000	96.935319 
2638.000000	96.934801 
2637.000000	96.934317 
2636.000000	96.933897 
2635.000000	96.933559 
2634.000000	96.933305 
2633.000000	96.933126 
2632.000000	96.932979 
2631.000000	96.932776 
2630.000000	96.932419 
2629.000000	96.931879 
2628.000000	96.931233 
2627.000000	96.930632 
2626.000000	96.930232 
2625.000000	96.930114 
2624.000000	96.930204 
2623.000000	96.930265 
2622.000000	96.930064 
2621.000000	96.929553 
2620.000000	96.928814 
2619.000000	96.927841 
2618.000000	96.926524 
2617.000000	96.924996 
2616.000000	96.923816 
2615.000000	96.923539 
2614.000000	96.924162 
2613.000000	96.925152 
2612.000000	96.925945 
2611.000000	96.926362 
2610.000000	96.926568 
2609.000000	96.926800 
2608.000000	96.927133 
2607.000000	96.927412 
2606.000000	96.927489 
2605.000000	96.927520 
2604.000000	96.927757 
2603.000000	96.928085 
2602.000000	96.928160 
2601.000000	96.928008 
2600.000000	96.927981 
2599.000000	96.928050 
2598.000000	96.927661 
2597.000000	96.926567 
2596.000000	96.925307 
2595.000000	96.924426 
2594.000000	96.923667 
2593.000000	96.922483 
2592.000000	96.921142 
2591.000000	96.920605 
2590.000000	96.921288 
2589.000000	96.922440 
2588.000000	96.922885 
2587.000000	96.922237 
2586.000000	96.921152 
2585.000000	96.920651 
2584.000000	96.921233 
2583.000000	96.922560 
2582.000000	96.923800 
2581.000000	96.924425 
2580.000000	96.924639 
2579.000000	96.925006 
2578.000000	96.925816 
2577.000000	96.926833 
2576.000000	96.927561 
2575.000000	96.927689 
2574.000000	96.927322 
2573.000000	96.926861 
2572.000000	96.926655 
2571.000000	96.926702 
2570.000000	96.926747 
2569.000000	96.926640 
2568.000000	96.926524 
2567.000000	96.926638 
2566.000000	96.927002 
2565.000000	96.927384 
2564.000000	96.927543 
2563.000000	96.927442 
2562.000000	96.927223 
2561.000000	96.927112 
2560.000000	96.927279 
2559.000000	96.927719 
2558.000000	96.928231 
2557.000000	96.928598 
2556.000000	96.928815 
2555.000000	96.929052 
2554.000000	96.929366 
2553.000000	96.929539 
2552.000000	96.929353 
2551.000000	96.928985 
2550.000000	96.928935 
2549.000000	96.929419 
2548.000000	96.929972 
2547.000000	96.929870 
2546.000000	96.928906 
2545.000000	96.927630 
2544.000000	96.926761 
2543.000000	96.926430 
2542.000000	96.926299 
2541.000000	96.926262 
2540.000000	96.926622 
2539.000000	96.927482 
2538.000000	96.928333 
2537.000000	96.928621 
2536.000000	96.928490 
2535.000000	96.928541 
2534.000000	96.928873 
2533.000000	96.928821 
2532.000000	96.927813 
2531.000000	96.926082 
2530.000000	96.924348 
2529.000000	96.923006 
2528.000000	96.921907 
2527.000000	96.920926 
2526.000000	96.920489 
2525.000000	96.921295 
2524.000000	96.923494 
2523.000000	96.926227 
2522.000000	96.928206 
2521.000000	96.928821 
2520.000000	96.928435 
2519.000000	96.927654 
2518.000000	96.926585 
2517.000000	96.925036 
2516.000000	96.923101 
2515.000000	96.921186 
2514.000000	96.919659 
2513.000000	96.918817 
2512.000000	96.918978 
2511.000000	96.920238 
2510.000000	96.922210 
2509.000000	96.924270 
2508.000000	96.925935 
2507.000000	96.926873 
2506.000000	96.927030 
2505.000000	96.927116 
2504.000000	96.928362 
2503.000000	96.931098 
2502.000000	96.933891 
2501.000000	96.934862 
2500.000000	96.933770 
2499.000000	96.932143 
2498.000000	96.931487 
2497.000000	96.931777 
2496.000000	96.932178 
2495.000000	96.932453 
2494.000000	96.933064 
2493.000000	96.934209 
2492.000000	96.935491 
2491.000000	96.936538 
2490.000000	96.937429 
2489.000000	96.938319 
2488.000000	96.938990 
2487.000000	96.939111 
2486.000000	96.938777 
2485.000000	96.938500 
2484.000000	96.938655 
2483.000000	96.939130 
2482.000000	96.939586 
2481.000000	96.939922 
2480.000000	96.940359 
2479.000000	96.941081 
2478.000000	96.941970 
2477.000000	96.942736 
2476.000000	96.943162 
2475.000000	96.943158 
2474.000000	96.942723 
2473.000000	96.941952 
2472.000000	96.941010 
2471.000000	96.940064 
2470.000000	96.939306 
2469.000000	96.939074 
2468.000000	96.939683 
2467.000000	96.940981 
2466.000000	96.942201 
2465.000000	96.942561 
2464.000000	96.942039 
2463.000000	96.941443 
2462.000000	96.941639 
2461.000000	96.942848 
2460.000000	96.944597 
2459.000000	96.946129 
2458.000000	96.946851 
2457.000000	96.946574 
2456.000000	96.945527 
2455.000000	96.944147 
2454.000000	96.942859 
2453.000000	96.941912 
2452.000000	96.941393 
2451.000000	96.941330 
2450.000000	96.941797 
2449.000000	96.942869 
2448.000000	96.944396 
2447.000000	96.945874 
2446.000000	96.946727 
2445.000000	96.946791 
2444.000000	96.946390 
2443.000000	96.945983 
2442.000000	96.945829 
2441.000000	96.946033 
2440.000000	96.946693 
2439.000000	96.947824 
2438.000000	96.949247 
2437.000000	96.950692 
2436.000000	96.951988 
2435.000000	96.953099 
2434.000000	96.954042 
2433.000000	96.954849 
2432.000000	96.955574 
2431.000000	96.956331 
2430.000000	96.957316 
2429.000000	96.958720 
2428.000000	96.960530 
2427.000000	96.962321 
2426.000000	96.963434 
2425.000000	96.963434 
2424.000000	96.962494 
2423.000000	96.961343 
2422.000000	96.960759 
2421.000000	96.961247 
2420.000000	96.962985 
2419.000000	96.965535 
2418.000000	96.967609 
2417.000000	96.968290 
2416.000000	96.968365 
2415.000000	96.969391 
2414.000000	96.971528 
2413.000000	96.973619 
2412.000000	96.975087 
2411.000000	96.976242 
2410.000000	96.977068 
2409.000000	96.977313 
2408.000000	96.977745 
2407.000000	96.979775 
2406.000000	96.983381 
2405.000000	96.986631 
2404.000000	96.987672 
2403.000000	96.986606 
2402.000000	96.985225 
2401.000000	96.985511 
2400.000000	96.988294 
2399.000000	96.992709 
2398.000000	96.996896 
2397.000000	96.999635 
2396.000000	97.001123 
2395.000000	97.001912 
2394.000000	97.001761 
2393.000000	97.000251 
2392.000000	96.997873 
2391.000000	96.995472 
2390.000000	96.993063 
2389.000000	96.990319 
2388.000000	96.987896 
2387.000000	96.986893 
2386.000000	96.987235 
2385.000000	96.987870 
2384.000000	96.988772 
2383.000000	96.991631 
2382.000000	96.998240 
2381.000000	97.009269 
2380.000000	97.024658 
2379.000000	97.043460 
2378.000000	97.062186 
2377.000000	97.074761 
2376.000000	97.076393 
2375.000000	97.067691 
2374.000000	97.054316 
2373.000000	97.041981 
2372.000000	97.032531 
2371.000000	97.025630 
2370.000000	97.021776 
2369.000000	97.021223 
2368.000000	97.021063 
2367.000000	97.017130 
2366.000000	97.010212 
2365.000000	97.007153 
2364.000000	97.012526 
2363.000000	97.021595 
2362.000000	97.025634 
2361.000000	97.022119 
2360.000000	97.015134 
2359.000000	97.008954 
2358.000000	97.004298 
2357.000000	97.001453 
2356.000000	97.001500 
2355.000000	97.004298 
2354.000000	97.008136 
2353.000000	97.009217 
2352.000000	97.006008 
2351.000000	96.999330 
2350.000000	96.990898 
2349.000000	96.983936 
2348.000000	96.981626 
2347.000000	96.983174 
2346.000000	96.980145 
2345.000000	96.968729 
2344.000000	96.956588 
2343.000000	96.951137 
2342.000000	96.954164 
2341.000000	96.963301 
2340.000000	96.975377 
2339.000000	96.984732 
2338.000000	96.987341 
2337.000000	96.984098 
2336.000000	96.978948 
2335.000000	96.973866 
2334.000000	96.967642 
2333.000000	96.958602 
2332.000000	96.948020 
2331.000000	96.938497 
2330.000000	96.928041 
2329.000000	96.912258 
2328.000000	96.888150 
2327.000000	96.862481 
2326.000000	96.842459 
2325.000000	96.831395 
2324.000000	96.826694 
2323.000000	96.825013 
2322.000000	96.824588 
2321.000000	96.823463 
2320.000000	96.822025 
2319.000000	96.823125 
2318.000000	96.829309 
2317.000000	96.839454 
2316.000000	96.849304 
2315.000000	96.855341 
2314.000000	96.854765 
2313.000000	96.847985 
2312.000000	96.837758 
2311.000000	96.829811 
2310.000000	96.826149 
2309.000000	96.824670 
2308.000000	96.821392 
2307.000000	96.817028 
2306.000000	96.814897 
2305.000000	96.817393 
2304.000000	96.823292 
2303.000000	96.830264 
2302.000000	96.836268 
2301.000000	96.840906 
2300.000000	96.844608 
2299.000000	96.847779 
2298.000000	96.848749 
2297.000000	96.846067 
2296.000000	96.840814 
2295.000000	96.837643 
2294.000000	96.839539 
2293.000000	96.845022 
2292.000000	96.849455 
2291.000000	96.850501 
2290.000000	96.849917 
2289.000000	96.851323 
2288.000000	96.856090 
2287.000000	96.861980 
2286.000000	96.865469 
2285.000000	96.865688 
2284.000000	96.865669 
2283.000000	96.868766 
2282.000000	96.874659 
2281.000000	96.879647 
2280.000000	96.880919 
2279.000000	96.879057 
2278.000000	96.876882 
2277.000000	96.876610 
2276.000000	96.878411 
2275.000000	96.881100 
2274.000000	96.883604 
2273.000000	96.885950 
2272.000000	96.888817 
2271.000000	96.892044 
2270.000000	96.894072 
2269.000000	96.893728 
2268.000000	96.892046 
2267.000000	96.891431 
2266.000000	96.892851 
2265.000000	96.894876 
2264.000000	96.895559 
2263.000000	96.894352 
2262.000000	96.891897 
2261.000000	96.889053 
2260.000000	96.886504 
2259.000000	96.884595 
2258.000000	96.883237 
2257.000000	96.882350 
2256.000000	96.882518 
2255.000000	96.884334 
2254.000000	96.887000 
2253.000000	96.888473 
2252.000000	96.887642 
2251.000000	96.885354 
2250.000000	96.882954 
2249.000000	96.880660 
2248.000000	96.878194 
2247.000000	96.876092 
2246.000000	96.875232 
2245.000000	96.875379 
2244.000000	96.875101 
2243.000000	96.873389 
2242.000000	96.870656 
2241.000000	96.868227 
2240.000000	96.867117 
2239.000000	96.867356 
2238.000000	96.868172 
2237.000000	96.868597 
2236.000000	96.868253 
2235.000000	96.867389 
2234.000000	96.866269 
2233.000000	96.864856 
2232.000000	96.863211 
2231.000000	96.861740 
2230.000000	96.860699 
2229.000000	96.859744 
2228.000000	96.858386 
2227.000000	96.856665 
2226.000000	96.854981 
2225.000000	96.853459 
2224.000000	96.851888 
2223.000000	96.850218 
2222.000000	96.848770 
2221.000000	96.847759 
2220.000000	96.846962 
2219.000000	96.846074 
2218.000000	96.845020 
2217.000000	96.843908 
2216.000000	96.842849 
2215.000000	96.841856 
2214.000000	96.840854 
2213.000000	96.839767 
2212.000000	96.838619 
2211.000000	96.837535 
2210.000000	96.836596 
2209.000000	96.835756 
2208.000000	96.834909 
2207.000000	96.833979 
2206.000000	96.832924 
2205.000000	96.831704 
2204.000000	96.830294 
2203.000000	96.828840 
2202.000000	96.827749 
2201.000000	96.827348 
2200.000000	96.827293 
2199.000000	96.826726 
2198.000000	96.825123 
2197.000000	96.822732 
2196.000000	96.820284 
2195.000000	96.818243 
2194.000000	96.816513 
2193.000000	96.814884 
2192.000000	96.813621 
2191.000000	96.813343 
2190.000000	96.814237 
2189.000000	96.815677 
2188.000000	96.816844 
2187.000000	96.817276 
2186.000000	96.816435 
2185.000000	96.813606 
2184.000000	96.809312 
2183.000000	96.806349 
2182.000000	96.807593 
2181.000000	96.812501 
2180.000000	96.816533 
2179.000000	96.815483 
2178.000000	96.809445 
2177.000000	96.802461 
2176.000000	96.798602 
2175.000000	96.798917 
2174.000000	96.801974 
2173.000000	96.806117 
2172.000000	96.810923 
2171.000000	96.816580 
2170.000000	96.822112 
2169.000000	96.824775 
2168.000000	96.822137 
2167.000000	96.814887 
2166.000000	96.806830 
2165.000000	96.801537 
2164.000000	96.799743 
2163.000000	96.800693 
2162.000000	96.805092 
2161.000000	96.815113 
2160.000000	96.831213 
2159.000000	96.849765 
2158.000000	96.864930 
2157.000000	96.873478 
2156.000000	96.876926 
2155.000000	96.879085 
2154.000000	96.882577 
2153.000000	96.887944 
2152.000000	96.894365 
2151.000000	96.899506 
2150.000000	96.899762 
2149.000000	96.893566 
2148.000000	96.884924 
2147.000000	96.880955 
2146.000000	96.884739 
2145.000000	96.893037 
2144.000000	96.901965 
2143.000000	96.911959 
2142.000000	96.924441 
2141.000000	96.936553 
2140.000000	96.943531 
2139.000000	96.945554 
2138.000000	96.948237 
2137.000000	96.955780 
2136.000000	96.966496 
2135.000000	96.975563 
2134.000000	96.979836 
2133.000000	96.979624 
2132.000000	96.977748 
2131.000000	96.976870 
2130.000000	96.976994 
2129.000000	96.976006 
2128.000000	96.973097 
2127.000000	96.970567 
2126.000000	96.971126 
2125.000000	96.974343 
2124.000000	96.977211 
2123.000000	96.977427 
2122.000000	96.974642 
2121.000000	96.969313 
2120.000000	96.962198 
2119.000000	96.955027 
2118.000000	96.950235 
2117.000000	96.949261 
2116.000000	96.951323 
2115.000000	96.953800 
2114.000000	96.953835 
2113.000000	96.950559 
2112.000000	96.946427 
2111.000000	96.945566 
2110.000000	96.949779 
2109.000000	96.956638 
2108.000000	96.961996 
2107.000000	96.964014 
2106.000000	96.963829 
2105.000000	96.963312 
2104.000000	96.963498 
2103.000000	96.964414 
2102.000000	96.964733 
2101.000000	96.961974 
2100.000000	96.954937 
2099.000000	96.946380 
2098.000000	96.941699 
2097.000000	96.943791 
2096.000000	96.950665 
2095.000000	96.957625 
2094.000000	96.961555 
2093.000000	96.962420 
2092.000000	96.961549 
2091.000000	96.960234 
2090.000000	96.959630 
2089.000000	96.960572 
2088.000000	96.962817 
2087.000000	96.964866 
2086.000000	96.965097 
2085.000000	96.963189 
2084.000000	96.960406 
2083.000000	96.958425 
2082.000000	96.957931 
2081.000000	96.958536 
2080.000000	96.959880 
2079.000000	96.962120 
2078.000000	96.964870 
2077.000000	96.966428 
2076.000000	96.965221 
2075.000000	96.961796 
2074.000000	96.958102 
2073.000000	96.954752 
2072.000000	96.950353 
2071.000000	96.943853 
2070.000000	96.936289 
2069.000000	96.929747 
2068.000000	96.925621 
2067.000000	96.924301 
2066.000000	96.925223 
2065.000000	96.926359 
2064.000000	96.925051 
2063.000000	96.921080 
2062.000000	96.918057 
2061.000000	96.920097 
2060.000000	96.927594 
2059.000000	96.937328 
2058.000000	96.945528 
2057.000000	96.950086 
2056.000000	96.950145 
2055.000000	96.945098 
2054.000000	96.935909 
2053.000000	96.925951 
2052.000000	96.919002 
2051.000000	96.916258 
2050.000000	96.915843 
2049.000000	96.915263 
2048.000000	96.913966 
2047.000000	96.913106 
2046.000000	96.913365 
2045.000000	96.914157 
2044.000000	96.914833 
2043.000000	96.915566 
2042.000000	96.916735 
2041.000000	96.918152 
2040.000000	96.919377 
2039.000000	96.920395 
2038.000000	96.921416 
2037.000000	96.922274 
2036.000000	96.922534 
2035.000000	96.922113 
2034.000000	96.921490 
2033.000000	96.921247 
2032.000000	96.921523 
2031.000000	96.921925 
2030.000000	96.921913 
2029.000000	96.921335 
2028.000000	96.920563 
2027.000000	96.920074 
2026.000000	96.919956 
2025.000000	96.919997 
2024.000000	96.920039 
2023.000000	96.920099 
2022.000000	96.920205 
2021.000000	96.920262 
2020.000000	96.920107 
2019.000000	96.919684 
2018.000000	96.919073 
2017.000000	96.918418 
2016.000000	96.917863 
2015.000000	96.917459 
2014.000000	96.917190 
2013.000000	96.916970 
2012.000000	96.916729 
2011.000000	96.916487 
2010.000000	96.916338 
2009.000000	96.916316 
2008.000000	96.916339 
2007.000000	96.916275 
2006.000000	96.916105 
2005.000000	96.915908 
2004.000000	96.915726 
2003.000000	96.915512 
2002.000000	96.915242 
2001.000000	96.914950 
2000.000000	96.914580 
1999.000000	96.913954 
1998.000000	96.913002 
1997.000000	96.911905 
1996.000000	96.910980 
1995.000000	96.910405 
1994.000000	96.910118 
1993.000000	96.909884 
1992.000000	96.909516 
1991.000000	96.909078 
1990.000000	96.908848 
1989.000000	96.909029 
1988.000000	96.909517 
1987.000000	96.909932 
1986.000000	96.909937 
1985.000000	96.909512 
1984.000000	96.908966 
1983.000000	96.908664 
1982.000000	96.908734 
1981.000000	96.909126 
1980.000000	96.909830 
1979.000000	96.910882 
1978.000000	96.912097 
1977.000000	96.913035 
1976.000000	96.913392 
1975.000000	96.913378 
1974.000000	96.913632 
1973.000000	96.914653 
1972.000000	96.916394 
1971.000000	96.918318 
1970.000000	96.919828 
1969.000000	96.920599 
1968.000000	96.920669 
1967.000000	96.920428 
1966.000000	96.920552 
1965.000000	96.921574 
1964.000000	96.923580 
1963.000000	96.926227 
1962.000000	96.929060 
1961.000000	96.931732 
1960.000000	96.933903 
1959.000000	96.935222 
1958.000000	96.935694 
1957.000000	96.935952 
1956.000000	96.936751 
1955.000000	96.938154 
1954.000000	96.939536 
1953.000000	96.940383 
1952.000000	96.940780 
1951.000000	96.941079 
1950.000000	96.941553 
1949.000000	96.942495 
1948.000000	96.944241 
1947.000000	96.946778 
1946.000000	96.949435 
1945.000000	96.951360 
1944.000000	96.952225 
1943.000000	96.952259 
1942.000000	96.951902 
1941.000000	96.951577 
1940.000000	96.951674 
1939.000000	96.952310 
1938.000000	96.953173 
1937.000000	96.953946 
1936.000000	96.954748 
1935.000000	96.955717 
1934.000000	96.956414 
1933.000000	96.956459 
1932.000000	96.956488 
1931.000000	96.957571 
1930.000000	96.959717 
1929.000000	96.961566 
1928.000000	96.962213 
1927.000000	96.962197 
1926.000000	96.962306 
1925.000000	96.962330 
1924.000000	96.961748 
1923.000000	96.960995 
1922.000000	96.960807 
1921.000000	96.960870 
1920.000000	96.960406 
1919.000000	96.959318 
1918.000000	96.957887 
1917.000000	96.955954 
1916.000000	96.953440 
1915.000000	96.951307 
1914.000000	96.950733 
1913.000000	96.951678 
1912.000000	96.952665 
1911.000000	96.952419 
1910.000000	96.951081 
1909.000000	96.949611 
1908.000000	96.948721 
1907.000000	96.948387 
1906.000000	96.947935 
1905.000000	96.946392 
1904.000000	96.943319 
1903.000000	96.939772 
1902.000000	96.937452 
1901.000000	96.936640 
1900.000000	96.936105 
1899.000000	96.934971 
1898.000000	96.933648 
1897.000000	96.932662 
1896.000000	96.931410 
1895.000000	96.929080 
1894.000000	96.925901 
1893.000000	96.922611 
1892.000000	96.919595 
1891.000000	96.917097 
1890.000000	96.915535 
1889.000000	96.915129 
1888.000000	96.915753 
1887.000000	96.917563 
1886.000000	96.920565 
1885.000000	96.923243 
1884.000000	96.923162 
1883.000000	96.919658 
1882.000000	96.914973 
1881.000000	96.912149 
1880.000000	96.912268 
1879.000000	96.913931 
1878.000000	96.914722 
1877.000000	96.913469 
1876.000000	96.911046 
1875.000000	96.909431 
1874.000000	96.910056 
1873.000000	96.912568 
1872.000000	96.915270 
1871.000000	96.916650 
1870.000000	96.916239 
1869.000000	96.914813 
1868.000000	96.914120 
1867.000000	96.915658 
1866.000000	96.918710 
1865.000000	96.920074 
1864.000000	96.917679 
1863.000000	96.913831 
1862.000000	96.912905 
1861.000000	96.916084 
1860.000000	96.920727 
1859.000000	96.924888 
1858.000000	96.929551 
1857.000000	96.935546 
1856.000000	96.941752 
1855.000000	96.946989 
1854.000000	96.950937 
1853.000000	96.953052 
1852.000000	96.954041 
1851.000000	96.956757 
1850.000000	96.962605 
1849.000000	96.969183 
1848.000000	96.972915 
1847.000000	96.973754 
1846.000000	96.974807 
1845.000000	96.978071 
1844.000000	96.982683 
1843.000000	96.987112 
1842.000000	96.990962 
1841.000000	96.994195 
1840.000000	96.997801 
1839.000000	97.003418 
1838.000000	97.010794 
1837.000000	97.016381 
1836.000000	97.017143 
1835.000000	97.014996 
1834.000000	97.013663 
1833.000000	97.013468 
1832.000000	97.012779 
1831.000000	97.011409 
1830.000000	97.011068 
1829.000000	97.013370 
1828.000000	97.017433 
1827.000000	97.021219 
1826.000000	97.023258 
1825.000000	97.023326 
1824.000000	97.022176 
1823.000000	97.020878 
1822.000000	97.020421 
1821.000000	97.020791 
1820.000000	97.021128 
1819.000000	97.021331 
1818.000000	97.023148 
1817.000000	97.027301 
1816.000000	97.030987 
1815.000000	97.031815 
1814.000000	97.030808 
1813.000000	97.030290 
1812.000000	97.030180 
1811.000000	97.028287 
1810.000000	97.025053 
1809.000000	97.022841 
1808.000000	97.021657 
1807.000000	97.020317 
1806.000000	97.019643 
1805.000000	97.021171 
1804.000000	97.024014 
1803.000000	97.025857 
1802.000000	97.025783 
1801.000000	97.025204 
1800.000000	97.025121 
1799.000000	97.024790 
1798.000000	97.024132 
1797.000000	97.023291 
1796.000000	97.022008 
1795.000000	97.021143 
1794.000000	97.022239 
1793.000000	97.025024 
1792.000000	97.026522 
1791.000000	97.025431 
1790.000000	97.025183 
1789.000000	97.028687 
1788.000000	97.034583 
1787.000000	97.039042 
1786.000000	97.039600 
1785.000000	97.036976 
1784.000000	97.034084 
1783.000000	97.034216 
1782.000000	97.038295 
1781.000000	97.044464 
1780.000000	97.049854 
1779.000000	97.053082 
1778.000000	97.055703 
1777.000000	97.059234 
1776.000000	97.063513 
1775.000000	97.067757 
1774.000000	97.071570 
1773.000000	97.075321 
1772.000000	97.078997 
1771.000000	97.081231 
1770.000000	97.082058 
1769.000000	97.083206 
1768.000000	97.085452 
1767.000000	97.087810 
1766.000000	97.089170 
1765.000000	97.090120 
1764.000000	97.091897 
1763.000000	97.094492 
1762.000000	97.096770 
1761.000000	97.098448 
1760.000000	97.099785 
1759.000000	97.100410 
1758.000000	97.099997 
1757.000000	97.099334 
1756.000000	97.100671 
1755.000000	97.104189 
1754.000000	97.107215 
1753.000000	97.107575 
1752.000000	97.106132 
1751.000000	97.106162 
1750.000000	97.109481 
1749.000000	97.114599 
1748.000000	97.119355 
1747.000000	97.123048 
1746.000000	97.124982 
1745.000000	97.125235 
1744.000000	97.125311 
1743.000000	97.126209 
1742.000000	97.127811 
1741.000000	97.130157 
1740.000000	97.133128 
1739.000000	97.135249 
1738.000000	97.134779 
1737.000000	97.131704 
1736.000000	97.127359 
1735.000000	97.123530 
1734.000000	97.121852 
1733.000000	97.121236 
1732.000000	97.120601 
1731.000000	97.121048 
1730.000000	97.123054 
1729.000000	97.124579 
1728.000000	97.123864 
1727.000000	97.121532 
1726.000000	97.119335 
1725.000000	97.119033 
1724.000000	97.120992 
1723.000000	97.124236 
1722.000000	97.128065 
1721.000000	97.131813 
1720.000000	97.134557 
1719.000000	97.135152 
1718.000000	97.133168 
1717.000000	97.129390 
1716.000000	97.123467 
1715.000000	97.116820 
1714.000000	97.113225 
1713.000000	97.113144 
1712.000000	97.112924 
1711.000000	97.110455 
1710.000000	97.106466 
1709.000000	97.101783 
1708.000000	97.096586 
1707.000000	97.091871 
1706.000000	97.089268 
1705.000000	97.087984 
1704.000000	97.084219 
1703.000000	97.076367 
1702.000000	97.066509 
1701.000000	97.059171 
1700.000000	97.056522 
1699.000000	97.054341 
1698.000000	97.051595 
1697.000000	97.049693 
1696.000000	97.048067 
1695.000000	97.045531 
1694.000000	97.042091 
1693.000000	97.038325 
1692.000000	97.034181 
1691.000000	97.029507 
1690.000000	97.024483 
1689.000000	97.019397 
1688.000000	97.014608 
1687.000000	97.010319 
1686.000000	97.006814 
1685.000000	97.004205 
1684.000000	97.000777 
1683.000000	96.995173 
1682.000000	96.988632 
1681.000000	96.982297 
1680.000000	96.976905 
1679.000000	96.972517 
1678.000000	96.968419 
1677.000000	96.964024 
1676.000000	96.959664 
1675.000000	96.955851 
1674.000000	96.951493 
1673.000000	96.945825 
1672.000000	96.939904 
1671.000000	96.935292 
1670.000000	96.932078 
1669.000000	96.928482 
1668.000000	96.924597 
1667.000000	96.921977 
1666.000000	96.919912 
1665.000000	96.917215 
1664.000000	96.914563 
1663.000000	96.913265 
1662.000000	96.911235 
1661.000000	96.904928 
1660.000000	96.896615 
1659.000000	96.891605 
1658.000000	96.890567 
1657.000000	96.889667 
1656.000000	96.885435 
1655.000000	96.878099 
1654.000000	96.870019 
1653.000000	96.863435 
1652.000000	96.853787 
1651.000000	96.844600 
1650.000000	96.836576 
1649.000000	96.830059 
1648.000000	96.825201 
1647.000000	96.822775 
1646.000000	96.822410 
1645.000000	96.822105 
1644.000000	96.820497 
1643.000000	96.818425 
1642.000000	96.817983 
1641.000000	96.818815 
1640.000000	96.819342 
1639.000000	96.817542 
1638.000000	96.813425 
1637.000000	96.809546 
1636.000000	96.808164 
1635.000000	96.809300 
1634.000000	96.810294 
1633.000000	96.809549 
1632.000000	96.806392 
1631.000000	96.803575 
1630.000000	96.804133 
1629.000000	96.807735 
1628.000000	96.811879 
1627.000000	96.816105 
1626.000000	96.820073 
1625.000000	96.822111 
1624.000000	96.822796 
1623.000000	96.825667 
1622.000000	96.831670 
1621.000000	96.837030 
1620.000000	96.840159 
1619.000000	96.842960 
1618.000000	96.847418 
1617.000000	96.851344 
1616.000000	96.852161 
1615.000000	96.853352 
1614.000000	96.857452 
1613.000000	96.861348 
1612.000000	96.862795 
1611.000000	96.864088 
1610.000000	96.868061 
1609.000000	96.874808 
1608.000000	96.884161 
1607.000000	96.895918 
1606.000000	96.906750 
1605.000000	96.913891 
1604.000000	96.919968 
1603.000000	96.927562 
1602.000000	96.934846 
1601.000000	96.939829 
1600.000000	96.944605 
1599.000000	96.951539 
1598.000000	96.958519 
1597.000000	96.962765 
1596.000000	96.965777 
1595.000000	96.971161 
1594.000000	96.979198 
1593.000000	96.986883 
1592.000000	96.992991 
1591.000000	96.999129 
1590.000000	97.005980 
1589.000000	97.012460 
1588.000000	97.019103 
1587.000000	97.027732 
1586.000000	97.037050 
1585.000000	97.042715 
1584.000000	97.044814 
1583.000000	97.048133 
1582.000000	97.054121 
1581.000000	97.060092 
1580.000000	97.065214 
1579.000000	97.071347 
1578.000000	97.079445 
1577.000000	97.089181 
1576.000000	97.099043 
1575.000000	97.106671 
1574.000000	97.110181 
1573.000000	97.110380 
1572.000000	97.111607 
1571.000000	97.118232 
1570.000000	97.127319 
1569.000000	97.129203 
1568.000000	97.124365 
1567.000000	97.120844 
1566.000000	97.120408 
1565.000000	97.120614 
1564.000000	97.121958 
1563.000000	97.122875 
1562.000000	97.120752 
1561.000000	97.110608 
1560.000000	97.105198 
1559.000000	97.113436 
1558.000000	97.118630 
1557.000000	97.116139 
1556.000000	97.113785 
1555.000000	97.113677 
1554.000000	97.112744 
1553.000000	97.109065 
1552.000000	97.104606 
1551.000000	97.098865 
1550.000000	97.091398 
1549.000000	97.084707 
1548.000000	97.081975 
1547.000000	97.082741 
1546.000000	97.081773 
1545.000000	97.074909 
1544.000000	97.064178 
1543.000000	97.054397 
1542.000000	97.048925 
1541.000000	97.048132 
1540.000000	97.042964 
1539.000000	97.028737 
1538.000000	97.011519 
1537.000000	96.994686 
1536.000000	96.978477 
1535.000000	96.965642 
1534.000000	96.958203 
1533.000000	96.953646 
1532.000000	96.946970 
1531.000000	96.936581 
1530.000000	96.924845 
1529.000000	96.913801 
1528.000000	96.903063 
1527.000000	96.892436 
1526.000000	96.882465 
1525.000000	96.873599 
1524.000000	96.865968 
1523.000000	96.859407 
1522.000000	96.852263 
1521.000000	96.840558 
1520.000000	96.823215 
1519.000000	96.804159 
1518.000000	96.786469 
1517.000000	96.770714 
1516.000000	96.756540 
1515.000000	96.744696 
1514.000000	96.735892 
1513.000000	96.729199 
1512.000000	96.721867 
1511.000000	96.710443 
1510.000000	96.694869 
1509.000000	96.677263 
1508.000000	96.661231 
1507.000000	96.647804 
1506.000000	96.636516 
1505.000000	96.625574 
1504.000000	96.613363 
1503.000000	96.599414 
1502.000000	96.584539 
1501.000000	96.570109 
1500.000000	96.557385 
1499.000000	96.545587 
1498.000000	96.532204 
1497.000000	96.517078 
1496.000000	96.502653 
1495.000000	96.490895 
1494.000000	96.482165 
1493.000000	96.475772 
1492.000000	96.470295 
1491.000000	96.463654 
1490.000000	96.453840 
1489.000000	96.441065 
1488.000000	96.425994 
1487.000000	96.409152 
1486.000000	96.392751 
1485.000000	96.376430 
1484.000000	96.359534 
1483.000000	96.344266 
1482.000000	96.332380 
1481.000000	96.323112 
1480.000000	96.313485 
1479.000000	96.302289 
1478.000000	96.290787 
1477.000000	96.279992 
1476.000000	96.267863 
1475.000000	96.251921 
1474.000000	96.233504 
1473.000000	96.217256 
1472.000000	96.206187 
1471.000000	96.197566 
1470.000000	96.188371 
1469.000000	96.177882 
1468.000000	96.165685 
1467.000000	96.151968 
1466.000000	96.139447 
1465.000000	96.131238 
1464.000000	96.126625 
1463.000000	96.119678 
1462.000000	96.106583 
1461.000000	96.089645 
1460.000000	96.073709 
1459.000000	96.060717 
1458.000000	96.047301 
1457.000000	96.031869 
1456.000000	96.019114 
1455.000000	96.008604 
1454.000000	95.995746 
1453.000000	95.983362 
1452.000000	95.977996 
1451.000000	95.980778 
1450.000000	95.987242 
1449.000000	95.993588 
1448.000000	95.997458 
1447.000000	95.997319 
1446.000000	95.993156 
1445.000000	95.987985 
1444.000000	95.985537 
1443.000000	95.984416 
1442.000000	95.982041 
1441.000000	95.979133 
1440.000000	95.977910 
1439.000000	95.976496 
1438.000000	95.970956 
1437.000000	95.963087 
1436.000000	95.959588 
1435.000000	95.960590 
1434.000000	95.962192 
1433.000000	95.964886 
1432.000000	95.971036 
1431.000000	95.980353 
1430.000000	95.989811 
1429.000000	95.998292 
1428.000000	96.005788 
1427.000000	96.012177 
1426.000000	96.017608 
1425.000000	96.023793 
1424.000000	96.033848 
1423.000000	96.045055 
1422.000000	96.053073 
1421.000000	96.060626 
1420.000000	96.074442 
1419.000000	96.090124 
1418.000000	96.095289 
1417.000000	96.093653 
1416.000000	96.098812 
1415.000000	96.113503 
1414.000000	96.129623 
1413.000000	96.140430 
1412.000000	96.148135 
1411.000000	96.157159 
1410.000000	96.167548 
1409.000000	96.178980 
1408.000000	96.192473 
1407.000000	96.208151 
1406.000000	96.224501 
1405.000000	96.241105 
1404.000000	96.259485 
1403.000000	96.276868 
1402.000000	96.289471 
1401.000000	96.300829 
1400.000000	96.318728 
1399.000000	96.343726 
1398.000000	96.366457 
1397.000000	96.381029 
1396.000000	96.391852 
1395.000000	96.406257 
1394.000000	96.424810 
1393.000000	96.444189 
1392.000000	96.465010 
1391.000000	96.488290 
1390.000000	96.512186 
1389.000000	96.533934 
1388.000000	96.551695 
1387.000000	96.565100 
1386.000000	96.575752 
1385.000000	96.587470 
1384.000000	96.603730 
1383.000000	96.623445 
1382.000000	96.642020 
1381.000000	96.656715 
1380.000000	96.668584 
1379.000000	96.680654 
1378.000000	96.695154 
1377.000000	96.712058 
1376.000000	96.729232 
1375.000000	96.743980 
1374.000000	96.755259 
1373.000000	96.765687 
1372.000000	96.778694 
1371.000000	96.795063 
1370.000000	96.812781 
1369.000000	96.828991 
1368.000000	96.843705 
1367.000000	96.858485 
1366.000000	96.873689 
1365.000000	96.888535 
1364.000000	96.900893 
1363.000000	96.908182 
1362.000000	96.911312 
1361.000000	96.915688 
1360.000000	96.925925 
1359.000000	96.941855 
1358.000000	96.959572 
1357.000000	96.974989 
1356.000000	96.986554 
1355.000000	96.994922 
1354.000000	97.001608 
1353.000000	97.008979 
1352.000000	97.017877 
1351.000000	97.028056 
1350.000000	97.039200 
1349.000000	97.049573 
1348.000000	97.057566 
1347.000000	97.063154 
1346.000000	97.068228 
1345.000000	97.074897 
1344.000000	97.083397 
1343.000000	97.092210 
1342.000000	97.099804 
1341.000000	97.105411 
1340.000000	97.108639 
1339.000000	97.109728 
1338.000000	97.109817 
1337.000000	97.110489 
1336.000000	97.112277 
1335.000000	97.113887 
1334.000000	97.114147 
1333.000000	97.114164 
1332.000000	97.116000 
1331.000000	97.120118 
1330.000000	97.124859 
1329.000000	97.128554 
1328.000000	97.131044 
1327.000000	97.133431 
1326.000000	97.136111 
1325.000000	97.137670 
1324.000000	97.137103 
1323.000000	97.134738 
1322.000000	97.131426 
1321.000000	97.128168 
1320.000000	97.126260 
1319.000000	97.126473 
1318.000000	97.128065 
1317.000000	97.129473 
1316.000000	97.129380 
1315.000000	97.127027 
1314.000000	97.122851 
1313.000000	97.119649 
1312.000000	97.120816 
1311.000000	97.126271 
1310.000000	97.131647 
1309.000000	97.133222 
1308.000000	97.131882 
1307.000000	97.131402 
1306.000000	97.133537 
1305.000000	97.136426 
1304.000000	97.137992 
1303.000000	97.137856 
1302.000000	97.136463 
1301.000000	97.134312 
1300.000000	97.132383 
1299.000000	97.131711 
1298.000000	97.132123 
1297.000000	97.132247 
1296.000000	97.131015 
1295.000000	97.128907 
1294.000000	97.127359 
1293.000000	97.127636 
1292.000000	97.130069 
1291.000000	97.133683 
1290.000000	97.136780 
1289.000000	97.138092 
1288.000000	97.137155 
1287.000000	97.133841 
1286.000000	97.128572 
1285.000000	97.123344 
1284.000000	97.121067 
1283.000000	97.122416 
1282.000000	97.124394 
1281.000000	97.123314 
1280.000000	97.118913 
1279.000000	97.114465 
1278.000000	97.113294 
1277.000000	97.116290 
1276.000000	97.122206 
1275.000000	97.129072 
1274.000000	97.135022 
1273.000000	97.138853 
1272.000000	97.140324 
1271.000000	97.139633 
1270.000000	97.136878 
1269.000000	97.132453 
1268.000000	97.127724 
1267.000000	97.124197 
1266.000000	97.122076 
1265.000000	97.120739 
1264.000000	97.120125 
1263.000000	97.120433 
1262.000000	97.121208 
1261.000000	97.121972 
1260.000000	97.123832 
1259.000000	97.128743 
1258.000000	97.136349 
1257.000000	97.142953 
1256.000000	97.144607 
1255.000000	97.141219 
1254.000000	97.137071 
1253.000000	97.136265 
1252.000000	97.137637 
1251.000000	97.135693 
1250.000000	97.127381 
1249.000000	97.116347 
1248.000000	97.108839 
1247.000000	97.106301 
1246.000000	97.104516 
1245.000000	97.099954 
1244.000000	97.093616 
1243.000000	97.087858 
1242.000000	97.082818 
1241.000000	97.077655 
1240.000000	97.072331 
1239.000000	97.065884 
1238.000000	97.055450 
1237.000000	97.039743 
1236.000000	97.021823 
1235.000000	97.005943 
1234.000000	96.992724 
1233.000000	96.979439 
1232.000000	96.963559 
1231.000000	96.943737 
1230.000000	96.919095 
1229.000000	96.890264 
1228.000000	96.859644 
1227.000000	96.827832 
1226.000000	96.790954 
1225.000000	96.744419 
1224.000000	96.688606 
1223.000000	96.628089 
1222.000000	96.565732 
1221.000000	96.500176 
1220.000000	96.428865 
1219.000000	96.350642 
1218.000000	96.265255 
1217.000000	96.173144 
1216.000000	96.076007 
1215.000000	95.975417 
1214.000000	95.871316 
1213.000000	95.764379 
1212.000000	95.658588 
1211.000000	95.557120 
1210.000000	95.456165 
1209.000000	95.347953 
1208.000000	95.230824 
1207.000000	95.111740 
1206.000000	94.997267 
1205.000000	94.885882 
1204.000000	94.771262 
1203.000000	94.649943 
1202.000000	94.524133 
1201.000000	94.399407 
1200.000000	94.280795 
1199.000000	94.168858 
1198.000000	94.058833 
1197.000000	93.945759 
1196.000000	93.829833 
1195.000000	93.714033 
1194.000000	93.597904 
1193.000000	93.477797 
1192.000000	93.352705 
1191.000000	93.225221 
1190.000000	93.096638 
1189.000000	92.965583 
1188.000000	92.831729 
1187.000000	92.696372 
1186.000000	92.558850 
1185.000000	92.416682 
1184.000000	92.269582 
1183.000000	92.119402 
1182.000000	91.966427 
1181.000000	91.809825 
1180.000000	91.650826 
1179.000000	91.490353 
1178.000000	91.324366 
1177.000000	91.147615 
1176.000000	90.961690 
1175.000000	90.773310 
1174.000000	90.584950 
1173.000000	90.393591 
1172.000000	90.198464 
1171.000000	90.002382 
1170.000000	89.805364 
1169.000000	89.605526 
1168.000000	89.407704 
1167.000000	89.223369 
1166.000000	89.061284 
1165.000000	88.927161 
1164.000000	88.832979 
1163.000000	88.794845 
1162.000000	88.816499 
1161.000000	88.881505 
1160.000000	88.963397 
1159.000000	89.036835 
1158.000000	89.079704 
1157.000000	89.076147 
1156.000000	89.023037 
1155.000000	88.928583 
1154.000000	88.803058 
1153.000000	88.655691 
1152.000000	88.499194 
1151.000000	88.347136 
1150.000000	88.203367 
1149.000000	88.061630 
1148.000000	87.917861 
1147.000000	87.775007 
1146.000000	87.634394 
1145.000000	87.492062 
1144.000000	87.347029 
1143.000000	87.204501 
1142.000000	87.067278 
1141.000000	86.931682 
1140.000000	86.794770 
1139.000000	86.657712 
1138.000000	86.520003 
1137.000000	86.378787 
1136.000000	86.235966 
1135.000000	86.097135 
1134.000000	85.961406 
1133.000000	85.821363 
1132.000000	85.675038 
1131.000000	85.528449 
1130.000000	85.384544 
1129.000000	85.239694 
1128.000000	85.092997 
1127.000000	84.948053 
1126.000000	84.803007 
1125.000000	84.650262 
1124.000000	84.489609 
1123.000000	84.330736 
1122.000000	84.178746 
1121.000000	84.027879 
1120.000000	83.873528 
1119.000000	83.719347 
1118.000000	83.568096 
1117.000000	83.417042 
1116.000000	83.267033 
1115.000000	83.124789 
1114.000000	82.991628 
1113.000000	82.861025 
1112.000000	82.731062 
1111.000000	82.607329 
1110.000000	82.490059 
1109.000000	82.371035 
1108.000000	82.245940 
1107.000000	82.117582 
1106.000000	81.985690 
1105.000000	81.846727 
1104.000000	81.704979 
1103.000000	81.570113 
1102.000000	81.441580 
1101.000000	81.310665 
1100.000000	81.177672 
1099.000000	81.052345 
1098.000000	80.936719 
1097.000000	80.822457 
1096.000000	80.707212 
1095.000000	80.596529 
1094.000000	80.488904 
1093.000000	80.376880 
1092.000000	80.264984 
1091.000000	80.168068 
1090.000000	80.088749 
1089.000000	80.014172 
1088.000000	79.937533 
1087.000000	79.864538 
1086.000000	79.796452 
1085.000000	79.726375 
1084.000000	79.655628 
1083.000000	79.594382 
1082.000000	79.541976 
1081.000000	79.485536 
1080.000000	79.421902 
1079.000000	79.361684 
1078.000000	79.307332 
1077.000000	79.246174 
1076.000000	79.169791 
1075.000000	79.081447 
1074.000000	78.980351 
1073.000000	78.857443 
1072.000000	78.710784 
1071.000000	78.546206 
1070.000000	78.358809 
1069.000000	78.133414 
1068.000000	77.868724 
1067.000000	77.583152 
1066.000000	77.292020 
1065.000000	76.996799 
1064.000000	76.700793 
1063.000000	76.413833 
1062.000000	76.134578 
1061.000000	75.848936 
1060.000000	75.553873 
1059.000000	75.264058 
1058.000000	74.988622 
1057.000000	74.720423 
1056.000000	74.453835 
1055.000000	74.192650 
1054.000000	73.934124 
1053.000000	73.666042 
1052.000000	73.387666 
1051.000000	73.113308 
1050.000000	72.847156 
1049.000000	72.576700 
1048.000000	72.297692 
1047.000000	72.020891 
1046.000000	71.748962 
1045.000000	71.471300 
1044.000000	71.185538 
1043.000000	70.901440 
1042.000000	70.620734 
1041.000000	70.335672 
1040.000000	70.050328 
1039.000000	69.779927 
1038.000000	69.526049 
1037.000000	69.276696 
1036.000000	69.033544 
1035.000000	68.813256 
1034.000000	68.618508 
1033.000000	68.434353 
1032.000000	68.256934 
1031.000000	68.098803 
1030.000000	67.961907 
1029.000000	67.833434 
1028.000000	67.712919 
1027.000000	67.614798 
1026.000000	67.538575 
1025.000000	67.464746 
1024.000000	67.386031 
1023.000000	67.314427 
1022.000000	67.251724 
1021.000000	67.182121 
1020.000000	67.100543 
1019.000000	67.020096 
1018.000000	66.944797 
1017.000000	66.862816 
1016.000000	66.773269 
1015.000000	66.691986 
1014.000000	66.623727 
1013.000000	66.555452 
1012.000000	66.483173 
1011.000000	66.418681 
1010.000000	66.364035 
1009.000000	66.306957 
1008.000000	66.247608 
1007.000000	66.202992 
1006.000000	66.179227 
1005.000000	66.166064 
1004.000000	66.162633 
1003.000000	66.179910 
1002.000000	66.212853 
1001.000000	66.239856 
1000.000000	66.256783 
999.000000	 66.283330 
998.000000	 66.329226 
997.000000	 66.382466 
996.000000	 66.436816 
995.000000	 66.502088 
994.000000	 66.579791 
993.000000	 66.656775 
992.000000	 66.730771 
991.000000	 66.815368 
990.000000	 66.912932 
989.000000	 67.009783 
988.000000	 67.104635 
987.000000	 67.214209 
986.000000	 67.343861 
985.000000	 67.480453 
984.000000	 67.621108 
983.000000	 67.781013 
982.000000	 67.964585 
981.000000	 68.156276 
980.000000	 68.348532 
979.000000	 68.552755 
978.000000	 68.773962 
977.000000	 69.000666 
976.000000	 69.228698 
975.000000	 69.470232 
974.000000	 69.730163 
973.000000	 69.997026 
972.000000	 70.265402 
971.000000	 70.544438 
970.000000	 70.836149 
969.000000	 71.127433 
968.000000	 71.411447 
967.000000	 71.696722 
966.000000	 71.988969 
965.000000	 72.283726 
964.000000	 72.581190 
963.000000	 72.887345 
962.000000	 73.196271 
961.000000	 73.492570 
960.000000	 73.775362 
959.000000	 74.059016 
958.000000	 74.346948 
957.000000	 74.626431 
956.000000	 74.892972 
955.000000	 75.157489 
954.000000	 75.424657 
953.000000	 75.685341 
952.000000	 75.935228 
951.000000	 76.180276 
950.000000	 76.419609 
949.000000	 76.643761 
948.000000	 76.853989 
947.000000	 77.062652 
946.000000	 77.270037 
945.000000	 77.461299 
944.000000	 77.631263 
943.000000	 77.792619 
942.000000	 77.955107 
941.000000	 78.115952 
940.000000	 78.275582 
939.000000	 78.442513 
938.000000	 78.616655 
937.000000	 78.786573 
936.000000	 78.949298 
935.000000	 79.115471 
934.000000	 79.290231 
933.000000	 79.466444 
932.000000	 79.640995 
931.000000	 79.819957 
930.000000	 80.003398 
929.000000	 80.182490 
928.000000	 80.355914 
927.000000	 80.532246 
926.000000	 80.712098 
925.000000	 80.884064 
924.000000	 81.041592 
923.000000	 81.188372 
922.000000	 81.325562 
921.000000	 81.450506 
920.000000	 81.569723 
919.000000	 81.695458 
918.000000	 81.826559 
917.000000	 81.949637 
916.000000	 82.061742 
915.000000	 82.175707 
914.000000	 82.301572 
913.000000	 82.439863 
912.000000	 82.594456 
911.000000	 82.773777 
910.000000	 82.976651 
909.000000	 83.194069 
908.000000	 83.426509 
907.000000	 83.682693 
906.000000	 83.961144 
905.000000	 84.250415 
904.000000	 84.546551 
903.000000	 84.852094 
902.000000	 85.159999 
901.000000	 85.459003 
900.000000	 85.753877 
899.000000	 86.059680 
898.000000	 86.375971 
897.000000	 86.686274 
896.000000	 86.982192 
895.000000	 87.267746 
894.000000	 87.541123 
893.000000	 87.794045 
892.000000	 88.030177 
891.000000	 88.262921 
890.000000	 88.492018 
889.000000	 88.701397 
888.000000	 88.882578 
887.000000	 89.042349 
886.000000	 89.186822 
885.000000	 89.316726 
884.000000	 89.439058 
883.000000	 89.562888 
882.000000	 89.682152 
881.000000	 89.784573 
880.000000	 89.879904 
879.000000	 89.995860 
878.000000	 90.141876 
877.000000	 90.301220 
876.000000	 90.464083 
875.000000	 90.642993 
874.000000	 90.848430 
873.000000	 91.074708 
872.000000	 91.318108 
871.000000	 91.584124 
870.000000	 91.866900 
869.000000	 92.144029 
868.000000	 92.402337 
867.000000	 92.650211 
866.000000	 92.896392 
865.000000	 93.135037 
864.000000	 93.360733 
863.000000	 93.580817 
862.000000	 93.801655 
861.000000	 94.016389 
860.000000	 94.216895 
859.000000	 94.406651 
858.000000	 94.592733 
857.000000	 94.774287 
856.000000	 94.946219 
855.000000	 95.106170 
854.000000	 95.252612 
853.000000	 95.384038 
852.000000	 95.503820 
851.000000	 95.618368 
850.000000	 95.729104 
849.000000	 95.834654 
848.000000	 95.939799 
847.000000	 96.050496 
846.000000	 96.160472 
845.000000	 96.255942 
844.000000	 96.334001 
843.000000	 96.403147 
842.000000	 96.465655 
841.000000	 96.514010 
840.000000	 96.545823 
839.000000	 96.567228 
838.000000	 96.580023 
837.000000	 96.581159 
836.000000	 96.577537 
835.000000	 96.584793 
834.000000	 96.605853 
833.000000	 96.625648 
832.000000	 96.633431 
831.000000	 96.636918 
830.000000	 96.648891 
829.000000	 96.673983 
828.000000	 96.715476 
827.000000	 96.779753 
826.000000	 96.863792 
825.000000	 96.951023 
824.000000	 97.028236 
823.000000	 97.094226 
822.000000	 97.147288 
821.000000	 97.180722 
820.000000	 97.195754 
819.000000	 97.202065 
818.000000	 97.199534 
817.000000	 97.172526 
816.000000	 97.106719 
815.000000	 96.999694 
814.000000	 96.850389 
813.000000	 96.649321 
812.000000	 96.384229 
811.000000	 96.044573 
810.000000	 95.615557 
809.000000	 95.080130 
808.000000	 94.435825 
807.000000	 93.702147 
806.000000	 92.905997 
805.000000	 92.069647 
804.000000	 91.218748 
803.000000	 90.388249 
802.000000	 89.610451 
801.000000	 88.909237 
800.000000	 88.312615 
799.000000	 87.853423 
798.000000	 87.546689 
797.000000	 87.379819 
796.000000	 87.329815 
795.000000	 87.372560 
794.000000	 87.473348 
793.000000	 87.592855 
792.000000	 87.710651 
791.000000	 87.824483 
790.000000	 87.922902 
789.000000	 87.978992 
788.000000	 87.974751 
787.000000	 87.910569 
786.000000	 87.786065 
785.000000	 87.592578 
784.000000	 87.331829 
783.000000	 87.024433 
782.000000	 86.695383 
781.000000	 86.369894 
780.000000	 86.085795 
779.000000	 85.885196 
778.000000	 85.785560 
777.000000	 85.779234 
776.000000	 85.863989 
775.000000	 86.046632 
774.000000	 86.310244 
773.000000	 86.607373 
772.000000	 86.898003 
771.000000	 87.172103 
770.000000	 87.428145 
769.000000	 87.656117 
768.000000	 87.852437 
767.000000	 88.027320 
766.000000	 88.184932 
765.000000	 88.317273 
764.000000	 88.428630 
763.000000	 88.544260 
762.000000	 88.681761 
761.000000	 88.832881 
760.000000	 88.985457 
759.000000	 89.143996 
758.000000	 89.315854 
757.000000	 89.495668 
756.000000	 89.677668 
755.000000	 89.867593 
754.000000	 90.068225 
753.000000	 90.265347 
752.000000	 90.439966 
751.000000	 90.585622 
750.000000	 90.708160 
749.000000	 90.820273 
748.000000	 90.939844 
747.000000	 91.078328 
746.000000	 91.225321 
745.000000	 91.359784 
744.000000	 91.481743 
743.000000	 91.616663 
742.000000	 91.782637 
741.000000	 91.970464 
740.000000	 92.162627 
739.000000	 92.353333 
738.000000	 92.540533 
737.000000	 92.714872 
736.000000	 92.868312 
735.000000	 93.002966 
734.000000	 93.123436 
733.000000	 93.229882 
732.000000	 93.322720 
731.000000	 93.403806 
730.000000	 93.469854 
729.000000	 93.515562 
728.000000	 93.548131 
727.000000	 93.586549 
726.000000	 93.643218 
725.000000	 93.719819 
724.000000	 93.819563 
723.000000	 93.945323 
722.000000	 94.084286 
721.000000	 94.213399 
720.000000	 94.325625 
719.000000	 94.433449 
718.000000	 94.543471 
717.000000	 94.649122 
716.000000	 94.750086 
715.000000	 94.856231 
714.000000	 94.966927 
713.000000	 95.066764 
712.000000	 95.150575 
711.000000	 95.232832 
710.000000	 95.323315 
709.000000	 95.411751 
708.000000	 95.485872 
707.000000	 95.547202 
706.000000	 95.595801 
705.000000	 95.618512 
704.000000	 95.603721 
703.000000	 95.548160 
702.000000	 95.439809 
701.000000	 95.250083 
700.000000	 94.954919 
699.000000	 94.557531 
698.000000	 94.087097 
697.000000	 93.596567 
696.000000	 93.166833 
695.000000	 92.881987 
694.000000	 92.783668 
693.000000	 92.854856 
692.000000	 93.048520 
691.000000	 93.319118 
690.000000	 93.622744 
689.000000	 93.915679 
688.000000	 94.172327 
687.000000	 94.392283 
686.000000	 94.583446 
685.000000	 94.750237 
684.000000	 94.901394 
683.000000	 95.050901 
682.000000	 95.201670 
681.000000	 95.345382 
680.000000	 95.480267 
679.000000	 95.615162 
678.000000	 95.747403 
677.000000	 95.863114 
676.000000	 95.971990 
675.000000	 96.096087 
674.000000	 96.228599 
673.000000	 96.339975 
672.000000	 96.424728 
671.000000	 96.521879 
670.000000	 96.680808 
669.000000	 96.907112 
668.000000	 97.078612 
667.000000	 97.099477 
666.000000	 97.064385 
665.000000	 97.036883 
664.000000	 97.013717 
663.000000	 97.009316 
662.000000	 97.041388 
661.000000	 97.089533 
660.000000	 97.135088 
659.000000	 97.189026 
658.000000	 97.251333 
657.000000	 97.282728 
656.000000	 97.265404 
655.000000	 97.227687 
654.000000	 97.188784 
653.000000	 97.129282 
652.000000	 97.049237 
651.000000	 97.003372 
650.000000	 97.028827 

