4000.000000	96.832038 
3999.000000	96.830868 
3998.000000	96.828864 
3997.000000	96.826659 
3996.000000	96.824828 
3995.000000	96.823657 
3994.000000	96.823130 
3993.000000	96.822888 
3992.000000	96.822309 
3991.000000	96.820968 
3990.000000	96.819177 
3989.000000	96.817790 
3988.000000	96.817339 
3987.000000	96.817714 
3986.000000	96.818522 
3985.000000	96.819413 
3984.000000	96.820036 
3983.000000	96.820056 
3982.000000	96.819607 
3981.000000	96.819324 
3980.000000	96.819563 
3979.000000	96.819878 
3978.000000	96.819629 
3977.000000	96.818876 
3976.000000	96.818281 
3975.000000	96.818114 
3974.000000	96.817863 
3973.000000	96.816922 
3972.000000	96.815212 
3971.000000	96.813145 
3970.000000	96.811320 
3969.000000	96.810357 
3968.000000	96.810617 
3967.000000	96.811842 
3966.000000	96.813250 
3965.000000	96.814037 
3964.000000	96.813779 
3963.000000	96.812543 
3962.000000	96.810826 
3961.000000	96.809294 
3960.000000	96.808238 
3959.000000	96.807447 
3958.000000	96.806653 
3957.000000	96.805997 
3956.000000	96.805729 
3955.000000	96.805694 
3954.000000	96.805470 
3953.000000	96.804810 
3952.000000	96.803809 
3951.000000	96.802642 
3950.000000	96.801398 
3949.000000	96.800163 
3948.000000	96.799083 
3947.000000	96.798325 
3946.000000	96.797939 
3945.000000	96.797702 
3944.000000	96.797157 
3943.000000	96.796101 
3942.000000	96.794993 
3941.000000	96.794527 
3940.000000	96.794858 
3939.000000	96.795497 
3938.000000	96.795856 
3937.000000	96.795915 
3936.000000	96.795862 
3935.000000	96.795349 
3934.000000	96.793799 
3933.000000	96.791265 
3932.000000	96.788724 
3931.000000	96.786917 
3930.000000	96.785799 
3929.000000	96.785386 
3928.000000	96.786069 
3927.000000	96.787718 
3926.000000	96.788914 
3925.000000	96.788374 
3924.000000	96.786636 
3923.000000	96.784943 
3922.000000	96.783337 
3921.000000	96.781305 
3920.000000	96.779271 
3919.000000	96.778338 
3918.000000	96.778501 
3917.000000	96.778695 
3916.000000	96.778488 
3915.000000	96.778526 
3914.000000	96.779092 
3913.000000	96.779689 
3912.000000	96.779860 
3911.000000	96.779869 
3910.000000	96.779850 
3909.000000	96.779649 
3908.000000	96.779144 
3907.000000	96.778321 
3906.000000	96.776903 
3905.000000	96.774428 
3904.000000	96.771215 
3903.000000	96.768427 
3902.000000	96.766902 
3901.000000	96.766529 
3900.000000	96.766720 
3899.000000	96.767110 
3898.000000	96.767556 
3897.000000	96.767756 
3896.000000	96.767468 
3895.000000	96.766870 
3894.000000	96.766284 
3893.000000	96.765842 
3892.000000	96.765394 
3891.000000	96.764846 
3890.000000	96.764265 
3889.000000	96.763721 
3888.000000	96.763203 
3887.000000	96.762694 
3886.000000	96.762193 
3885.000000	96.761696 
3884.000000	96.761202 
3883.000000	96.760707 
3882.000000	96.760208 
3881.000000	96.759722 
3880.000000	96.759271 
3879.000000	96.758868 
3878.000000	96.758504 
3877.000000	96.758160 
3876.000000	96.757818 
3875.000000	96.757468 
3874.000000	96.757108 
3873.000000	96.756742 
3872.000000	96.756372 
3871.000000	96.756001 
3870.000000	96.755645 
3869.000000	96.755330 
3868.000000	96.755067 
3867.000000	96.754846 
3866.000000	96.754650 
3865.000000	96.754483 
3864.000000	96.754361 
3863.000000	96.754282 
3862.000000	96.754228 
3861.000000	96.754180 
3860.000000	96.754125 
3859.000000	96.754048 
3858.000000	96.753936 
3857.000000	96.753785 
3856.000000	96.753610 
3855.000000	96.753423 
3854.000000	96.753235 
3853.000000	96.753060 
3852.000000	96.752907 
3851.000000	96.752776 
3850.000000	96.752669 
3849.000000	96.752592 
3848.000000	96.752548 
3847.000000	96.752531 
3846.000000	96.752520 
3845.000000	96.752497 
3844.000000	96.752454 
3843.000000	96.752397 
3842.000000	96.752344 
3841.000000	96.752311 
3840.000000	96.752303 
3839.000000	96.752312 
3838.000000	96.752322 
3837.000000	96.752321 
3836.000000	96.752308 
3835.000000	96.752295 
3834.000000	96.752296 
3833.000000	96.752321 
3832.000000	96.752379 
3831.000000	96.752470 
3830.000000	96.752589 
3829.000000	96.752728 
3828.000000	96.752876 
3827.000000	96.753020 
3826.000000	96.753144 
3825.000000	96.753245 
3824.000000	96.753324 
3823.000000	96.753383 
3822.000000	96.753417 
3821.000000	96.753432 
3820.000000	96.753449 
3819.000000	96.753487 
3818.000000	96.753553 
3817.000000	96.753648 
3816.000000	96.753776 
3815.000000	96.753942 
3814.000000	96.754133 
3813.000000	96.754324 
3812.000000	96.754502 
3811.000000	96.754674 
3810.000000	96.754851 
3809.000000	96.755027 
3808.000000	96.755184 
3807.000000	96.755308 
3806.000000	96.755400 
3805.000000	96.755475 
3804.000000	96.755548 
3803.000000	96.755628 
3802.000000	96.755724 
3801.000000	96.755840 
3800.000000	96.755972 
3799.000000	96.756095 
3798.000000	96.756195 
3797.000000	96.756277 
3796.000000	96.756352 
3795.000000	96.756417 
3794.000000	96.756447 
3793.000000	96.756419 
3792.000000	96.756327 
3791.000000	96.756181 
3790.000000	96.756007 
3789.000000	96.755807 
3788.000000	96.755506 
3787.000000	96.755055 
3786.000000	96.754501 
3785.000000	96.753866 
3784.000000	96.753115 
3783.000000	96.752304 
3782.000000	96.751460 
3781.000000	96.750533 
3780.000000	96.749644 
3779.000000	96.749282 
3778.000000	96.749665 
3777.000000	96.750233 
3776.000000	96.750045 
3775.000000	96.748753 
3774.000000	96.746916 
3773.000000	96.745385 
3772.000000	96.744241 
3771.000000	96.742931 
3770.000000	96.741465 
3769.000000	96.740509 
3768.000000	96.740006 
3767.000000	96.739053 
3766.000000	96.737142 
3765.000000	96.734906 
3764.000000	96.733488 
3763.000000	96.733079 
3762.000000	96.732593 
3761.000000	96.731093 
3760.000000	96.729043 
3759.000000	96.727595 
3758.000000	96.726393 
3757.000000	96.724387 
3756.000000	96.721783 
3755.000000	96.719405 
3754.000000	96.717085 
3753.000000	96.713952 
3752.000000	96.710765 
3751.000000	96.709239 
3750.000000	96.708431 
3749.000000	96.706148 
3748.000000	96.703474 
3747.000000	96.702974 
3746.000000	96.704005 
3745.000000	96.703882 
3744.000000	96.704317 
3743.000000	96.706891 
3742.000000	96.708196 
3741.000000	96.705548 
3740.000000	96.700606 
3739.000000	96.698130 
3738.000000	96.699601 
3737.000000	96.700542 
3736.000000	96.697380 
3735.000000	96.693491 
3734.000000	96.693591 
3733.000000	96.696186 
3732.000000	96.697549 
3731.000000	96.697473 
3730.000000	96.697455 
3729.000000	96.697239 
3728.000000	96.695139 
3727.000000	96.691172 
3726.000000	96.688403 
3725.000000	96.688509 
3724.000000	96.689387 
3723.000000	96.689194 
3722.000000	96.689337 
3721.000000	96.691281 
3720.000000	96.693351 
3719.000000	96.693694 
3718.000000	96.691755 
3717.000000	96.688583 
3716.000000	96.685976 
3715.000000	96.683585 
3714.000000	96.679374 
3713.000000	96.672934 
3712.000000	96.666863 
3711.000000	96.663593 
3710.000000	96.662037 
3709.000000	96.660461 
3708.000000	96.657832 
3707.000000	96.652952 
3706.000000	96.645712 
3705.000000	96.637644 
3704.000000	96.630767 
3703.000000	96.625650 
3702.000000	96.620405 
3701.000000	96.612200 
3700.000000	96.600251 
3699.000000	96.587050 
3698.000000	96.575546 
3697.000000	96.566881 
3696.000000	96.561904 
3695.000000	96.559695 
3694.000000	96.556376 
3693.000000	96.549984 
3692.000000	96.543896 
3691.000000	96.542531 
3690.000000	96.544096 
3689.000000	96.543648 
3688.000000	96.539801 
3687.000000	96.534277 
3686.000000	96.528173 
3685.000000	96.520221 
3684.000000	96.510170 
3683.000000	96.501642 
3682.000000	96.497307 
3681.000000	96.492822 
3680.000000	96.482641 
3679.000000	96.468336 
3678.000000	96.456040 
3677.000000	96.444198 
3676.000000	96.427713 
3675.000000	96.412136 
3674.000000	96.402945 
3673.000000	96.396387 
3672.000000	96.386408 
3671.000000	96.371810 
3670.000000	96.359557 
3669.000000	96.355167 
3668.000000	96.352586 
3667.000000	96.344892 
3666.000000	96.334355 
3665.000000	96.326465 
3664.000000	96.322227 
3663.000000	96.317914 
3662.000000	96.308910 
3661.000000	96.293680 
3660.000000	96.275407 
3659.000000	96.258357 
3658.000000	96.244500 
3657.000000	96.231479 
3656.000000	96.217498 
3655.000000	96.203420 
3654.000000	96.189693 
3653.000000	96.175564 
3652.000000	96.159081 
3651.000000	96.139300 
3650.000000	96.118678 
3649.000000	96.099526 
3648.000000	96.081558 
3647.000000	96.066894 
3646.000000	96.059426 
3645.000000	96.058912 
3644.000000	96.060700 
3643.000000	96.061124 
3642.000000	96.059840 
3641.000000	96.058106 
3640.000000	96.054985 
3639.000000	96.047358 
3638.000000	96.034893 
3637.000000	96.020511 
3636.000000	96.005656 
3635.000000	95.987310 
3634.000000	95.964074 
3633.000000	95.940837 
3632.000000	95.923076 
3631.000000	95.907876 
3630.000000	95.886262 
3629.000000	95.861167 
3628.000000	95.846038 
3627.000000	95.841448 
3626.000000	95.838845 
3625.000000	95.836510 
3624.000000	95.838647 
3623.000000	95.847608 
3622.000000	95.858679 
3621.000000	95.862207 
3620.000000	95.852691 
3619.000000	95.834627 
3618.000000	95.816507 
3617.000000	95.804379 
3616.000000	95.802359 
3615.000000	95.810575 
3614.000000	95.824479 
3613.000000	95.838905 
3612.000000	95.850655 
3611.000000	95.857323 
3610.000000	95.858051 
3609.000000	95.855839 
3608.000000	95.856365 
3607.000000	95.862432 
3606.000000	95.871152 
3605.000000	95.879495 
3604.000000	95.888322 
3603.000000	95.899618 
3602.000000	95.912829 
3601.000000	95.924199 
3600.000000	95.930910 
3599.000000	95.932477 
3598.000000	95.929973 
3597.000000	95.925604 
3596.000000	95.922803 
3595.000000	95.922626 
3594.000000	95.923934 
3593.000000	95.925637 
3592.000000	95.927533 
3591.000000	95.929434 
3590.000000	95.929316 
3589.000000	95.924138 
3588.000000	95.914682 
3587.000000	95.907040 
3586.000000	95.905544 
3585.000000	95.909154 
3584.000000	95.915751 
3583.000000	95.924366 
3582.000000	95.934110 
3581.000000	95.942441 
3580.000000	95.946443 
3579.000000	95.945034 
3578.000000	95.939844 
3577.000000	95.934055 
3576.000000	95.930129 
3575.000000	95.928620 
3574.000000	95.928539 
3573.000000	95.928964 
3572.000000	95.929275 
3571.000000	95.928845 
3570.000000	95.926399 
3569.000000	95.920370 
3568.000000	95.911418 
3567.000000	95.903916 
3566.000000	95.901464 
3565.000000	95.902995 
3564.000000	95.905403 
3563.000000	95.906970 
3562.000000	95.907599 
3561.000000	95.907714 
3560.000000	95.907595 
3559.000000	95.907516 
3558.000000	95.907725 
3557.000000	95.908249 
3556.000000	95.908648 
3555.000000	95.908207 
3554.000000	95.906355 
3553.000000	95.903290 
3552.000000	95.900111 
3551.000000	95.897813 
3550.000000	95.896460 
3549.000000	95.895585 
3548.000000	95.894911 
3547.000000	95.894328 
3546.000000	95.893512 
3545.000000	95.892295 
3544.000000	95.891389 
3543.000000	95.891843 
3542.000000	95.893712 
3541.000000	95.896093 
3540.000000	95.898177 
3539.000000	95.899627 
3538.000000	95.900142 
3537.000000	95.899431 
3536.000000	95.897854 
3535.000000	95.896243 
3534.000000	95.895237 
3533.000000	95.894928 
3532.000000	95.895261 
3531.000000	95.896209 
3530.000000	95.897349 
3529.000000	95.897757 
3528.000000	95.896721 
3527.000000	95.894453 
3526.000000	95.891960 
3525.000000	95.890295 
3524.000000	95.890009 
3523.000000	95.891095 
3522.000000	95.892951 
3521.000000	95.894771 
3520.000000	95.896126 
3519.000000	95.897048 
3518.000000	95.897702 
3517.000000	95.898040 
3516.000000	95.897948 
3515.000000	95.897587 
3514.000000	95.897484 
3513.000000	95.898047 
3512.000000	95.899022 
3511.000000	95.899640 
3510.000000	95.899395 
3509.000000	95.898574 
3508.000000	95.897971 
3507.000000	95.898111 
3506.000000	95.898816 
3505.000000	95.899427 
3504.000000	95.899443 
3503.000000	95.898918 
3502.000000	95.898278 
3501.000000	95.897882 
3500.000000	95.897887 
3499.000000	95.898367 
3498.000000	95.899297 
3497.000000	95.900364 
3496.000000	95.900895 
3495.000000	95.900277 
3494.000000	95.898601 
3493.000000	95.896830 
3492.000000	95.895918 
3491.000000	95.895827 
3490.000000	95.895739 
3489.000000	95.895115 
3488.000000	95.894161 
3487.000000	95.893203 
3486.000000	95.892123 
3485.000000	95.890785 
3484.000000	95.889604 
3483.000000	95.889149 
3482.000000	95.889402 
3481.000000	95.889730 
3480.000000	95.889551 
3479.000000	95.888722 
3478.000000	95.887298 
3477.000000	95.885239 
3476.000000	95.882453 
3475.000000	95.879100 
3474.000000	95.875791 
3473.000000	95.873363 
3472.000000	95.872240 
3471.000000	95.871989 
3470.000000	95.871722 
3469.000000	95.870970 
3468.000000	95.869949 
3467.000000	95.869066 
3466.000000	95.868416 
3465.000000	95.867717 
3464.000000	95.866462 
3463.000000	95.864153 
3462.000000	95.860710 
3461.000000	95.856758 
3460.000000	95.853260 
3459.000000	95.850645 
3458.000000	95.848540 
3457.000000	95.846365 
3456.000000	95.844064 
3455.000000	95.842092 
3454.000000	95.840868 
3453.000000	95.840321 
3452.000000	95.840039 
3451.000000	95.839690 
3450.000000	95.839135 
3449.000000	95.838183 
3448.000000	95.836440 
3447.000000	95.833589 
3446.000000	95.829756 
3445.000000	95.825658 
3444.000000	95.822267 
3443.000000	95.820120 
3442.000000	95.818994 
3441.000000	95.818167 
3440.000000	95.817050 
3439.000000	95.815527 
3438.000000	95.813736 
3437.000000	95.811807 
3436.000000	95.809934 
3435.000000	95.808438 
3434.000000	95.807524 
3433.000000	95.806950 
3432.000000	95.806185 
3431.000000	95.804920 
3430.000000	95.803275 
3429.000000	95.801576 
3428.000000	95.799970 
3427.000000	95.798338 
3426.000000	95.796592 
3425.000000	95.794954 
3424.000000	95.793778 
3423.000000	95.793031 
3422.000000	95.792138 
3421.000000	95.790587 
3420.000000	95.788620 
3419.000000	95.787036 
3418.000000	95.786248 
3417.000000	95.785874 
3416.000000	95.785276 
3415.000000	95.784191 
3414.000000	95.782682 
3413.000000	95.780825 
3412.000000	95.778806 
3411.000000	95.777156 
3410.000000	95.776501 
3409.000000	95.777054 
3408.000000	95.778359 
3407.000000	95.779493 
3406.000000	95.779630 
3405.000000	95.778610 
3404.000000	95.777115 
3403.000000	95.776067 
3402.000000	95.775754 
3401.000000	95.775670 
3400.000000	95.775198 
3399.000000	95.774200 
3398.000000	95.773001 
3397.000000	95.772115 
3396.000000	95.771981 
3395.000000	95.772661 
3394.000000	95.773623 
3393.000000	95.773977 
3392.000000	95.773128 
3391.000000	95.771206 
3390.000000	95.768976 
3389.000000	95.767445 
3388.000000	95.767442 
3387.000000	95.769163 
3386.000000	95.771860 
3385.000000	95.774063 
3384.000000	95.774565 
3383.000000	95.773453 
3382.000000	95.772304 
3381.000000	95.773005 
3380.000000	95.776051 
3379.000000	95.780051 
3378.000000	95.783167 
3377.000000	95.785181 
3376.000000	95.787460 
3375.000000	95.790875 
3374.000000	95.794441 
3373.000000	95.796453 
3372.000000	95.796490 
3371.000000	95.795798 
3370.000000	95.795929 
3369.000000	95.797320 
3368.000000	95.799186 
3367.000000	95.800410 
3366.000000	95.800502 
3365.000000	95.799911 
3364.000000	95.799518 
3363.000000	95.799747 
3362.000000	95.800287 
3361.000000	95.800726 
3360.000000	95.801221 
3359.000000	95.802252 
3358.000000	95.803892 
3357.000000	95.805671 
3356.000000	95.807212 
3355.000000	95.808762 
3354.000000	95.810921 
3353.000000	95.813968 
3352.000000	95.817490 
3351.000000	95.820678 
3350.000000	95.822962 
3349.000000	95.824370 
3348.000000	95.825382 
3347.000000	95.826542 
3346.000000	95.828251 
3345.000000	95.830652 
3344.000000	95.833435 
3343.000000	95.835877 
3342.000000	95.837437 
3341.000000	95.838373 
3340.000000	95.839461 
3339.000000	95.840991 
3338.000000	95.842484 
3337.000000	95.843499 
3336.000000	95.844287 
3335.000000	95.845426 
3334.000000	95.847105 
3333.000000	95.849061 
3332.000000	95.851025 
3331.000000	95.852865 
3330.000000	95.854371 
3329.000000	95.855307 
3328.000000	95.855795 
3327.000000	95.856463 
3326.000000	95.857967 
3325.000000	95.860382 
3324.000000	95.863092 
3323.000000	95.865273 
3322.000000	95.866619 
3321.000000	95.867589 
3320.000000	95.868908 
3319.000000	95.870826 
3318.000000	95.872977 
3317.000000	95.874928 
3316.000000	95.876697 
3315.000000	95.878641 
3314.000000	95.880956 
3313.000000	95.883468 
3312.000000	95.885877 
3311.000000	95.888107 
3310.000000	95.890403 
3309.000000	95.893026 
3308.000000	95.895774 
3307.000000	95.897894 
3306.000000	95.898737 
3305.000000	95.898439 
3304.000000	95.897923 
3303.000000	95.898193 
3302.000000	95.899551 
3301.000000	95.901568 
3300.000000	95.903517 
3299.000000	95.904856 
3298.000000	95.905536 
3297.000000	95.906002 
3296.000000	95.906882 
3295.000000	95.908506 
3294.000000	95.910717 
3293.000000	95.913076 
3292.000000	95.915202 
3291.000000	95.916945 
3290.000000	95.918365 
3289.000000	95.919659 
3288.000000	95.921053 
3287.000000	95.922644 
3286.000000	95.924280 
3285.000000	95.925689 
3284.000000	95.926754 
3283.000000	95.927699 
3282.000000	95.928938 
3281.000000	95.930685 
3280.000000	95.932737 
3279.000000	95.934670 
3278.000000	95.936312 
3277.000000	95.937875 
3276.000000	95.939603 
3275.000000	95.941462 
3274.000000	95.943286 
3273.000000	95.945085 
3272.000000	95.947004 
3271.000000	95.949062 
3270.000000	95.951116 
3269.000000	95.953028 
3268.000000	95.954797 
3267.000000	95.956506 
3266.000000	95.958255 
3265.000000	95.960099 
3264.000000	95.962035 
3263.000000	95.964031 
3262.000000	95.966038 
3261.000000	95.968018 
3260.000000	95.969968 
3259.000000	95.971908 
3258.000000	95.973851 
3257.000000	95.975806 
3256.000000	95.977794 
3255.000000	95.979825 
3254.000000	95.981868 
3253.000000	95.983887 
3252.000000	95.985896 
3251.000000	95.987939 
3250.000000	95.990029 
3249.000000	95.992116 
3248.000000	95.994142 
3247.000000	95.996100 
3246.000000	95.998054 
3245.000000	96.000090 
3244.000000	96.002248 
3243.000000	96.004495 
3242.000000	96.006754 
3241.000000	96.008965 
3240.000000	96.011115 
3239.000000	96.013232 
3238.000000	96.015369 
3237.000000	96.017597 
3236.000000	96.019959 
3235.000000	96.022413 
3234.000000	96.024803 
3233.000000	96.026971 
3232.000000	96.028872 
3231.000000	96.030603 
3230.000000	96.032344 
3229.000000	96.034216 
3228.000000	96.036260 
3227.000000	96.038456 
3226.000000	96.040769 
3225.000000	96.043176 
3224.000000	96.045637 
3223.000000	96.048078 
3222.000000	96.050424 
3221.000000	96.052668 
3220.000000	96.054852 
3219.000000	96.056980 
3218.000000	96.059000 
3217.000000	96.060881 
3216.000000	96.062670 
3215.000000	96.064484 
3214.000000	96.066469 
3213.000000	96.068722 
3212.000000	96.071201 
3211.000000	96.073715 
3210.000000	96.076063 
3209.000000	96.078214 
3208.000000	96.080302 
3207.000000	96.082429 
3206.000000	96.084551 
3205.000000	96.086596 
3204.000000	96.088621 
3203.000000	96.090780 
3202.000000	96.093130 
3201.000000	96.095563 
3200.000000	96.097917 
3199.000000	96.100145 
3198.000000	96.102330 
3197.000000	96.104554 
3196.000000	96.106790 
3195.000000	96.108973 
3194.000000	96.111132 
3193.000000	96.113388 
3192.000000	96.115795 
3191.000000	96.118262 
3190.000000	96.120638 
3189.000000	96.122868 
3188.000000	96.125027 
3187.000000	96.127258 
3186.000000	96.129680 
3185.000000	96.132306 
3184.000000	96.135018 
3183.000000	96.137658 
3182.000000	96.140160 
3181.000000	96.142566 
3180.000000	96.144946 
3179.000000	96.147336 
3178.000000	96.149749 
3177.000000	96.152204 
3176.000000	96.154711 
3175.000000	96.157255 
3174.000000	96.159812 
3173.000000	96.162362 
3172.000000	96.164886 
3171.000000	96.167353 
3170.000000	96.169743 
3169.000000	96.172086 
3168.000000	96.174443 
3167.000000	96.176847 
3166.000000	96.179294 
3165.000000	96.181762 
3164.000000	96.184238 
3163.000000	96.186709 
3162.000000	96.189154 
3161.000000	96.191561 
3160.000000	96.193935 
3159.000000	96.196291 
3158.000000	96.198640 
3157.000000	96.201004 
3156.000000	96.203407 
3155.000000	96.205849 
3154.000000	96.208302 
3153.000000	96.210734 
3152.000000	96.213131 
3151.000000	96.215480 
3150.000000	96.217754 
3149.000000	96.219950 
3148.000000	96.222104 
3147.000000	96.224286 
3146.000000	96.226550 
3145.000000	96.228905 
3144.000000	96.231313 
3143.000000	96.233685 
3142.000000	96.235948 
3141.000000	96.238094 
3140.000000	96.240205 
3139.000000	96.242383 
3138.000000	96.244638 
3137.000000	96.246884 
3136.000000	96.249020 
3135.000000	96.250997 
3134.000000	96.252848 
3133.000000	96.254692 
3132.000000	96.256667 
3131.000000	96.258822 
3130.000000	96.261098 
3129.000000	96.263438 
3128.000000	96.265864 
3127.000000	96.268394 
3126.000000	96.270945 
3125.000000	96.273379 
3124.000000	96.275609 
3123.000000	96.277641 
3122.000000	96.279544 
3121.000000	96.281418 
3120.000000	96.283369 
3119.000000	96.285447 
3118.000000	96.287620 
3117.000000	96.289823 
3116.000000	96.291996 
3115.000000	96.294085 
3114.000000	96.296037 
3113.000000	96.297855 
3112.000000	96.299655 
3111.000000	96.301607 
3110.000000	96.303791 
3109.000000	96.306117 
3108.000000	96.308384 
3107.000000	96.310450 
3106.000000	96.312361 
3105.000000	96.314272 
3104.000000	96.316211 
3103.000000	96.318059 
3102.000000	96.319779 
3101.000000	96.321536 
3100.000000	96.323437 
3099.000000	96.325280 
3098.000000	96.326803 
3097.000000	96.328182 
3096.000000	96.329941 
3095.000000	96.332247 
3094.000000	96.334730 
3093.000000	96.336987 
3092.000000	96.339011 
3091.000000	96.340968 
3090.000000	96.342788 
3089.000000	96.344246 
3088.000000	96.345284 
3087.000000	96.346124 
3086.000000	96.347173 
3085.000000	96.348758 
3084.000000	96.350790 
3083.000000	96.352763 
3082.000000	96.354277 
3081.000000	96.355561 
3080.000000	96.357205 
3079.000000	96.359301 
3078.000000	96.361231 
3077.000000	96.362577 
3076.000000	96.363780 
3075.000000	96.365475 
3074.000000	96.367565 
3073.000000	96.369462 
3072.000000	96.370963 
3071.000000	96.372297 
3070.000000	96.373571 
3069.000000	96.374799 
3068.000000	96.376276 
3067.000000	96.378207 
3066.000000	96.379990 
3065.000000	96.380593 
3064.000000	96.379716 
3063.000000	96.378050 
3062.000000	96.376396 
3061.000000	96.375033 
3060.000000	96.374020 
3059.000000	96.373688 
3058.000000	96.374629 
3057.000000	96.377323 
3056.000000	96.381553 
3055.000000	96.385863 
3054.000000	96.388156 
3053.000000	96.387500 
3052.000000	96.385323 
3051.000000	96.384350 
3050.000000	96.385951 
3049.000000	96.389128 
3048.000000	96.391917 
3047.000000	96.393123 
3046.000000	96.392527 
3045.000000	96.390483 
3044.000000	96.388124 
3043.000000	96.387283 
3042.000000	96.389108 
3041.000000	96.392573 
3040.000000	96.394955 
3039.000000	96.394306 
3038.000000	96.391126 
3037.000000	96.387548 
3036.000000	96.385065 
3035.000000	96.383340 
3034.000000	96.381282 
3033.000000	96.378591 
3032.000000	96.375820 
3031.000000	96.373461 
3030.000000	96.371703 
3029.000000	96.370829 
3028.000000	96.370809 
3027.000000	96.370398 
3026.000000	96.367815 
3025.000000	96.362997 
3024.000000	96.358321 
3023.000000	96.356098 
3022.000000	96.355990 
3021.000000	96.356019 
3020.000000	96.355374 
3019.000000	96.354670 
3018.000000	96.353670 
3017.000000	96.350587 
3016.000000	96.344319 
3015.000000	96.336265 
3014.000000	96.329394 
3013.000000	96.325918 
3012.000000	96.325889 
3011.000000	96.327143 
3010.000000	96.326467 
3009.000000	96.321822 
3008.000000	96.313761 
3007.000000	96.304479 
3006.000000	96.295535 
3005.000000	96.287200 
3004.000000	96.279805 
3003.000000	96.274391 
3002.000000	96.271646 
3001.000000	96.271073 
3000.000000	96.271485 
2999.000000	96.271515 
2998.000000	96.269672 
2997.000000	96.265094 
2996.000000	96.258681 
2995.000000	96.252509 
2994.000000	96.247494 
2993.000000	96.242316 
2992.000000	96.235203 
2991.000000	96.226167 
2990.000000	96.217028 
2989.000000	96.209862 
2988.000000	96.205977 
2987.000000	96.205750 
2986.000000	96.208649 
2985.000000	96.213490 
2984.000000	96.219092 
2983.000000	96.224646 
2982.000000	96.229447 
2981.000000	96.232678 
2980.000000	96.233755 
2979.000000	96.232683 
2978.000000	96.230017 
2977.000000	96.226766 
2976.000000	96.224316 
2975.000000	96.223856 
2974.000000	96.225541 
2973.000000	96.228562 
2972.000000	96.232227 
2971.000000	96.236608 
2970.000000	96.241882 
2969.000000	96.247547 
2968.000000	96.252730 
2967.000000	96.257019 
2966.000000	96.260709 
2965.000000	96.264429 
2964.000000	96.268761 
2963.000000	96.273936 
2962.000000	96.279547 
2961.000000	96.284614 
2960.000000	96.288369 
2959.000000	96.291157 
2958.000000	96.294383 
2957.000000	96.299204 
2956.000000	96.305109 
2955.000000	96.310025 
2954.000000	96.312275 
2953.000000	96.312536 
2952.000000	96.313535 
2951.000000	96.317456 
2950.000000	96.323744 
2949.000000	96.329702 
2948.000000	96.333078 
2947.000000	96.333762 
2946.000000	96.333290 
2945.000000	96.333241 
2944.000000	96.334163 
2943.000000	96.335545 
2942.000000	96.336383 
2941.000000	96.335892 
2940.000000	96.334163 
2939.000000	96.332384 
2938.000000	96.332174 
2937.000000	96.334262 
2936.000000	96.337688 
2935.000000	96.340475 
2934.000000	96.341307 
2933.000000	96.340484 
2932.000000	96.339270 
2931.000000	96.338663 
2930.000000	96.339058 
2929.000000	96.340700 
2928.000000	96.343650 
2927.000000	96.347114 
2926.000000	96.349561 
2925.000000	96.350153 
2924.000000	96.349748 
2923.000000	96.349938 
2922.000000	96.351131 
2921.000000	96.352209 
2920.000000	96.352240 
2919.000000	96.352025 
2918.000000	96.353442 
2917.000000	96.357268 
2916.000000	96.361943 
2915.000000	96.364743 
2914.000000	96.364245 
2913.000000	96.361383 
2912.000000	96.358280 
2911.000000	96.356191 
2910.000000	96.354944 
2909.000000	96.354192 
2908.000000	96.354355 
2907.000000	96.355919 
2906.000000	96.358235 
2905.000000	96.359782 
2904.000000	96.359469 
2903.000000	96.357939 
2902.000000	96.357153 
2901.000000	96.358683 
2900.000000	96.362795 
2899.000000	96.368339 
2898.000000	96.373871 
2897.000000	96.378564 
2896.000000	96.382092 
2895.000000	96.384117 
2894.000000	96.384723 
2893.000000	96.385216 
2892.000000	96.387375 
2891.000000	96.391439 
2890.000000	96.395674 
2889.000000	96.398672 
2888.000000	96.401271 
2887.000000	96.404988 
2886.000000	96.409218 
2885.000000	96.411639 
2884.000000	96.411607 
2883.000000	96.411545 
2882.000000	96.414112 
2881.000000	96.419185 
2880.000000	96.424756 
2879.000000	96.429990 
2878.000000	96.435877 
2877.000000	96.442958 
2876.000000	96.449944 
2875.000000	96.455193 
2874.000000	96.458554 
2873.000000	96.461040 
2872.000000	96.463328 
2871.000000	96.465405 
2870.000000	96.467293 
2869.000000	96.469268 
2868.000000	96.471399 
2867.000000	96.473475 
2866.000000	96.475440 
2865.000000	96.477471 
2864.000000	96.479730 
2863.000000	96.482603 
2862.000000	96.487042 
2861.000000	96.493809 
2860.000000	96.502145 
2859.000000	96.509995 
2858.000000	96.516114 
2857.000000	96.521314 
2856.000000	96.527054 
2855.000000	96.533323 
2854.000000	96.538693 
2853.000000	96.542180 
2852.000000	96.544068 
2851.000000	96.545130 
2850.000000	96.545950 
2849.000000	96.547153 
2848.000000	96.549450 
2847.000000	96.552961 
2846.000000	96.556890 
2845.000000	96.560300 
2844.000000	96.563047 
2843.000000	96.565744 
2842.000000	96.568975 
2841.000000	96.572666 
2840.000000	96.576086 
2839.000000	96.578484 
2838.000000	96.579926 
2837.000000	96.581416 
2836.000000	96.583945 
2835.000000	96.587521 
2834.000000	96.591430 
2833.000000	96.595270 
2832.000000	96.599148 
2831.000000	96.602848 
2830.000000	96.605478 
2829.000000	96.606371 
2828.000000	96.606003 
2827.000000	96.605779 
2826.000000	96.607002 
2825.000000	96.610114 
2824.000000	96.614587 
2823.000000	96.619194 
2822.000000	96.622725 
2821.000000	96.624779 
2820.000000	96.625790 
2819.000000	96.626227 
2818.000000	96.626071 
2817.000000	96.625307 
2816.000000	96.624582 
2815.000000	96.624872 
2814.000000	96.626433 
2813.000000	96.628450 
2812.000000	96.629817 
2811.000000	96.630202 
2810.000000	96.630275 
2809.000000	96.631027 
2808.000000	96.632949 
2807.000000	96.635849 
2806.000000	96.639206 
2805.000000	96.642504 
2804.000000	96.645259 
2803.000000	96.647038 
2802.000000	96.647746 
2801.000000	96.647895 
2800.000000	96.648328 
2799.000000	96.649500 
2798.000000	96.651152 
2797.000000	96.652676 
2796.000000	96.653692 
2795.000000	96.654252 
2794.000000	96.654687 
2793.000000	96.655351 
2792.000000	96.656407 
2791.000000	96.657746 
2790.000000	96.659105 
2789.000000	96.660290 
2788.000000	96.661297 
2787.000000	96.662264 
2786.000000	96.663356 
2785.000000	96.664658 
2784.000000	96.666096 
2783.000000	96.667476 
2782.000000	96.668664 
2781.000000	96.669730 
2780.000000	96.670842 
2779.000000	96.672076 
2778.000000	96.673374 
2777.000000	96.674643 
2776.000000	96.675831 
2775.000000	96.676945 
2774.000000	96.678038 
2773.000000	96.679169 
2772.000000	96.680343 
2771.000000	96.681513 
2770.000000	96.682634 
2769.000000	96.683734 
2768.000000	96.684882 
2767.000000	96.686096 
2766.000000	96.687314 
2765.000000	96.688447 
2764.000000	96.689466 
2763.000000	96.690406 
2762.000000	96.691313 
2761.000000	96.692200 
2760.000000	96.693079 
2759.000000	96.693991 
2758.000000	96.694973 
2757.000000	96.695999 
2756.000000	96.696975 
2755.000000	96.697825 
2754.000000	96.698573 
2753.000000	96.699341 
2752.000000	96.700220 
2751.000000	96.701190 
2750.000000	96.702179 
2749.000000	96.703206 
2748.000000	96.704331 
2747.000000	96.705456 
2746.000000	96.706337 
2745.000000	96.706887 
2744.000000	96.707316 
2743.000000	96.707910 
2742.000000	96.708689 
2741.000000	96.709468 
2740.000000	96.710125 
2739.000000	96.710690 
2738.000000	96.711222 
2737.000000	96.711727 
2736.000000	96.712231 
2735.000000	96.712813 
2734.000000	96.713521 
2733.000000	96.714294 
2732.000000	96.715017 
2731.000000	96.715638 
2730.000000	96.716203 
2729.000000	96.716799 
2728.000000	96.717473 
2727.000000	96.718194 
2726.000000	96.718870 
2725.000000	96.719446 
2724.000000	96.719959 
2723.000000	96.720490 
2722.000000	96.721061 
2721.000000	96.721643 
2720.000000	96.722250 
2719.000000	96.722960 
2718.000000	96.723792 
2717.000000	96.724591 
2716.000000	96.725144 
2715.000000	96.725401 
2714.000000	96.725581 
2713.000000	96.725970 
2712.000000	96.726644 
2711.000000	96.727455 
2710.000000	96.728231 
2709.000000	96.728943 
2708.000000	96.729655 
2707.000000	96.730425 
2706.000000	96.731296 
2705.000000	96.732284 
2704.000000	96.733275 
2703.000000	96.734005 
2702.000000	96.734289 
2701.000000	96.734317 
2700.000000	96.734631 
2699.000000	96.735661 
2698.000000	96.737292 
2697.000000	96.738845 
2696.000000	96.739630 
2695.000000	96.739516 
2694.000000	96.739001 
2693.000000	96.738688 
2692.000000	96.738703 
2691.000000	96.738732 
2690.000000	96.738539 
2689.000000	96.738240 
2688.000000	96.738038 
2687.000000	96.737916 
2686.000000	96.737834 
2685.000000	96.738057 
2684.000000	96.738938 
2683.000000	96.740350 
2682.000000	96.741637 
2681.000000	96.742230 
2680.000000	96.742136 
2679.000000	96.741761 
2678.000000	96.741490 
2677.000000	96.741511 
2676.000000	96.741748 
2675.000000	96.741785 
2674.000000	96.741207 
2673.000000	96.740277 
2672.000000	96.739898 
2671.000000	96.740484 
2670.000000	96.741232 
2669.000000	96.741025 
2668.000000	96.739779 
2667.000000	96.738320 
2666.000000	96.737119 
2665.000000	96.735767 
2664.000000	96.733926 
2663.000000	96.732193 
2662.000000	96.731553 
2661.000000	96.732213 
2660.000000	96.733354 
2659.000000	96.733938 
2658.000000	96.733635 
2657.000000	96.732893 
2656.000000	96.732315 
2655.000000	96.731989 
2654.000000	96.731329 
2653.000000	96.729634 
2652.000000	96.726858 
2651.000000	96.723833 
2650.000000	96.721675 
2649.000000	96.720909 
2648.000000	96.721201 
2647.000000	96.721781 
2646.000000	96.721926 
2645.000000	96.721149 
2644.000000	96.719312 
2643.000000	96.716858 
2642.000000	96.714749 
2641.000000	96.713736 
2640.000000	96.713724 
2639.000000	96.714029 
2638.000000	96.714239 
2637.000000	96.714539 
2636.000000	96.715225 
2635.000000	96.716313 
2634.000000	96.717650 
2633.000000	96.718964 
2632.000000	96.719678 
2631.000000	96.719124 
2630.000000	96.717279 
2629.000000	96.715031 
2628.000000	96.713406 
2627.000000	96.712631 
2626.000000	96.712332 
2625.000000	96.712357 
2624.000000	96.712932 
2623.000000	96.714033 
2622.000000	96.715035 
2621.000000	96.715182 
2620.000000	96.714165 
2619.000000	96.712222 
2618.000000	96.710011 
2617.000000	96.708334 
2616.000000	96.707623 
2615.000000	96.707550 
2614.000000	96.707354 
2613.000000	96.706760 
2612.000000	96.706341 
2611.000000	96.706823 
2610.000000	96.708359 
2609.000000	96.710451 
2608.000000	96.712247 
2607.000000	96.712951 
2606.000000	96.712338 
2605.000000	96.711041 
2604.000000	96.709980 
2603.000000	96.709341 
2602.000000	96.708665 
2601.000000	96.707944 
2600.000000	96.707832 
2599.000000	96.708492 
2598.000000	96.709087 
2597.000000	96.708981 
2596.000000	96.708659 
2595.000000	96.708702 
2594.000000	96.708529 
2593.000000	96.707276 
2592.000000	96.705541 
2591.000000	96.704904 
2590.000000	96.705680 
2589.000000	96.706397 
2588.000000	96.705849 
2587.000000	96.704684 
2586.000000	96.704296 
2585.000000	96.705081 
2584.000000	96.706402 
2583.000000	96.707649 
2582.000000	96.708719 
2581.000000	96.709803 
2580.000000	96.711180 
2579.000000	96.713065 
2578.000000	96.715418 
2577.000000	96.717954 
2576.000000	96.720265 
2575.000000	96.721701 
2574.000000	96.721407 
2573.000000	96.719091 
2572.000000	96.715554 
2571.000000	96.712041 
2570.000000	96.709253 
2569.000000	96.707406 
2568.000000	96.706848 
2567.000000	96.707790 
2566.000000	96.709597 
2565.000000	96.711174 
2564.000000	96.712117 
2563.000000	96.712797 
2562.000000	96.713338 
2561.000000	96.713412 
2560.000000	96.713231 
2559.000000	96.713797 
2558.000000	96.715637 
2557.000000	96.717871 
2556.000000	96.719115 
2555.000000	96.719041 
2554.000000	96.718441 
2553.000000	96.718055 
2552.000000	96.717914 
2551.000000	96.717915 
2550.000000	96.718304 
2549.000000	96.719137 
2548.000000	96.719727 
2547.000000	96.719251 
2546.000000	96.717806 
2545.000000	96.716370 
2544.000000	96.715639 
2543.000000	96.715373 
2542.000000	96.715058 
2541.000000	96.714762 
2540.000000	96.714900 
2539.000000	96.715422 
2538.000000	96.715753 
2537.000000	96.715545 
2536.000000	96.715111 
2535.000000	96.715005 
2534.000000	96.715375 
2533.000000	96.715930 
2532.000000	96.716314 
2531.000000	96.716415 
2530.000000	96.716318 
2529.000000	96.716146 
2528.000000	96.715976 
2527.000000	96.715867 
2526.000000	96.715882 
2525.000000	96.716041 
2524.000000	96.716286 
2523.000000	96.716505 
2522.000000	96.716614 
2521.000000	96.716621 
2520.000000	96.716607 
2519.000000	96.716642 
2518.000000	96.716723 
2517.000000	96.716786 
2516.000000	96.716766 
2515.000000	96.716680 
2514.000000	96.716677 
2513.000000	96.716929 
2512.000000	96.717451 
2511.000000	96.718097 
2510.000000	96.718719 
2509.000000	96.719278 
2508.000000	96.719789 
2507.000000	96.720250 
2506.000000	96.720677 
2505.000000	96.721133 
2504.000000	96.721671 
2503.000000	96.722268 
2502.000000	96.722840 
2501.000000	96.723331 
2500.000000	96.723759 
2499.000000	96.724175 
2498.000000	96.724625 
2497.000000	96.725116 
2496.000000	96.725639 
2495.000000	96.726178 
2494.000000	96.726710 
2493.000000	96.727213 
2492.000000	96.727686 
2491.000000	96.728148 
2490.000000	96.728629 
2489.000000	96.729139 
2488.000000	96.729650 
2487.000000	96.730119 
2486.000000	96.730525 
2485.000000	96.730895 
2484.000000	96.731293 
2483.000000	96.731767 
2482.000000	96.732297 
2481.000000	96.732800 
2480.000000	96.733197 
2479.000000	96.733488 
2478.000000	96.733767 
2477.000000	96.734133 
2476.000000	96.734542 
2475.000000	96.734781 
2474.000000	96.734669 
2473.000000	96.734300 
2472.000000	96.734057 
2471.000000	96.734254 
2470.000000	96.734888 
2469.000000	96.735632 
2468.000000	96.736131 
2467.000000	96.736270 
2466.000000	96.736112 
2465.000000	96.735741 
2464.000000	96.735271 
2463.000000	96.734979 
2462.000000	96.735221 
2461.000000	96.736154 
2460.000000	96.737517 
2459.000000	96.738773 
2458.000000	96.739445 
2457.000000	96.739374 
2456.000000	96.738651 
2455.000000	96.737462 
2454.000000	96.736152 
2453.000000	96.735117 
2452.000000	96.734434 
2451.000000	96.733819 
2450.000000	96.733211 
2449.000000	96.733149 
2448.000000	96.734049 
2447.000000	96.735333 
2446.000000	96.735925 
2445.000000	96.735675 
2444.000000	96.735529 
2443.000000	96.736224 
2442.000000	96.737518 
2441.000000	96.738779 
2440.000000	96.739731 
2439.000000	96.740454 
2438.000000	96.741227 
2437.000000	96.742543 
2436.000000	96.744699 
2435.000000	96.747164 
2434.000000	96.748832 
2433.000000	96.749216 
2432.000000	96.748963 
2431.000000	96.749105 
2430.000000	96.750080 
2429.000000	96.751650 
2428.000000	96.753313 
2427.000000	96.754546 
2426.000000	96.755014 
2425.000000	96.754817 
2424.000000	96.754414 
2423.000000	96.754178 
2422.000000	96.754265 
2421.000000	96.754881 
2420.000000	96.756315 
2419.000000	96.758648 
2418.000000	96.761483 
2417.000000	96.764114 
2416.000000	96.765971 
2415.000000	96.766781 
2414.000000	96.766471 
2413.000000	96.765586 
2412.000000	96.765406 
2411.000000	96.766619 
2410.000000	96.768412 
2409.000000	96.769779 
2408.000000	96.771046 
2407.000000	96.772963 
2406.000000	96.774924 
2405.000000	96.775433 
2404.000000	96.773988 
2403.000000	96.771442 
2402.000000	96.768981 
2401.000000	96.767778 
2400.000000	96.769066 
2399.000000	96.773164 
2398.000000	96.778601 
2397.000000	96.783336 
2396.000000	96.786529 
2395.000000	96.788220 
2394.000000	96.788141 
2393.000000	96.786388 
2392.000000	96.784672 
2391.000000	96.784973 
2390.000000	96.786883 
2389.000000	96.787830 
2388.000000	96.786153 
2387.000000	96.782622 
2386.000000	96.778867 
2385.000000	96.775788 
2384.000000	96.773892 
2383.000000	96.773921 
2382.000000	96.776619 
2381.000000	96.782624 
2380.000000	96.792570 
2379.000000	96.805935 
2378.000000	96.819283 
2377.000000	96.827367 
2376.000000	96.827272 
2375.000000	96.820632 
2374.000000	96.811252 
2373.000000	96.801216 
2372.000000	96.790827 
2371.000000	96.781570 
2370.000000	96.776436 
2369.000000	96.776514 
2368.000000	96.778628 
2367.000000	96.777904 
2366.000000	96.772929 
2365.000000	96.767166 
2364.000000	96.764465 
2363.000000	96.764550 
2362.000000	96.764745 
2361.000000	96.763512 
2360.000000	96.760358 
2359.000000	96.755036 
2358.000000	96.748461 
2357.000000	96.744210 
2356.000000	96.744270 
2355.000000	96.745866 
2354.000000	96.744825 
2353.000000	96.740302 
2352.000000	96.735988 
2351.000000	96.733090 
2350.000000	96.729038 
2349.000000	96.723366 
2348.000000	96.719369 
2347.000000	96.718913 
2346.000000	96.716517 
2345.000000	96.708053 
2344.000000	96.696524 
2343.000000	96.687605 
2342.000000	96.685589 
2341.000000	96.690856 
2340.000000	96.700344 
2339.000000	96.707725 
2338.000000	96.708986 
2337.000000	96.705082 
2336.000000	96.700771 
2335.000000	96.698966 
2334.000000	96.698345 
2333.000000	96.694461 
2332.000000	96.685784 
2331.000000	96.673566 
2330.000000	96.659083 
2329.000000	96.641990 
2328.000000	96.622223 
2327.000000	96.603974 
2326.000000	96.590324 
2325.000000	96.583014 
2324.000000	96.582174 
2323.000000	96.587189 
2322.000000	96.594516 
2321.000000	96.598275 
2320.000000	96.598189 
2319.000000	96.599481 
2318.000000	96.606633 
2317.000000	96.617221 
2316.000000	96.626121 
2315.000000	96.630333 
2314.000000	96.629307 
2313.000000	96.623588 
2312.000000	96.615201 
2311.000000	96.607972 
2310.000000	96.603199 
2309.000000	96.598837 
2308.000000	96.593260 
2307.000000	96.589407 
2306.000000	96.590610 
2305.000000	96.595790 
2304.000000	96.600701 
2303.000000	96.603522 
2302.000000	96.605955 
2301.000000	96.609393 
2300.000000	96.612621 
2299.000000	96.613466 
2298.000000	96.610892 
2297.000000	96.605807 
2296.000000	96.600378 
2295.000000	96.597618 
2294.000000	96.598997 
2293.000000	96.603547 
2292.000000	96.608402 
2291.000000	96.611583 
2290.000000	96.612851 
2289.000000	96.613487 
2288.000000	96.614889 
2287.000000	96.617565 
2286.000000	96.620809 
2285.000000	96.623874 
2284.000000	96.627065 
2283.000000	96.630712 
2282.000000	96.633732 
2281.000000	96.634611 
2280.000000	96.633698 
2279.000000	96.632877 
2278.000000	96.633127 
2277.000000	96.633551 
2276.000000	96.633351 
2275.000000	96.633147 
2274.000000	96.633885 
2273.000000	96.635714 
2272.000000	96.638472 
2271.000000	96.642012 
2270.000000	96.645479 
2269.000000	96.647719 
2268.000000	96.648938 
2267.000000	96.650664 
2266.000000	96.653327 
2265.000000	96.655331 
2264.000000	96.655158 
2263.000000	96.652981 
2262.000000	96.649651 
2261.000000	96.645660 
2260.000000	96.641690 
2259.000000	96.638710 
2258.000000	96.636845 
2257.000000	96.635373 
2256.000000	96.634421 
2255.000000	96.635174 
2254.000000	96.637806 
2253.000000	96.640369 
2252.000000	96.640732 
2251.000000	96.638609 
2250.000000	96.634862 
2249.000000	96.630185 
2248.000000	96.625461 
2247.000000	96.622190 
2246.000000	96.621216 
2245.000000	96.621553 
2244.000000	96.621128 
2243.000000	96.618983 
2242.000000	96.615992 
2241.000000	96.613678 
2240.000000	96.612719 
2239.000000	96.612725 
2238.000000	96.612771 
2237.000000	96.612112 
2236.000000	96.610683 
2235.000000	96.608950 
2234.000000	96.607358 
2233.000000	96.605984 
2232.000000	96.604728 
2231.000000	96.603526 
2230.000000	96.602236 
2229.000000	96.600612 
2228.000000	96.598612 
2227.000000	96.596530 
2226.000000	96.594714 
2225.000000	96.593236 
2224.000000	96.591911 
2223.000000	96.590566 
2222.000000	96.589224 
2221.000000	96.587962 
2220.000000	96.586768 
2219.000000	96.585582 
2218.000000	96.584382 
2217.000000	96.583192 
2216.000000	96.582038 
2215.000000	96.580907 
2214.000000	96.579752 
2213.000000	96.578543 
2212.000000	96.577306 
2211.000000	96.576105 
2210.000000	96.574981 
2209.000000	96.573921 
2208.000000	96.572895 
2207.000000	96.571890 
2206.000000	96.570906 
2205.000000	96.569921 
2204.000000	96.568827 
2203.000000	96.567661 
2202.000000	96.567005 
2201.000000	96.567262 
2200.000000	96.567464 
2199.000000	96.565944 
2198.000000	96.562124 
2197.000000	96.557161 
2196.000000	96.553123 
2195.000000	96.551465 
2194.000000	96.552006 
2193.000000	96.553384 
2192.000000	96.554687 
2191.000000	96.555976 
2190.000000	96.556913 
2189.000000	96.556139 
2188.000000	96.552971 
2187.000000	96.548482 
2186.000000	96.543744 
2185.000000	96.538505 
2184.000000	96.533553 
2183.000000	96.532735 
2182.000000	96.539312 
2181.000000	96.550507 
2180.000000	96.558492 
2179.000000	96.558278 
2178.000000	96.552128 
2177.000000	96.546327 
2176.000000	96.545215 
2175.000000	96.548827 
2174.000000	96.554485 
2173.000000	96.559314 
2172.000000	96.562328 
2171.000000	96.564645 
2170.000000	96.566846 
2169.000000	96.566542 
2168.000000	96.560600 
2167.000000	96.549948 
2166.000000	96.539619 
2165.000000	96.532764 
2164.000000	96.527087 
2163.000000	96.519613 
2162.000000	96.513623 
2161.000000	96.517635 
2160.000000	96.537279 
2159.000000	96.569435 
2158.000000	96.603279 
2157.000000	96.627949 
2156.000000	96.639559 
2155.000000	96.641113 
2154.000000	96.638413 
2153.000000	96.636379 
2152.000000	96.637209 
2151.000000	96.639980 
2150.000000	96.641782 
2149.000000	96.640765 
2148.000000	96.638783 
2147.000000	96.639653 
2146.000000	96.644212 
2145.000000	96.649070 
2144.000000	96.651641 
2143.000000	96.654178 
2142.000000	96.660365 
2141.000000	96.669600 
2140.000000	96.677846 
2139.000000	96.683820 
2138.000000	96.691016 
2137.000000	96.702477 
2136.000000	96.715688 
2135.000000	96.724218 
2134.000000	96.723651 
2133.000000	96.715431 
2132.000000	96.705847 
2131.000000	96.700905 
2130.000000	96.701578 
2129.000000	96.703921 
2128.000000	96.703864 
2127.000000	96.701659 
2126.000000	96.701109 
2125.000000	96.704893 
2124.000000	96.711568 
2123.000000	96.717086 
2122.000000	96.718232 
2121.000000	96.714363 
2120.000000	96.706859 
2119.000000	96.697898 
2118.000000	96.689836 
2117.000000	96.684888 
2116.000000	96.683852 
2115.000000	96.684643 
2114.000000	96.683086 
2113.000000	96.676880 
2112.000000	96.668913 
2111.000000	96.664873 
2110.000000	96.667317 
2109.000000	96.673312 
2108.000000	96.677970 
2107.000000	96.679194 
2106.000000	96.678197 
2105.000000	96.677294 
2104.000000	96.678512 
2103.000000	96.682565 
2102.000000	96.687322 
2101.000000	96.688462 
2100.000000	96.683896 
2099.000000	96.677104 
2098.000000	96.674359 
2097.000000	96.678272 
2096.000000	96.685621 
2095.000000	96.691203 
2094.000000	96.692680 
2093.000000	96.691087 
2092.000000	96.688407 
2091.000000	96.685950 
2090.000000	96.684441 
2089.000000	96.684275 
2088.000000	96.685096 
2087.000000	96.685402 
2086.000000	96.683182 
2085.000000	96.677635 
2084.000000	96.670453 
2083.000000	96.664762 
2082.000000	96.662316 
2081.000000	96.662335 
2080.000000	96.663295 
2079.000000	96.664835 
2078.000000	96.666937 
2077.000000	96.668246 
2076.000000	96.666933 
2075.000000	96.663027 
2074.000000	96.658265 
2073.000000	96.653659 
2072.000000	96.648591 
2071.000000	96.642380 
2070.000000	96.635498 
2069.000000	96.629076 
2068.000000	96.624217 
2067.000000	96.621613 
2066.000000	96.620667 
2065.000000	96.619065 
2064.000000	96.614651 
2063.000000	96.608231 
2062.000000	96.603322 
2061.000000	96.602515 
2060.000000	96.605279 
2059.000000	96.609446 
2058.000000	96.613002 
2057.000000	96.614590 
2056.000000	96.613239 
2055.000000	96.608416 
2054.000000	96.600628 
2053.000000	96.591708 
2052.000000	96.584263 
2051.000000	96.580064 
2050.000000	96.578952 
2049.000000	96.579277 
2048.000000	96.579558 
2047.000000	96.579693 
2046.000000	96.580213 
2045.000000	96.581093 
2044.000000	96.581811 
2043.000000	96.582040 
2042.000000	96.581748 
2041.000000	96.580945 
2040.000000	96.579860 
2039.000000	96.579167 
2038.000000	96.579438 
2037.000000	96.580369 
2036.000000	96.581018 
2035.000000	96.580872 
2034.000000	96.580376 
2033.000000	96.580390 
2032.000000	96.581297 
2031.000000	96.582630 
2030.000000	96.583386 
2029.000000	96.582834 
2028.000000	96.581159 
2027.000000	96.579299 
2026.000000	96.578018 
2025.000000	96.577432 
2024.000000	96.577582 
2023.000000	96.578969 
2022.000000	96.582008 
2021.000000	96.585881 
2020.000000	96.588451 
2019.000000	96.588085 
2018.000000	96.584943 
2017.000000	96.581016 
2016.000000	96.578467 
2015.000000	96.578009 
2014.000000	96.578649 
2013.000000	96.578458 
2012.000000	96.576499 
2011.000000	96.574310 
2010.000000	96.574554 
2009.000000	96.577897 
2008.000000	96.581966 
2007.000000	96.584089 
2006.000000	96.584287 
2005.000000	96.584287 
2004.000000	96.584805 
2003.000000	96.585307 
2002.000000	96.585786 
2001.000000	96.586529 
2000.000000	96.586329 
1999.000000	96.582848 
1998.000000	96.575250 
1997.000000	96.565788 
1996.000000	96.558239 
1995.000000	96.554930 
1994.000000	96.555674 
1993.000000	96.558541 
1992.000000	96.561185 
1991.000000	96.562406 
1990.000000	96.562841 
1989.000000	96.563869 
1988.000000	96.565588 
1987.000000	96.566157 
1986.000000	96.563638 
1985.000000	96.558313 
1984.000000	96.552598 
1983.000000	96.548556 
1982.000000	96.546338 
1981.000000	96.545295 
1980.000000	96.545940 
1979.000000	96.549495 
1978.000000	96.555402 
1977.000000	96.560737 
1976.000000	96.562811 
1975.000000	96.561948 
1974.000000	96.561087 
1973.000000	96.563113 
1972.000000	96.568498 
1971.000000	96.575097 
1970.000000	96.579781 
1969.000000	96.580669 
1968.000000	96.578181 
1967.000000	96.574721 
1966.000000	96.573244 
1965.000000	96.575154 
1964.000000	96.579776 
1963.000000	96.585319 
1962.000000	96.590421 
1961.000000	96.594721 
1960.000000	96.598043 
1959.000000	96.599843 
1958.000000	96.600092 
1957.000000	96.600203 
1956.000000	96.601988 
1955.000000	96.605614 
1954.000000	96.609390 
1953.000000	96.611845 
1952.000000	96.613168 
1951.000000	96.614367 
1950.000000	96.616064 
1949.000000	96.618533 
1948.000000	96.622024 
1947.000000	96.626151 
1946.000000	96.629489 
1945.000000	96.630766 
1944.000000	96.630141 
1943.000000	96.628889 
1942.000000	96.628125 
1941.000000	96.628166 
1940.000000	96.628907 
1939.000000	96.630018 
1938.000000	96.631052 
1937.000000	96.632149 
1936.000000	96.634221 
1935.000000	96.637485 
1934.000000	96.640343 
1933.000000	96.641298 
1932.000000	96.641468 
1931.000000	96.643401 
1930.000000	96.647579 
1929.000000	96.651445 
1928.000000	96.653281 
1927.000000	96.654436 
1926.000000	96.656771 
1925.000000	96.659714 
1924.000000	96.661104 
1923.000000	96.660183 
1922.000000	96.657829 
1921.000000	96.654778 
1920.000000	96.651665 
1919.000000	96.649461 
1918.000000	96.648296 
1917.000000	96.646751 
1916.000000	96.644107 
1915.000000	96.642384 
1914.000000	96.643359 
1913.000000	96.645480 
1912.000000	96.645648 
1911.000000	96.643299 
1910.000000	96.640578 
1909.000000	96.639101 
1908.000000	96.639075 
1907.000000	96.640188 
1906.000000	96.641497 
1905.000000	96.640920 
1904.000000	96.636889 
1903.000000	96.631324 
1902.000000	96.627931 
1901.000000	96.627414 
1900.000000	96.627662 
1899.000000	96.627476 
1898.000000	96.627585 
1897.000000	96.628044 
1896.000000	96.626863 
1895.000000	96.622910 
1894.000000	96.617756 
1893.000000	96.613455 
1892.000000	96.610552 
1891.000000	96.608905 
1890.000000	96.608507 
1889.000000	96.608955 
1888.000000	96.609356 
1887.000000	96.609684 
1886.000000	96.610393 
1885.000000	96.610452 
1884.000000	96.607843 
1883.000000	96.602762 
1882.000000	96.598268 
1881.000000	96.596822 
1880.000000	96.598148 
1879.000000	96.600051 
1878.000000	96.600557 
1877.000000	96.599854 
1876.000000	96.599938 
1875.000000	96.602619 
1874.000000	96.607854 
1873.000000	96.613403 
1872.000000	96.616717 
1871.000000	96.616895 
1870.000000	96.614477 
1869.000000	96.611062 
1868.000000	96.609324 
1867.000000	96.611594 
1866.000000	96.617271 
1865.000000	96.622293 
1864.000000	96.623213 
1863.000000	96.621298 
1862.000000	96.620873 
1861.000000	96.624021 
1860.000000	96.629248 
1859.000000	96.635015 
1858.000000	96.641473 
1857.000000	96.648193 
1856.000000	96.653636 
1855.000000	96.657268 
1854.000000	96.659833 
1853.000000	96.661366 
1852.000000	96.662495 
1851.000000	96.665541 
1850.000000	96.671308 
1849.000000	96.677247 
1848.000000	96.680329 
1847.000000	96.681188 
1846.000000	96.682714 
1845.000000	96.685586 
1844.000000	96.688161 
1843.000000	96.690173 
1842.000000	96.693074 
1841.000000	96.697429 
1840.000000	96.703090 
1839.000000	96.709529 
1838.000000	96.715430 
1837.000000	96.718532 
1836.000000	96.717716 
1835.000000	96.715666 
1834.000000	96.716291 
1833.000000	96.720317 
1832.000000	96.725809 
1831.000000	96.729778 
1830.000000	96.729899 
1829.000000	96.727230 
1828.000000	96.724666 
1827.000000	96.724047 
1826.000000	96.725211 
1825.000000	96.727053 
1824.000000	96.728560 
1823.000000	96.729313 
1822.000000	96.729837 
1821.000000	96.730507 
1820.000000	96.730934 
1819.000000	96.730873 
1818.000000	96.731908 
1817.000000	96.735060 
1816.000000	96.737780 
1815.000000	96.738384 
1814.000000	96.738843 
1813.000000	96.741517 
1812.000000	96.744268 
1811.000000	96.742151 
1810.000000	96.735917 
1809.000000	96.730577 
1808.000000	96.727359 
1807.000000	96.724898 
1806.000000	96.724163 
1805.000000	96.726414 
1804.000000	96.728437 
1803.000000	96.725743 
1802.000000	96.717906 
1801.000000	96.709897 
1800.000000	96.705792 
1799.000000	96.704718 
1798.000000	96.705390 
1797.000000	96.706255 
1796.000000	96.704923 
1795.000000	96.702109 
1794.000000	96.701531 
1793.000000	96.704970 
1792.000000	96.708540 
1791.000000	96.708309 
1790.000000	96.707642 
1789.000000	96.711156 
1788.000000	96.718216 
1787.000000	96.724821 
1786.000000	96.728678 
1785.000000	96.730563 
1784.000000	96.731671 
1783.000000	96.734060 
1782.000000	96.738273 
1781.000000	96.743083 
1780.000000	96.747728 
1779.000000	96.752262 
1778.000000	96.758051 
1777.000000	96.764247 
1776.000000	96.768450 
1775.000000	96.769574 
1774.000000	96.768178 
1773.000000	96.766849 
1772.000000	96.769027 
1771.000000	96.773592 
1770.000000	96.777133 
1769.000000	96.779139 
1768.000000	96.780504 
1767.000000	96.781646 
1766.000000	96.782580 
1765.000000	96.784315 
1764.000000	96.787668 
1763.000000	96.791358 
1762.000000	96.793289 
1761.000000	96.794345 
1760.000000	96.796352 
1759.000000	96.799071 
1758.000000	96.801188 
1757.000000	96.802082 
1756.000000	96.803579 
1755.000000	96.806177 
1754.000000	96.807725 
1753.000000	96.806703 
1752.000000	96.804398 
1751.000000	96.803892 
1750.000000	96.806435 
1749.000000	96.810276 
1748.000000	96.813601 
1747.000000	96.816601 
1746.000000	96.819095 
1745.000000	96.820824 
1744.000000	96.822193 
1743.000000	96.822818 
1742.000000	96.821900 
1741.000000	96.820317 
1740.000000	96.820063 
1739.000000	96.821634 
1738.000000	96.823297 
1737.000000	96.824043 
1736.000000	96.824359 
1735.000000	96.823593 
1734.000000	96.821092 
1733.000000	96.818345 
1732.000000	96.817758 
1731.000000	96.821273 
1730.000000	96.828014 
1729.000000	96.833298 
1728.000000	96.834347 
1727.000000	96.832944 
1726.000000	96.831323 
1725.000000	96.830408 
1724.000000	96.829874 
1723.000000	96.829485 
1722.000000	96.830257 
1721.000000	96.832341 
1720.000000	96.834676 
1719.000000	96.835327 
1718.000000	96.833555 
1717.000000	96.831143 
1716.000000	96.825913 
1715.000000	96.817271 
1714.000000	96.811000 
1713.000000	96.809802 
1712.000000	96.809809 
1711.000000	96.808746 
1710.000000	96.807978 
1709.000000	96.807658 
1708.000000	96.805994 
1707.000000	96.802656 
1706.000000	96.799769 
1705.000000	96.797685 
1704.000000	96.792201 
1703.000000	96.781652 
1702.000000	96.769812 
1701.000000	96.762447 
1700.000000	96.761084 
1699.000000	96.758546 
1698.000000	96.754796 
1697.000000	96.753640 
1696.000000	96.753395 
1695.000000	96.751399 
1694.000000	96.747693 
1693.000000	96.743866 
1692.000000	96.740448 
1691.000000	96.736634 
1690.000000	96.731721 
1689.000000	96.725738 
1688.000000	96.720075 
1687.000000	96.715788 
1686.000000	96.713238 
1685.000000	96.711610 
1684.000000	96.708327 
1683.000000	96.703539 
1682.000000	96.698687 
1681.000000	96.693545 
1680.000000	96.689074 
1679.000000	96.685563 
1678.000000	96.681839 
1677.000000	96.677018 
1676.000000	96.672060 
1675.000000	96.668850 
1674.000000	96.666173 
1673.000000	96.662357 
1672.000000	96.658444 
1671.000000	96.655998 
1670.000000	96.654323 
1669.000000	96.651139 
1668.000000	96.647154 
1667.000000	96.644433 
1666.000000	96.642543 
1665.000000	96.640823 
1664.000000	96.639654 
1663.000000	96.639509 
1662.000000	96.638439 
1661.000000	96.633348 
1660.000000	96.626277 
1659.000000	96.622104 
1658.000000	96.621112 
1657.000000	96.620137 
1656.000000	96.617887 
1655.000000	96.615566 
1654.000000	96.610224 
1653.000000	96.602983 
1652.000000	96.596650 
1651.000000	96.590286 
1650.000000	96.582709 
1649.000000	96.577838 
1648.000000	96.574561 
1647.000000	96.570526 
1646.000000	96.567841 
1645.000000	96.567663 
1644.000000	96.567169 
1643.000000	96.565908 
1642.000000	96.565886 
1641.000000	96.566455 
1640.000000	96.566349 
1639.000000	96.564257 
1638.000000	96.560306 
1637.000000	96.555011 
1636.000000	96.549906 
1635.000000	96.550473 
1634.000000	96.555166 
1633.000000	96.557647 
1632.000000	96.555599 
1631.000000	96.552932 
1630.000000	96.553077 
1629.000000	96.554515 
1628.000000	96.553743 
1627.000000	96.552337 
1626.000000	96.553316 
1625.000000	96.556404 
1624.000000	96.560128 
1623.000000	96.564361 
1622.000000	96.568106 
1621.000000	96.567996 
1620.000000	96.565576 
1619.000000	96.565948 
1618.000000	96.571055 
1617.000000	96.575327 
1616.000000	96.574860 
1615.000000	96.574200 
1614.000000	96.576167 
1613.000000	96.577832 
1612.000000	96.577385 
1611.000000	96.577776 
1610.000000	96.581443 
1609.000000	96.586756 
1608.000000	96.593226 
1607.000000	96.602881 
1606.000000	96.613292 
1605.000000	96.619785 
1604.000000	96.624383 
1603.000000	96.631378 
1602.000000	96.639758 
1601.000000	96.645836 
1600.000000	96.650287 
1599.000000	96.656540 
1598.000000	96.663826 
1597.000000	96.669020 
1596.000000	96.672514 
1595.000000	96.677800 
1594.000000	96.685678 
1593.000000	96.693116 
1592.000000	96.698858 
1591.000000	96.704990 
1590.000000	96.711916 
1589.000000	96.717224 
1588.000000	96.721457 
1587.000000	96.728285 
1586.000000	96.737687 
1585.000000	96.743847 
1584.000000	96.746104 
1583.000000	96.750634 
1582.000000	96.758591 
1581.000000	96.764808 
1580.000000	96.768442 
1579.000000	96.774667 
1578.000000	96.786040 
1577.000000	96.799469 
1576.000000	96.810879 
1575.000000	96.819389 
1574.000000	96.822526 
1573.000000	96.820753 
1572.000000	96.820772 
1571.000000	96.827425 
1570.000000	96.835352 
1569.000000	96.833930 
1568.000000	96.827393 
1567.000000	96.825643 
1566.000000	96.827691 
1565.000000	96.828195 
1564.000000	96.829948 
1563.000000	96.834121 
1562.000000	96.839266 
1561.000000	96.835798 
1560.000000	96.831442 
1559.000000	96.827753 
1558.000000	96.824404 
1557.000000	96.820890 
1556.000000	96.816799 
1555.000000	96.815448 
1554.000000	96.814257 
1553.000000	96.810964 
1552.000000	96.807316 
1551.000000	96.799430 
1550.000000	96.783592 
1549.000000	96.764717 
1548.000000	96.752392 
1547.000000	96.749302 
1546.000000	96.746845 
1545.000000	96.735224 
1544.000000	96.716288 
1543.000000	96.699476 
1542.000000	96.690409 
1541.000000	96.684610 
1540.000000	96.666907 
1539.000000	96.640380 
1538.000000	96.615492 
1537.000000	96.591866 
1536.000000	96.569928 
1535.000000	96.553321 
1534.000000	96.539876 
1533.000000	96.525105 
1532.000000	96.508380 
1531.000000	96.491142 
1530.000000	96.475582 
1529.000000	96.461224 
1528.000000	96.443285 
1527.000000	96.419299 
1526.000000	96.391932 
1525.000000	96.366751 
1524.000000	96.347643 
1523.000000	96.333634 
1522.000000	96.318019 
1521.000000	96.294748 
1520.000000	96.266066 
1519.000000	96.237665 
1518.000000	96.210709 
1517.000000	96.183389 
1516.000000	96.156478 
1515.000000	96.134116 
1514.000000	96.117404 
1513.000000	96.104063 
1512.000000	96.089775 
1511.000000	96.069243 
1510.000000	96.042733 
1509.000000	96.012975 
1508.000000	95.981934 
1507.000000	95.947527 
1506.000000	95.919017 
1505.000000	95.899002 
1504.000000	95.879005 
1503.000000	95.855665 
1502.000000	95.830279 
1501.000000	95.804742 
1500.000000	95.781320 
1499.000000	95.759066 
1498.000000	95.733786 
1497.000000	95.705845 
1496.000000	95.680053 
1495.000000	95.659134 
1494.000000	95.642860 
1493.000000	95.630537 
1492.000000	95.620154 
1491.000000	95.606411 
1490.000000	95.583976 
1489.000000	95.555530 
1488.000000	95.526111 
1487.000000	95.496949 
1486.000000	95.470024 
1485.000000	95.443902 
1484.000000	95.417668 
1483.000000	95.393875 
1482.000000	95.373149 
1481.000000	95.353957 
1480.000000	95.333975 
1479.000000	95.312910 
1478.000000	95.291369 
1477.000000	95.269246 
1476.000000	95.244353 
1475.000000	95.215683 
1474.000000	95.185085 
1473.000000	95.156481 
1472.000000	95.135423 
1471.000000	95.121219 
1470.000000	95.108480 
1469.000000	95.094033 
1468.000000	95.076589 
1467.000000	95.055466 
1466.000000	95.031900 
1465.000000	95.008607 
1464.000000	94.989252 
1463.000000	94.972185 
1462.000000	94.954221 
1461.000000	94.937724 
1460.000000	94.927820 
1459.000000	94.922682 
1458.000000	94.906460 
1457.000000	94.871330 
1456.000000	94.837711 
1455.000000	94.816350 
1454.000000	94.798748 
1453.000000	94.783815 
1452.000000	94.776819 
1451.000000	94.778657 
1450.000000	94.784668 
1449.000000	94.791041 
1448.000000	94.794597 
1447.000000	94.793527 
1446.000000	94.788501 
1445.000000	94.783945 
1444.000000	94.784811 
1443.000000	94.787647 
1442.000000	94.786779 
1441.000000	94.782926 
1440.000000	94.781608 
1439.000000	94.782044 
1438.000000	94.777207 
1437.000000	94.766896 
1436.000000	94.763007 
1435.000000	94.768830 
1434.000000	94.776119 
1433.000000	94.781896 
1432.000000	94.788482 
1431.000000	94.796506 
1430.000000	94.803829 
1429.000000	94.811953 
1428.000000	94.823615 
1427.000000	94.838964 
1426.000000	94.855091 
1425.000000	94.869777 
1424.000000	94.885958 
1423.000000	94.902814 
1422.000000	94.916784 
1421.000000	94.930032 
1420.000000	94.948253 
1419.000000	94.965440 
1418.000000	94.970825 
1417.000000	94.972869 
1416.000000	94.987459 
1415.000000	95.015378 
1414.000000	95.044503 
1413.000000	95.066451 
1412.000000	95.085464 
1411.000000	95.107062 
1410.000000	95.129432 
1409.000000	95.151457 
1408.000000	95.175062 
1407.000000	95.200652 
1406.000000	95.225443 
1405.000000	95.248987 
1404.000000	95.276584 
1403.000000	95.307546 
1402.000000	95.335863 
1401.000000	95.362599 
1400.000000	95.395065 
1399.000000	95.434253 
1398.000000	95.470665 
1397.000000	95.497776 
1396.000000	95.519415 
1395.000000	95.543960 
1394.000000	95.574884 
1393.000000	95.611800 
1392.000000	95.655557 
1391.000000	95.703431 
1390.000000	95.748580 
1389.000000	95.785832 
1388.000000	95.814596 
1387.000000	95.837680 
1386.000000	95.859001 
1385.000000	95.882642 
1384.000000	95.911990 
1383.000000	95.945639 
1382.000000	95.978330 
1381.000000	96.006749 
1380.000000	96.031177 
1379.000000	96.054107 
1378.000000	96.078316 
1377.000000	96.105314 
1376.000000	96.133864 
1375.000000	96.160490 
1374.000000	96.182659 
1373.000000	96.203102 
1372.000000	96.226079 
1371.000000	96.252347 
1370.000000	96.278801 
1369.000000	96.301579 
1368.000000	96.321855 
1367.000000	96.343457 
1366.000000	96.367929 
1365.000000	96.393973 
1364.000000	96.417153 
1363.000000	96.431960 
1362.000000	96.438870 
1361.000000	96.445759 
1360.000000	96.459456 
1359.000000	96.480275 
1358.000000	96.503811 
1357.000000	96.525477 
1356.000000	96.543589 
1355.000000	96.558917 
1354.000000	96.573154 
1353.000000	96.589042 
1352.000000	96.606841 
1351.000000	96.624906 
1350.000000	96.641409 
1349.000000	96.654106 
1348.000000	96.663142 
1347.000000	96.671241 
1346.000000	96.681612 
1345.000000	96.695384 
1344.000000	96.711174 
1343.000000	96.726885 
1342.000000	96.740949 
1341.000000	96.751518 
1340.000000	96.756624 
1339.000000	96.756990 
1338.000000	96.756493 
1337.000000	96.759019 
1336.000000	96.765650 
1335.000000	96.774699 
1334.000000	96.783950 
1333.000000	96.792220 
1332.000000	96.798695 
1331.000000	96.803071 
1330.000000	96.806262 
1329.000000	96.809985 
1328.000000	96.814742 
1327.000000	96.819675 
1326.000000	96.823349 
1325.000000	96.824512 
1324.000000	96.823719 
1323.000000	96.822325 
1322.000000	96.820932 
1321.000000	96.819677 
1320.000000	96.819108 
1319.000000	96.819639 
1318.000000	96.820923 
1317.000000	96.822515 
1316.000000	96.823990 
1315.000000	96.824190 
1314.000000	96.822107 
1313.000000	96.819544 
1312.000000	96.820282 
1311.000000	96.825317 
1310.000000	96.830730 
1309.000000	96.832495 
1308.000000	96.831077 
1307.000000	96.830421 
1306.000000	96.832812 
1305.000000	96.836548 
1304.000000	96.839146 
1303.000000	96.839560 
1302.000000	96.837969 
1301.000000	96.835289 
1300.000000	96.833263 
1299.000000	96.833340 
1298.000000	96.835086 
1297.000000	96.836434 
1296.000000	96.835727 
1295.000000	96.833396 
1294.000000	96.831309 
1293.000000	96.831057 
1292.000000	96.832586 
1291.000000	96.834200 
1290.000000	96.834469 
1289.000000	96.833895 
1288.000000	96.833774 
1287.000000	96.833649 
1286.000000	96.831546 
1285.000000	96.827382 
1284.000000	96.824219 
1283.000000	96.824421 
1282.000000	96.826258 
1281.000000	96.825989 
1280.000000	96.822763 
1279.000000	96.819690 
1278.000000	96.820173 
1277.000000	96.824609 
1276.000000	96.830500 
1275.000000	96.834818 
1274.000000	96.835987 
1273.000000	96.834641 
1272.000000	96.832872 
1271.000000	96.832234 
1270.000000	96.832476 
1269.000000	96.832427 
1268.000000	96.831709 
1267.000000	96.830514 
1266.000000	96.828577 
1265.000000	96.826341 
1264.000000	96.826207 
1263.000000	96.830148 
1262.000000	96.836320 
1261.000000	96.840016 
1260.000000	96.839101 
1259.000000	96.836623 
1258.000000	96.836366 
1257.000000	96.837479 
1256.000000	96.835412 
1255.000000	96.828011 
1254.000000	96.818837 
1253.000000	96.812959 
1252.000000	96.810363 
1251.000000	96.805909 
1250.000000	96.796166 
1249.000000	96.783933 
1248.000000	96.774474 
1247.000000	96.768639 
1246.000000	96.762096 
1245.000000	96.751186 
1244.000000	96.736785 
1243.000000	96.722287 
1242.000000	96.710471 
1241.000000	96.702733 
1240.000000	96.698407 
1239.000000	96.693468 
1238.000000	96.682519 
1237.000000	96.663898 
1236.000000	96.641180 
1235.000000	96.618620 
1234.000000	96.596876 
1233.000000	96.574093 
1232.000000	96.548712 
1231.000000	96.519628 
1230.000000	96.486172 
1229.000000	96.449907 
1228.000000	96.413765 
1227.000000	96.377107 
1226.000000	96.334010 
1225.000000	96.279080 
1224.000000	96.212998 
1223.000000	96.139779 
1222.000000	96.060618 
1221.000000	95.973795 
1220.000000	95.879437 
1219.000000	95.780518 
1218.000000	95.679095 
1217.000000	95.574612 
1216.000000	95.465871 
1215.000000	95.352112 
1214.000000	95.232812 
1213.000000	95.109511 
1212.000000	94.986903 
1211.000000	94.868149 
1210.000000	94.749676 
1209.000000	94.624835 
1208.000000	94.492590 
1207.000000	94.358399 
1206.000000	94.226585 
1205.000000	94.096233 
1204.000000	93.965119 
1203.000000	93.833239 
1202.000000	93.701517 
1201.000000	93.570649 
1200.000000	93.442039 
1199.000000	93.316530 
1198.000000	93.191657 
1197.000000	93.063744 
1196.000000	92.932800 
1195.000000	92.802092 
1194.000000	92.673243 
1193.000000	92.544998 
1192.000000	92.416008 
1191.000000	92.284811 
1190.000000	92.148108 
1189.000000	92.003653 
1188.000000	91.854089 
1187.000000	91.703458 
1186.000000	91.550968 
1185.000000	91.393138 
1184.000000	91.230542 
1183.000000	91.066580 
1182.000000	90.900797 
1181.000000	90.729752 
1180.000000	90.553589 
1179.000000	90.374897 
1178.000000	90.191455 
1177.000000	89.997622 
1176.000000	89.793133 
1175.000000	89.583369 
1174.000000	89.370756 
1173.000000	89.153466 
1172.000000	88.932951 
1171.000000	88.714037 
1170.000000	88.496594 
1169.000000	88.276473 
1168.000000	88.056882 
1167.000000	87.850360 
1166.000000	87.668080 
1165.000000	87.516924 
1164.000000	87.408752 
1163.000000	87.360468 
1162.000000	87.378654 
1161.000000	87.449950 
1160.000000	87.547827 
1159.000000	87.641967 
1158.000000	87.702741 
1157.000000	87.709102 
1156.000000	87.657443 
1155.000000	87.558086 
1154.000000	87.422571 
1153.000000	87.259736 
1152.000000	87.082098 
1151.000000	86.904813 
1150.000000	86.734840 
1149.000000	86.569222 
1148.000000	86.405798 
1147.000000	86.246603 
1146.000000	86.089608 
1145.000000	85.928055 
1144.000000	85.761214 
1143.000000	85.596198 
1142.000000	85.436149 
1141.000000	85.276233 
1140.000000	85.114054 
1139.000000	84.953795 
1138.000000	84.796956 
1137.000000	84.639128 
1136.000000	84.479252 
1135.000000	84.322094 
1134.000000	84.168298 
1133.000000	84.011924 
1132.000000	83.850897 
1131.000000	83.689835 
1130.000000	83.529846 
1129.000000	83.366174 
1128.000000	83.198808 
1127.000000	83.034364 
1126.000000	82.874292 
1125.000000	82.712305 
1124.000000	82.546625 
1123.000000	82.383388 
1122.000000	82.224729 
1121.000000	82.065302 
1120.000000	81.903893 
1119.000000	81.745941 
1118.000000	81.591268 
1117.000000	81.433012 
1116.000000	81.272374 
1115.000000	81.120219 
1114.000000	80.979588 
1113.000000	80.840705 
1112.000000	80.697700 
1111.000000	80.555568 
1110.000000	80.416219 
1109.000000	80.273399 
1108.000000	80.125765 
1107.000000	79.980320 
1106.000000	79.839353 
1105.000000	79.697774 
1104.000000	79.555494 
1103.000000	79.418071 
1102.000000	79.282656 
1101.000000	79.140567 
1100.000000	78.994329 
1099.000000	78.856451 
1098.000000	78.730261 
1097.000000	78.607485 
1096.000000	78.486784 
1095.000000	78.375218 
1094.000000	78.269893 
1093.000000	78.158437 
1092.000000	78.041819 
1091.000000	77.937262 
1090.000000	77.853974 
1089.000000	77.784128 
1088.000000	77.720754 
1087.000000	77.665143 
1086.000000	77.613293 
1085.000000	77.555605 
1084.000000	77.494834 
1083.000000	77.445201 
1082.000000	77.409473 
1081.000000	77.375801 
1080.000000	77.340511 
1079.000000	77.313528 
1078.000000	77.296696 
1077.000000	77.276734 
1076.000000	77.244668 
1075.000000	77.202912 
1074.000000	77.149317 
1073.000000	77.073747 
1072.000000	76.973776 
1071.000000	76.853857 
1070.000000	76.705867 
1069.000000	76.511936 
1068.000000	76.271723 
1067.000000	76.007377 
1066.000000	75.736278 
1065.000000	75.458295 
1064.000000	75.175139 
1063.000000	74.899347 
1062.000000	74.635569 
1061.000000	74.373989 
1060.000000	74.111182 
1059.000000	73.858213 
1058.000000	73.620836 
1057.000000	73.391108 
1056.000000	73.165049 
1055.000000	72.948625 
1054.000000	72.739987 
1053.000000	72.526585 
1052.000000	72.307473 
1051.000000	72.097048 
1050.000000	71.898453 
1049.000000	71.696879 
1048.000000	71.486805 
1047.000000	71.280113 
1046.000000	71.080860 
1045.000000	70.877350 
1044.000000	70.664280 
1043.000000	70.449784 
1042.000000	70.236476 
1041.000000	70.017745 
1040.000000	69.796951 
1039.000000	69.587812 
1038.000000	69.391727 
1037.000000	69.197879 
1036.000000	69.009289 
1035.000000	68.843891 
1034.000000	68.705238 
1033.000000	68.576957 
1032.000000	68.450944 
1031.000000	68.336547 
1030.000000	68.237563 
1029.000000	68.146087 
1028.000000	68.063814 
1027.000000	68.003103 
1026.000000	67.961125 
1025.000000	67.918275 
1024.000000	67.867662 
1023.000000	67.821207 
1022.000000	67.782482 
1021.000000	67.739898 
1020.000000	67.690847 
1019.000000	67.645815 
1018.000000	67.603865 
1017.000000	67.550808 
1016.000000	67.486623 
1015.000000	67.428394 
1014.000000	67.381424 
1013.000000	67.333746 
1012.000000	67.283230 
1011.000000	67.242844 
1010.000000	67.214549 
1009.000000	67.185768 
1008.000000	67.156816 
1007.000000	67.144156 
1006.000000	67.151165 
1005.000000	67.163204 
1004.000000	67.176520 
1003.000000	67.203775 
1002.000000	67.245382 
1001.000000	67.284582 
1000.000000	67.318159 
999.000000	 67.363730 
998.000000	 67.428509 
997.000000	 67.498192 
996.000000	 67.564689 
995.000000	 67.638466 
994.000000	 67.725097 
993.000000	 67.815299 
992.000000	 67.906098 
991.000000	 68.006980 
990.000000	 68.117946 
989.000000	 68.226423 
988.000000	 68.332637 
987.000000	 68.453124 
986.000000	 68.592734 
985.000000	 68.738559 
984.000000	 68.887529 
983.000000	 69.053651 
982.000000	 69.240494 
981.000000	 69.432696 
980.000000	 69.623100 
979.000000	 69.823371 
978.000000	 70.039010 
977.000000	 70.258799 
976.000000	 70.478365 
975.000000	 70.710679 
974.000000	 70.962988 
973.000000	 71.224595 
972.000000	 71.486484 
971.000000	 71.753338 
970.000000	 72.028182 
969.000000	 72.304407 
968.000000	 72.579900 
967.000000	 72.860857 
966.000000	 73.146274 
965.000000	 73.427065 
964.000000	 73.704572 
963.000000	 73.990698 
962.000000	 74.285867 
961.000000	 74.576297 
960.000000	 74.856618 
959.000000	 75.135271 
958.000000	 75.414034 
957.000000	 75.682791 
956.000000	 75.939223 
955.000000	 76.193929 
954.000000	 76.451222 
953.000000	 76.703469 
952.000000	 76.948354 
951.000000	 77.192376 
950.000000	 77.433291 
949.000000	 77.658862 
948.000000	 77.867885 
947.000000	 78.073692 
946.000000	 78.281836 
945.000000	 78.482425 
944.000000	 78.669723 
943.000000	 78.851389 
942.000000	 79.033130 
941.000000	 79.211338 
940.000000	 79.386358 
939.000000	 79.566330 
938.000000	 79.752410 
937.000000	 79.935749 
936.000000	 80.113924 
935.000000	 80.295280 
934.000000	 80.483220 
933.000000	 80.671300 
932.000000	 80.857203 
931.000000	 81.046102 
930.000000	 81.237037 
929.000000	 81.421319 
928.000000	 81.597838 
927.000000	 81.774863 
926.000000	 81.953425 
925.000000	 82.123434 
924.000000	 82.279337 
923.000000	 82.426058 
922.000000	 82.567669 
921.000000	 82.704124 
920.000000	 82.840375 
919.000000	 82.983655 
918.000000	 83.129645 
917.000000	 83.265766 
916.000000	 83.390499 
915.000000	 83.516261 
914.000000	 83.652344 
913.000000	 83.798850 
912.000000	 83.957674 
911.000000	 84.134165 
910.000000	 84.326495 
909.000000	 84.527912 
908.000000	 84.740339 
907.000000	 84.971585 
906.000000	 85.219522 
905.000000	 85.473408 
904.000000	 85.729499 
903.000000	 85.990511 
902.000000	 86.252253 
901.000000	 86.507429 
900.000000	 86.760738 
899.000000	 87.023251 
898.000000	 87.292793 
897.000000	 87.555998 
896.000000	 87.807839 
895.000000	 88.052253 
894.000000	 88.286241 
893.000000	 88.502164 
892.000000	 88.704912 
891.000000	 88.907489 
890.000000	 89.107553 
889.000000	 89.285027 
888.000000	 89.424391 
887.000000	 89.524585 
886.000000	 89.588927 
885.000000	 89.622953 
884.000000	 89.641681 
883.000000	 89.659612 
882.000000	 89.671740 
881.000000	 89.664252 
880.000000	 89.646397 
879.000000	 89.650365 
878.000000	 89.695483 
877.000000	 89.775097 
876.000000	 89.884065 
875.000000	 90.034884 
874.000000	 90.237652 
873.000000	 90.486238 
872.000000	 90.773095 
871.000000	 91.096639 
870.000000	 91.444258 
869.000000	 91.787235 
868.000000	 92.103426 
867.000000	 92.391722 
866.000000	 92.658419 
865.000000	 92.904007 
864.000000	 93.129892 
863.000000	 93.344534 
862.000000	 93.554372 
861.000000	 93.757879 
860.000000	 93.953854 
859.000000	 94.146023 
858.000000	 94.335275 
857.000000	 94.516699 
856.000000	 94.687384 
855.000000	 94.848025 
854.000000	 94.995560 
853.000000	 95.124860 
852.000000	 95.239227 
851.000000	 95.348882 
850.000000	 95.458458 
849.000000	 95.566662 
848.000000	 95.676626 
847.000000	 95.792338 
846.000000	 95.905333 
845.000000	 96.001185 
844.000000	 96.080873 
843.000000	 96.159531 
842.000000	 96.241111 
841.000000	 96.310824 
840.000000	 96.357514 
839.000000	 96.387648 
838.000000	 96.411397 
837.000000	 96.429913 
836.000000	 96.443692 
835.000000	 96.459724 
834.000000	 96.481341 
833.000000	 96.502123 
832.000000	 96.518199 
831.000000	 96.536609 
830.000000	 96.563918 
829.000000	 96.596423 
828.000000	 96.629890 
827.000000	 96.669371 
826.000000	 96.720256 
825.000000	 96.777645 
824.000000	 96.831996 
823.000000	 96.876613 
822.000000	 96.904441 
821.000000	 96.908645 
820.000000	 96.891640 
819.000000	 96.863041 
818.000000	 96.823608 
817.000000	 96.758955 
816.000000	 96.652006 
815.000000	 96.494342 
814.000000	 96.283437 
813.000000	 96.016437 
812.000000	 95.688243 
811.000000	 95.286727 
810.000000	 94.787728 
809.000000	 94.166078 
808.000000	 93.418224 
807.000000	 92.568024 
806.000000	 91.648285 
805.000000	 90.686858 
804.000000	 89.714253 
803.000000	 88.769184 
802.000000	 87.886941 
801.000000	 87.095222 
800.000000	 86.427178 
799.000000	 85.919129 
798.000000	 85.584496 
797.000000	 85.405857 
796.000000	 85.358003 
795.000000	 85.418698 
794.000000	 85.553340 
793.000000	 85.715490 
792.000000	 85.873369 
791.000000	 86.017575 
790.000000	 86.137906 
789.000000	 86.212580 
788.000000	 86.224465 
787.000000	 86.167153 
786.000000	 86.030309 
785.000000	 85.800234 
784.000000	 85.482667 
783.000000	 85.107681 
782.000000	 84.707874 
781.000000	 84.312109 
780.000000	 83.963726 
779.000000	 83.716698 
778.000000	 83.600262 
777.000000	 83.606908 
776.000000	 83.721587 
775.000000	 83.937955 
774.000000	 84.238122 
773.000000	 84.584079 
772.000000	 84.943030 
771.000000	 85.301786 
770.000000	 85.649560 
769.000000	 85.969931 
768.000000	 86.258178 
767.000000	 86.523944 
766.000000	 86.767899 
765.000000	 86.978105 
764.000000	 87.159004 
763.000000	 87.340692 
762.000000	 87.546295 
761.000000	 87.769500 
760.000000	 87.995851 
759.000000	 88.225907 
758.000000	 88.464010 
757.000000	 88.703425 
756.000000	 88.938293 
755.000000	 89.174795 
754.000000	 89.414927 
753.000000	 89.641438 
752.000000	 89.833153 
751.000000	 89.987080 
750.000000	 90.116991 
749.000000	 90.240165 
748.000000	 90.372233 
747.000000	 90.522306 
746.000000	 90.683728 
745.000000	 90.839662 
744.000000	 90.985497 
743.000000	 91.136344 
742.000000	 91.306999 
741.000000	 91.495243 
740.000000	 91.689800 
739.000000	 91.882526 
738.000000	 92.066957 
737.000000	 92.236342 
736.000000	 92.389261 
735.000000	 92.528369 
734.000000	 92.650909 
733.000000	 92.750206 
732.000000	 92.827713 
731.000000	 92.893021 
730.000000	 92.950834 
729.000000	 92.998792 
728.000000	 93.040427 
727.000000	 93.087220 
726.000000	 93.145783 
725.000000	 93.216774 
724.000000	 93.305429 
723.000000	 93.417078 
722.000000	 93.541738 
721.000000	 93.659959 
720.000000	 93.766473 
719.000000	 93.870197 
718.000000	 93.969202 
717.000000	 94.048230 
716.000000	 94.104626 
715.000000	 94.157369 
714.000000	 94.225353 
713.000000	 94.313232 
712.000000	 94.423708 
711.000000	 94.562243 
710.000000	 94.719339 
709.000000	 94.866399 
708.000000	 94.981268 
707.000000	 95.064306 
706.000000	 95.119743 
705.000000	 95.138491 
704.000000	 95.108616 
703.000000	 95.024227 
702.000000	 94.873249 
701.000000	 94.629963 
700.000000	 94.272620 
699.000000	 93.805422 
698.000000	 93.262048 
697.000000	 92.706414 
696.000000	 92.232316 
695.000000	 91.932504 
694.000000	 91.850228 
693.000000	 91.963250 
692.000000	 92.213732 
691.000000	 92.543147 
690.000000	 92.900505 
689.000000	 93.246089 
688.000000	 93.563555 
687.000000	 93.854729 
686.000000	 94.116748 
685.000000	 94.338576 
684.000000	 94.522953 
683.000000	 94.691113 
682.000000	 94.856556 
681.000000	 95.013637 
680.000000	 95.157155 
679.000000	 95.294898 
678.000000	 95.426065 
677.000000	 95.533947 
676.000000	 95.620475 
675.000000	 95.712342 
674.000000	 95.823058 
673.000000	 95.936404 
672.000000	 96.036267 
671.000000	 96.142312 
670.000000	 96.298564 
669.000000	 96.524663 
668.000000	 96.730603 
667.000000	 96.808705 
666.000000	 96.798823 
665.000000	 96.767464 
664.000000	 96.744111 
663.000000	 96.749632 
662.000000	 96.794017 
661.000000	 96.849337 
660.000000	 96.892210 
659.000000	 96.927702 
658.000000	 96.959326 
657.000000	 96.964019 
656.000000	 96.934082 
655.000000	 96.894013 
654.000000	 96.857875 
653.000000	 96.808060 
652.000000	 96.743171 
651.000000	 96.706440 
650.000000	 96.729076 

