4000.000000	98.804938 
3999.000000	98.800422 
3998.000000	98.793948 
3997.000000	98.788689 
3996.000000	98.786193 
3995.000000	98.786404 
3994.000000	98.788209 
3993.000000	98.789904 
3992.000000	98.790038 
3991.000000	98.788269 
3990.000000	98.785511 
3989.000000	98.783359 
3988.000000	98.782805 
3987.000000	98.783685 
3986.000000	98.785061 
3985.000000	98.785906 
3984.000000	98.785627 
3983.000000	98.784310 
3982.000000	98.782748 
3981.000000	98.781941 
3980.000000	98.782180 
3979.000000	98.782656 
3978.000000	98.782238 
3977.000000	98.780569 
3976.000000	98.778236 
3975.000000	98.776004 
3974.000000	98.774109 
3973.000000	98.772391 
3972.000000	98.770810 
3971.000000	98.769530 
3970.000000	98.768700 
3969.000000	98.768305 
3968.000000	98.768113 
3967.000000	98.767734 
3966.000000	98.766842 
3965.000000	98.765456 
3964.000000	98.763931 
3963.000000	98.762695 
3962.000000	98.761951 
3961.000000	98.761601 
3960.000000	98.761403 
3959.000000	98.761146 
3958.000000	98.760822 
3957.000000	98.760605 
3956.000000	98.760529 
3955.000000	98.760279 
3954.000000	98.759430 
3953.000000	98.757883 
3952.000000	98.756010 
3951.000000	98.754476 
3950.000000	98.753782 
3949.000000	98.753867 
3948.000000	98.754045 
3947.000000	98.753592 
3946.000000	98.752418 
3945.000000	98.751043 
3944.000000	98.750055 
3943.000000	98.749686 
3942.000000	98.750013 
3941.000000	98.751328 
3940.000000	98.753791 
3939.000000	98.756506 
3938.000000	98.757835 
3937.000000	98.756749 
3936.000000	98.753353 
3935.000000	98.748522 
3934.000000	98.743529 
3933.000000	98.740186 
3932.000000	98.739959 
3931.000000	98.742460 
3930.000000	98.745374 
3929.000000	98.746586 
3928.000000	98.746318 
3927.000000	98.746208 
3926.000000	98.746643 
3925.000000	98.746352 
3924.000000	98.744846 
3923.000000	98.743364 
3922.000000	98.742441 
3921.000000	98.741109 
3920.000000	98.739540 
3919.000000	98.739693 
3918.000000	98.742215 
3917.000000	98.745168 
3916.000000	98.747060 
3915.000000	98.748818 
3914.000000	98.751250 
3913.000000	98.752762 
3912.000000	98.751797 
3911.000000	98.748535 
3910.000000	98.743884 
3909.000000	98.738379 
3908.000000	98.732303 
3907.000000	98.726765 
3906.000000	98.722677 
3905.000000	98.719853 
3904.000000	98.717450 
3903.000000	98.716193 
3902.000000	98.717996 
3901.000000	98.722683 
3900.000000	98.727398 
3899.000000	98.730111 
3898.000000	98.731528 
3897.000000	98.732731 
3896.000000	98.733388 
3895.000000	98.732983 
3894.000000	98.732341 
3893.000000	98.732326 
3892.000000	98.732364 
3891.000000	98.731459 
3890.000000	98.730151 
3889.000000	98.729555 
3888.000000	98.729515 
3887.000000	98.729401 
3886.000000	98.729062 
3885.000000	98.728712 
3884.000000	98.728538 
3883.000000	98.728463 
3882.000000	98.728359 
3881.000000	98.728228 
3880.000000	98.728098 
3879.000000	98.727969 
3878.000000	98.727833 
3877.000000	98.727684 
3876.000000	98.727521 
3875.000000	98.727356 
3874.000000	98.727218 
3873.000000	98.727143 
3872.000000	98.727149 
3871.000000	98.727232 
3870.000000	98.727382 
3869.000000	98.727602 
3868.000000	98.727904 
3867.000000	98.728275 
3866.000000	98.728671 
3865.000000	98.729063 
3864.000000	98.729451 
3863.000000	98.729833 
3862.000000	98.730188 
3861.000000	98.730495 
3860.000000	98.730758 
3859.000000	98.731001 
3858.000000	98.731250 
3857.000000	98.731536 
3856.000000	98.731891 
3855.000000	98.732344 
3854.000000	98.732886 
3853.000000	98.733487 
3852.000000	98.734154 
3851.000000	98.734936 
3850.000000	98.735834 
3849.000000	98.736800 
3848.000000	98.737775 
3847.000000	98.738721 
3846.000000	98.739631 
3845.000000	98.740524 
3844.000000	98.741429 
3843.000000	98.742362 
3842.000000	98.743324 
3841.000000	98.744313 
3840.000000	98.745334 
3839.000000	98.746388 
3838.000000	98.747468 
3837.000000	98.748570 
3836.000000	98.749698 
3835.000000	98.750855 
3834.000000	98.752033 
3833.000000	98.753214 
3832.000000	98.754378 
3831.000000	98.755509 
3830.000000	98.756602 
3829.000000	98.757660 
3828.000000	98.758690 
3827.000000	98.759699 
3826.000000	98.760690 
3825.000000	98.761675 
3824.000000	98.762674 
3823.000000	98.763699 
3822.000000	98.764734 
3821.000000	98.765753 
3820.000000	98.766755 
3819.000000	98.767768 
3818.000000	98.768795 
3817.000000	98.769800 
3816.000000	98.770749 
3815.000000	98.771638 
3814.000000	98.772482 
3813.000000	98.773281 
3812.000000	98.774011 
3811.000000	98.774665 
3810.000000	98.775252 
3809.000000	98.775765 
3808.000000	98.776174 
3807.000000	98.776475 
3806.000000	98.776714 
3805.000000	98.776963 
3804.000000	98.777263 
3803.000000	98.777594 
3802.000000	98.777901 
3801.000000	98.778138 
3800.000000	98.778302 
3799.000000	98.778413 
3798.000000	98.778463 
3797.000000	98.778433 
3796.000000	98.778315 
3795.000000	98.778112 
3794.000000	98.777828 
3793.000000	98.777469 
3792.000000	98.777039 
3791.000000	98.776539 
3790.000000	98.775966 
3789.000000	98.775319 
3788.000000	98.774606 
3787.000000	98.773846 
3786.000000	98.773049 
3785.000000	98.772212 
3784.000000	98.771337 
3783.000000	98.770429 
3782.000000	98.769478 
3781.000000	98.768457 
3780.000000	98.767351 
3779.000000	98.766168 
3778.000000	98.764924 
3777.000000	98.763626 
3776.000000	98.762275 
3775.000000	98.760888 
3774.000000	98.759494 
3773.000000	98.758109 
3772.000000	98.756725 
3771.000000	98.755324 
3770.000000	98.753904 
3769.000000	98.752482 
3768.000000	98.751075 
3767.000000	98.749699 
3766.000000	98.748383 
3765.000000	98.747128 
3764.000000	98.745950 
3763.000000	98.744908 
3762.000000	98.743892 
3761.000000	98.742569 
3760.000000	98.740835 
3759.000000	98.738980 
3758.000000	98.737341 
3757.000000	98.735930 
3756.000000	98.734585 
3755.000000	98.733144 
3754.000000	98.731437 
3753.000000	98.729660 
3752.000000	98.728581 
3751.000000	98.728576 
3750.000000	98.728590 
3749.000000	98.727460 
3748.000000	98.725867 
3747.000000	98.725197 
3746.000000	98.725828 
3745.000000	98.727022 
3744.000000	98.726878 
3743.000000	98.725755 
3742.000000	98.726634 
3741.000000	98.727883 
3740.000000	98.725755 
3739.000000	98.721109 
3738.000000	98.717549 
3737.000000	98.716524 
3736.000000	98.716587 
3735.000000	98.717397 
3734.000000	98.720467 
3733.000000	98.724725 
3732.000000	98.726233 
3731.000000	98.724159 
3730.000000	98.722151 
3729.000000	98.722245 
3728.000000	98.722277 
3727.000000	98.720573 
3726.000000	98.719207 
3725.000000	98.721592 
3724.000000	98.727350 
3723.000000	98.731756 
3722.000000	98.731450 
3721.000000	98.726955 
3720.000000	98.720971 
3719.000000	98.715359 
3718.000000	98.709940 
3717.000000	98.704617 
3716.000000	98.700638 
3715.000000	98.699093 
3714.000000	98.699730 
3713.000000	98.702900 
3712.000000	98.708166 
3711.000000	98.711571 
3710.000000	98.710142 
3709.000000	98.704868 
3708.000000	98.697119 
3707.000000	98.687395 
3706.000000	98.676704 
3705.000000	98.666722 
3704.000000	98.658222 
3703.000000	98.650916 
3702.000000	98.643299 
3701.000000	98.633571 
3700.000000	98.622665 
3699.000000	98.613207 
3698.000000	98.605319 
3697.000000	98.597653 
3696.000000	98.590755 
3695.000000	98.585969 
3694.000000	98.582030 
3693.000000	98.576120 
3692.000000	98.568341 
3691.000000	98.561414 
3690.000000	98.556165 
3689.000000	98.549879 
3688.000000	98.541221 
3687.000000	98.533788 
3686.000000	98.530188 
3685.000000	98.527755 
3684.000000	98.523209 
3683.000000	98.516647 
3682.000000	98.509292 
3681.000000	98.500891 
3680.000000	98.490692 
3679.000000	98.479924 
3678.000000	98.470795 
3677.000000	98.463633 
3676.000000	98.456586 
3675.000000	98.448029 
3674.000000	98.439402 
3673.000000	98.432372 
3672.000000	98.425981 
3671.000000	98.419002 
3670.000000	98.411429 
3669.000000	98.403624 
3668.000000	98.396055 
3667.000000	98.388788 
3666.000000	98.381435 
3665.000000	98.373844 
3664.000000	98.366256 
3663.000000	98.358823 
3662.000000	98.351147 
3661.000000	98.342586 
3660.000000	98.333323 
3659.000000	98.325008 
3658.000000	98.319295 
3657.000000	98.315188 
3656.000000	98.308707 
3655.000000	98.298268 
3654.000000	98.287277 
3653.000000	98.277560 
3652.000000	98.267764 
3651.000000	98.258934 
3650.000000	98.253374 
3649.000000	98.249078 
3648.000000	98.243351 
3647.000000	98.237917 
3646.000000	98.236310 
3645.000000	98.239304 
3644.000000	98.244334 
3643.000000	98.247985 
3642.000000	98.248139 
3641.000000	98.244124 
3640.000000	98.235367 
3639.000000	98.221099 
3638.000000	98.202331 
3637.000000	98.184755 
3636.000000	98.174866 
3635.000000	98.173117 
3634.000000	98.173702 
3633.000000	98.171849 
3632.000000	98.167591 
3631.000000	98.161430 
3630.000000	98.153888 
3629.000000	98.141934 
3628.000000	98.123578 
3627.000000	98.112581 
3626.000000	98.116913 
3625.000000	98.123628 
3624.000000	98.122457 
3623.000000	98.114608 
3622.000000	98.103267 
3621.000000	98.090302 
3620.000000	98.080198 
3619.000000	98.078549 
3618.000000	98.086128 
3617.000000	98.099566 
3616.000000	98.113331 
3615.000000	98.122808 
3614.000000	98.128335 
3613.000000	98.133609 
3612.000000	98.141381 
3611.000000	98.151254 
3610.000000	98.160712 
3609.000000	98.168342 
3608.000000	98.175511 
3607.000000	98.184310 
3606.000000	98.194817 
3605.000000	98.204518 
3604.000000	98.211242 
3603.000000	98.215723 
3602.000000	98.218988 
3601.000000	98.219825 
3600.000000	98.217274 
3599.000000	98.213228 
3598.000000	98.210112 
3597.000000	98.209399 
3596.000000	98.211866 
3595.000000	98.216350 
3594.000000	98.219673 
3593.000000	98.218917 
3592.000000	98.213240 
3591.000000	98.203380 
3590.000000	98.192578 
3589.000000	98.186777 
3588.000000	98.191032 
3587.000000	98.204431 
3586.000000	98.221475 
3585.000000	98.236405 
3584.000000	98.245168 
3583.000000	98.247220 
3582.000000	98.245529 
3581.000000	98.243508 
3580.000000	98.242592 
3579.000000	98.242369 
3578.000000	98.241925 
3577.000000	98.240881 
3576.000000	98.239673 
3575.000000	98.238653 
3574.000000	98.237423 
3573.000000	98.234908 
3572.000000	98.230165 
3571.000000	98.223114 
3570.000000	98.214877 
3569.000000	98.207774 
3568.000000	98.204674 
3567.000000	98.207143 
3566.000000	98.214042 
3565.000000	98.222188 
3564.000000	98.227898 
3563.000000	98.229420 
3562.000000	98.228177 
3561.000000	98.227085 
3560.000000	98.227661 
3559.000000	98.228968 
3558.000000	98.229091 
3557.000000	98.227123 
3556.000000	98.223888 
3555.000000	98.221184 
3554.000000	98.220355 
3553.000000	98.221285 
3552.000000	98.222553 
3551.000000	98.222668 
3550.000000	98.221132 
3549.000000	98.218580 
3548.000000	98.216280 
3547.000000	98.215281 
3546.000000	98.215661 
3545.000000	98.216698 
3544.000000	98.217721 
3543.000000	98.218378 
3542.000000	98.218406 
3541.000000	98.217665 
3540.000000	98.216359 
3539.000000	98.214922 
3538.000000	98.213680 
3537.000000	98.212789 
3536.000000	98.212287 
3535.000000	98.212092 
3534.000000	98.211967 
3533.000000	98.211658 
3532.000000	98.211119 
3531.000000	98.210522 
3530.000000	98.210034 
3529.000000	98.209642 
3528.000000	98.209254 
3527.000000	98.208871 
3526.000000	98.208569 
3525.000000	98.208359 
3524.000000	98.208166 
3523.000000	98.207893 
3522.000000	98.207496 
3521.000000	98.207025 
3520.000000	98.206605 
3519.000000	98.206351 
3518.000000	98.206233 
3517.000000	98.206003 
3516.000000	98.205385 
3515.000000	98.204340 
3514.000000	98.203070 
3513.000000	98.201880 
3512.000000	98.200987 
3511.000000	98.200457 
3510.000000	98.200223 
3509.000000	98.200097 
3508.000000	98.199878 
3507.000000	98.199498 
3506.000000	98.199019 
3505.000000	98.198578 
3504.000000	98.198265 
3503.000000	98.198053 
3502.000000	98.197843 
3501.000000	98.197550 
3500.000000	98.197177 
3499.000000	98.196779 
3498.000000	98.196410 
3497.000000	98.196074 
3496.000000	98.195739 
3495.000000	98.195372 
3494.000000	98.194978 
3493.000000	98.194585 
3492.000000	98.194208 
3491.000000	98.193829 
3490.000000	98.193422 
3489.000000	98.192984 
3488.000000	98.192539 
3487.000000	98.192104 
3486.000000	98.191668 
3485.000000	98.191203 
3484.000000	98.190704 
3483.000000	98.190192 
3482.000000	98.189692 
3481.000000	98.189212 
3480.000000	98.188741 
3479.000000	98.188265 
3478.000000	98.187761 
3477.000000	98.187198 
3476.000000	98.186555 
3475.000000	98.185849 
3474.000000	98.185135 
3473.000000	98.184466 
3472.000000	98.183859 
3471.000000	98.183259 
3470.000000	98.182552 
3469.000000	98.181690 
3468.000000	98.180806 
3467.000000	98.180106 
3466.000000	98.179607 
3465.000000	98.178978 
3464.000000	98.177781 
3463.000000	98.175969 
3462.000000	98.173929 
3461.000000	98.172255 
3460.000000	98.171322 
3459.000000	98.170976 
3458.000000	98.170625 
3457.000000	98.169654 
3456.000000	98.167976 
3455.000000	98.166117 
3454.000000	98.164786 
3453.000000	98.164247 
3452.000000	98.164252 
3451.000000	98.164444 
3450.000000	98.164606 
3449.000000	98.164462 
3448.000000	98.163565 
3447.000000	98.161621 
3446.000000	98.158934 
3445.000000	98.156296 
3444.000000	98.154367 
3443.000000	98.153274 
3442.000000	98.152657 
3441.000000	98.151952 
3440.000000	98.150739 
3439.000000	98.148933 
3438.000000	98.146746 
3437.000000	98.144544 
3436.000000	98.142755 
3435.000000	98.141823 
3434.000000	98.141935 
3433.000000	98.142667 
3432.000000	98.143172 
3431.000000	98.142965 
3430.000000	98.142303 
3429.000000	98.141616 
3428.000000	98.140828 
3427.000000	98.139547 
3426.000000	98.137919 
3425.000000	98.136806 
3424.000000	98.136836 
3423.000000	98.137382 
3422.000000	98.136961 
3421.000000	98.134981 
3420.000000	98.132779 
3419.000000	98.132490 
3418.000000	98.134886 
3417.000000	98.138570 
3416.000000	98.141161 
3415.000000	98.141288 
3414.000000	98.139221 
3413.000000	98.136359 
3412.000000	98.134163 
3411.000000	98.133302 
3410.000000	98.133395 
3409.000000	98.133374 
3408.000000	98.132359 
3407.000000	98.130319 
3406.000000	98.127953 
3405.000000	98.126041 
3404.000000	98.124907 
3403.000000	98.124266 
3402.000000	98.123454 
3401.000000	98.121975 
3400.000000	98.119959 
3399.000000	98.118017 
3398.000000	98.116593 
3397.000000	98.115586 
3396.000000	98.114646 
3395.000000	98.113643 
3394.000000	98.112742 
3393.000000	98.112195 
3392.000000	98.112267 
3391.000000	98.113243 
3390.000000	98.115173 
3389.000000	98.117515 
3388.000000	98.119362 
3387.000000	98.120209 
3386.000000	98.120257 
3385.000000	98.119828 
3384.000000	98.118801 
3383.000000	98.117147 
3382.000000	98.115957 
3381.000000	98.117030 
3380.000000	98.120965 
3379.000000	98.125933 
3378.000000	98.128978 
3377.000000	98.129014 
3376.000000	98.127788 
3375.000000	98.127988 
3374.000000	98.130366 
3373.000000	98.133177 
3372.000000	98.134181 
3371.000000	98.132757 
3370.000000	98.130097 
3369.000000	98.127930 
3368.000000	98.127012 
3367.000000	98.126825 
3366.000000	98.126586 
3365.000000	98.126351 
3364.000000	98.126838 
3363.000000	98.128217 
3362.000000	98.129615 
3361.000000	98.130145 
3360.000000	98.130127 
3359.000000	98.130785 
3358.000000	98.132870 
3357.000000	98.136066 
3356.000000	98.139634 
3355.000000	98.143089 
3354.000000	98.146055 
3353.000000	98.148057 
3352.000000	98.149056 
3351.000000	98.149955 
3350.000000	98.151936 
3349.000000	98.155038 
3348.000000	98.157764 
3347.000000	98.158567 
3346.000000	98.157494 
3345.000000	98.156085 
3344.000000	98.155636 
3343.000000	98.155899 
3342.000000	98.155795 
3341.000000	98.154903 
3340.000000	98.153700 
3339.000000	98.152563 
3338.000000	98.151330 
3337.000000	98.150014 
3336.000000	98.149385 
3335.000000	98.150348 
3334.000000	98.152786 
3333.000000	98.155588 
3332.000000	98.157897 
3331.000000	98.159823 
3330.000000	98.161886 
3329.000000	98.164070 
3328.000000	98.165759 
3327.000000	98.166602 
3326.000000	98.167043 
3325.000000	98.167806 
3324.000000	98.168969 
3323.000000	98.169839 
3322.000000	98.169808 
3321.000000	98.169058 
3320.000000	98.168369 
3319.000000	98.168414 
3318.000000	98.169325 
3317.000000	98.170795 
3316.000000	98.172311 
3315.000000	98.173370 
3314.000000	98.173740 
3313.000000	98.173589 
3312.000000	98.173362 
3311.000000	98.173461 
3310.000000	98.174029 
3309.000000	98.175011 
3308.000000	98.176240 
3307.000000	98.177459 
3306.000000	98.178423 
3305.000000	98.179100 
3304.000000	98.179724 
3303.000000	98.180580 
3302.000000	98.181707 
3301.000000	98.182833 
3300.000000	98.183611 
3299.000000	98.183887 
3298.000000	98.183835 
3297.000000	98.183829 
3296.000000	98.184094 
3295.000000	98.184700 
3294.000000	98.185698 
3293.000000	98.186917 
3292.000000	98.188013 
3291.000000	98.188801 
3290.000000	98.189496 
3289.000000	98.190425 
3288.000000	98.191596 
3287.000000	98.192670 
3286.000000	98.193307 
3285.000000	98.193472 
3284.000000	98.193434 
3283.000000	98.193509 
3282.000000	98.193784 
3281.000000	98.194065 
3280.000000	98.194046 
3279.000000	98.193595 
3278.000000	98.192998 
3277.000000	98.192887 
3276.000000	98.193733 
3275.000000	98.195324 
3274.000000	98.196880 
3273.000000	98.197814 
3272.000000	98.198303 
3271.000000	98.199043 
3270.000000	98.200542 
3269.000000	98.202680 
3268.000000	98.204763 
3267.000000	98.205927 
3266.000000	98.205744 
3265.000000	98.204656 
3264.000000	98.203732 
3263.000000	98.203704 
3262.000000	98.204358 
3261.000000	98.205108 
3260.000000	98.205934 
3259.000000	98.207278 
3258.000000	98.209001 
3257.000000	98.209885 
3256.000000	98.208517 
3255.000000	98.204584 
3254.000000	98.199519 
3253.000000	98.196077 
3252.000000	98.196700 
3251.000000	98.201965 
3250.000000	98.210028 
3249.000000	98.217389 
3248.000000	98.221556 
3247.000000	98.222717 
3246.000000	98.222988 
3245.000000	98.224397 
3244.000000	98.227250 
3243.000000	98.230473 
3242.000000	98.233014 
3241.000000	98.234603 
3240.000000	98.235477 
3239.000000	98.236010 
3238.000000	98.236685 
3237.000000	98.237964 
3236.000000	98.239876 
3235.000000	98.241883 
3234.000000	98.243399 
3233.000000	98.244419 
3232.000000	98.245515 
3231.000000	98.247188 
3230.000000	98.249327 
3229.000000	98.251273 
3228.000000	98.252426 
3227.000000	98.252855 
3226.000000	98.253363 
3225.000000	98.254824 
3224.000000	98.257407 
3223.000000	98.260418 
3222.000000	98.262927 
3221.000000	98.264548 
3220.000000	98.265597 
3219.000000	98.266682 
3218.000000	98.268182 
3217.000000	98.270053 
3216.000000	98.271971 
3215.000000	98.273666 
3214.000000	98.275142 
3213.000000	98.276608 
3212.000000	98.278210 
3211.000000	98.279955 
3210.000000	98.281846 
3209.000000	98.283799 
3208.000000	98.285320 
3207.000000	98.285615 
3206.000000	98.284448 
3205.000000	98.282961 
3204.000000	98.282632 
3203.000000	98.283678 
3202.000000	98.285450 
3201.000000	98.287655 
3200.000000	98.290697 
3199.000000	98.294818 
3198.000000	98.299371 
3197.000000	98.303092 
3196.000000	98.304867 
3195.000000	98.304478 
3194.000000	98.303038 
3193.000000	98.302293 
3192.000000	98.302834 
3191.000000	98.303338 
3190.000000	98.302223 
3189.000000	98.299794 
3188.000000	98.298052 
3187.000000	98.298699 
3186.000000	98.302229 
3185.000000	98.308307 
3184.000000	98.315766 
3183.000000	98.322759 
3182.000000	98.328262 
3181.000000	98.333347 
3180.000000	98.339568 
3179.000000	98.345994 
3178.000000	98.349477 
3177.000000	98.348324 
3176.000000	98.344466 
3175.000000	98.341623 
3174.000000	98.342041 
3173.000000	98.345497 
3172.000000	98.350188 
3171.000000	98.354050 
3170.000000	98.355771 
3169.000000	98.354848 
3168.000000	98.351964 
3167.000000	98.348844 
3166.000000	98.346915 
3165.000000	98.347068 
3164.000000	98.349113 
3163.000000	98.351617 
3162.000000	98.353175 
3161.000000	98.353500 
3160.000000	98.353099 
3159.000000	98.352463 
3158.000000	98.352139 
3157.000000	98.353004 
3156.000000	98.355535 
3155.000000	98.359072 
3154.000000	98.362640 
3153.000000	98.366168 
3152.000000	98.370031 
3151.000000	98.373749 
3150.000000	98.376220 
3149.000000	98.377201 
3148.000000	98.377711 
3147.000000	98.379035 
3146.000000	98.381928 
3145.000000	98.386313 
3144.000000	98.390894 
3143.000000	98.393703 
3142.000000	98.394272 
3141.000000	98.394756 
3140.000000	98.397562 
3139.000000	98.402453 
3138.000000	98.407578 
3137.000000	98.412585 
3136.000000	98.418269 
3135.000000	98.423396 
3134.000000	98.424915 
3133.000000	98.422380 
3132.000000	98.420146 
3131.000000	98.424236 
3130.000000	98.438644 
3129.000000	98.464347 
3128.000000	98.497583 
3127.000000	98.527324 
3126.000000	98.539802 
3125.000000	98.529311 
3124.000000	98.503964 
3123.000000	98.480019 
3122.000000	98.466978 
3121.000000	98.461675 
3120.000000	98.456350 
3119.000000	98.447796 
3118.000000	98.438555 
3117.000000	98.432482 
3116.000000	98.431050 
3115.000000	98.432640 
3114.000000	98.434039 
3113.000000	98.433359 
3112.000000	98.432143 
3111.000000	98.433810 
3110.000000	98.439633 
3109.000000	98.447136 
3108.000000	98.452723 
3107.000000	98.454930 
3106.000000	98.454579 
3105.000000	98.452992 
3104.000000	98.451129 
3103.000000	98.449737 
3102.000000	98.449054 
3101.000000	98.448427 
3100.000000	98.446917 
3099.000000	98.444315 
3098.000000	98.441372 
3097.000000	98.439297 
3096.000000	98.439137 
3095.000000	98.441180 
3094.000000	98.444569 
3093.000000	98.447632 
3092.000000	98.448865 
3091.000000	98.447737 
3090.000000	98.444866 
3089.000000	98.441756 
3088.000000	98.440167 
3087.000000	98.441070 
3086.000000	98.443892 
3085.000000	98.447109 
3084.000000	98.449593 
3083.000000	98.450974 
3082.000000	98.451385 
3081.000000	98.451331 
3080.000000	98.451235 
3079.000000	98.451241 
3078.000000	98.451197 
3077.000000	98.451346 
3076.000000	98.452746 
3075.000000	98.456143 
3074.000000	98.460599 
3073.000000	98.463950 
3072.000000	98.464721 
3071.000000	98.462977 
3070.000000	98.459794 
3069.000000	98.456831 
3068.000000	98.456086 
3067.000000	98.458632 
3066.000000	98.463037 
3065.000000	98.466025 
3064.000000	98.465357 
3063.000000	98.461527 
3062.000000	98.456809 
3061.000000	98.453620 
3060.000000	98.453493 
3059.000000	98.456177 
3058.000000	98.459647 
3057.000000	98.462060 
3056.000000	98.463462 
3055.000000	98.464665 
3054.000000	98.465204 
3053.000000	98.464224 
3052.000000	98.462807 
3051.000000	98.463051 
3050.000000	98.464839 
3049.000000	98.465721 
3048.000000	98.464205 
3047.000000	98.460967 
3046.000000	98.456548 
3045.000000	98.450389 
3044.000000	98.443271 
3043.000000	98.438569 
3042.000000	98.439368 
3041.000000	98.444900 
3040.000000	98.450585 
3039.000000	98.451181 
3038.000000	98.443854 
3037.000000	98.429830 
3036.000000	98.414071 
3035.000000	98.402099 
3034.000000	98.396099 
3033.000000	98.394289 
3032.000000	98.393625 
3031.000000	98.392003 
3030.000000	98.388123 
3029.000000	98.381186 
3028.000000	98.371614 
3027.000000	98.360892 
3026.000000	98.349896 
3025.000000	98.338166 
3024.000000	98.325353 
3023.000000	98.312501 
3022.000000	98.301526 
3021.000000	98.294186 
3020.000000	98.291088 
3019.000000	98.289851 
3018.000000	98.284238 
3017.000000	98.267996 
3016.000000	98.241429 
3015.000000	98.213106 
3014.000000	98.193177 
3013.000000	98.184893 
3012.000000	98.182912 
3011.000000	98.178314 
3010.000000	98.165092 
3009.000000	98.143651 
3008.000000	98.119619 
3007.000000	98.098586 
3006.000000	98.081354 
3005.000000	98.065540 
3004.000000	98.051684 
3003.000000	98.044752 
3002.000000	98.047616 
3001.000000	98.055102 
3000.000000	98.057109 
2999.000000	98.047070 
2998.000000	98.025801 
2997.000000	97.998946 
2996.000000	97.973038 
2995.000000	97.952643 
2994.000000	97.938003 
2993.000000	97.924874 
2992.000000	97.908668 
2991.000000	97.889348 
2990.000000	97.871231 
2989.000000	97.858639 
2988.000000	97.853464 
2987.000000	97.855987 
2986.000000	97.865199 
2985.000000	97.877652 
2984.000000	97.888105 
2983.000000	97.893002 
2982.000000	97.892966 
2981.000000	97.891481 
2980.000000	97.891616 
2979.000000	97.893827 
2978.000000	97.896021 
2977.000000	97.895577 
2976.000000	97.892008 
2975.000000	97.887861 
2974.000000	97.886664 
2973.000000	97.890247 
2972.000000	97.898205 
2971.000000	97.908858 
2970.000000	97.919731 
2969.000000	97.928151 
2968.000000	97.932792 
2967.000000	97.934609 
2966.000000	97.935893 
2965.000000	97.938873 
2964.000000	97.945332 
2963.000000	97.955976 
2962.000000	97.969003 
2961.000000	97.980587 
2960.000000	97.988458 
2959.000000	97.994281 
2958.000000	98.000975 
2957.000000	98.008543 
2956.000000	98.014327 
2955.000000	98.016901 
2954.000000	98.018046 
2953.000000	98.021262 
2952.000000	98.029690 
2951.000000	98.044405 
2950.000000	98.062496 
2949.000000	98.077393 
2948.000000	98.083767 
2947.000000	98.082504 
2946.000000	98.079505 
2945.000000	98.079287 
2944.000000	98.081376 
2943.000000	98.083484 
2942.000000	98.085521 
2941.000000	98.088706 
2940.000000	98.092532 
2939.000000	98.094838 
2938.000000	98.094421 
2937.000000	98.092079 
2936.000000	98.089261 
2935.000000	98.086637 
2934.000000	98.084099 
2933.000000	98.081457 
2932.000000	98.078769 
2931.000000	98.076336 
2930.000000	98.074716 
2929.000000	98.074687 
2928.000000	98.076719 
2927.000000	98.080031 
2926.000000	98.082400 
2925.000000	98.081879 
2924.000000	98.079091 
2923.000000	98.076904 
2922.000000	98.077175 
2921.000000	98.078572 
2920.000000	98.078563 
2919.000000	98.076766 
2918.000000	98.074887 
2917.000000	98.073644 
2916.000000	98.071571 
2915.000000	98.067395 
2914.000000	98.062333 
2913.000000	98.058941 
2912.000000	98.058122 
2911.000000	98.058204 
2910.000000	98.057101 
2909.000000	98.054837 
2908.000000	98.053469 
2907.000000	98.054418 
2906.000000	98.056282 
2905.000000	98.055667 
2904.000000	98.050463 
2903.000000	98.042530 
2902.000000	98.037107 
2901.000000	98.039145 
2900.000000	98.049654 
2899.000000	98.064568 
2898.000000	98.077199 
2897.000000	98.083374 
2896.000000	98.084416 
2895.000000	98.085009 
2894.000000	98.088569 
2893.000000	98.095152 
2892.000000	98.103150 
2891.000000	98.111352 
2890.000000	98.119083 
2889.000000	98.125942 
2888.000000	98.132214 
2887.000000	98.138351 
2886.000000	98.143389 
2885.000000	98.145520 
2884.000000	98.145412 
2883.000000	98.147150 
2882.000000	98.153671 
2881.000000	98.162397 
2880.000000	98.167936 
2879.000000	98.169246 
2878.000000	98.171436 
2877.000000	98.179571 
2876.000000	98.193100 
2875.000000	98.207051 
2874.000000	98.217184 
2873.000000	98.222854 
2872.000000	98.225873 
2871.000000	98.228743 
2870.000000	98.233477 
2869.000000	98.240531 
2868.000000	98.248533 
2867.000000	98.255737 
2866.000000	98.261815 
2865.000000	98.267712 
2864.000000	98.274194 
2863.000000	98.281526 
2862.000000	98.290254 
2861.000000	98.300907 
2860.000000	98.312646 
2859.000000	98.323418 
2858.000000	98.332065 
2857.000000	98.339628 
2856.000000	98.347987 
2855.000000	98.357645 
2854.000000	98.367512 
2853.000000	98.376508 
2852.000000	98.384509 
2851.000000	98.391766 
2850.000000	98.398145 
2849.000000	98.403308 
2848.000000	98.407598 
2847.000000	98.412441 
2846.000000	98.419297 
2845.000000	98.427886 
2844.000000	98.435898 
2843.000000	98.441103 
2842.000000	98.443641 
2841.000000	98.445737 
2840.000000	98.449286 
2839.000000	98.454518 
2838.000000	98.460816 
2837.000000	98.467641 
2836.000000	98.474376 
2835.000000	98.480186 
2834.000000	98.484845 
2833.000000	98.489445 
2832.000000	98.495326 
2831.000000	98.502535 
2830.000000	98.509804 
2829.000000	98.515728 
2828.000000	98.519752 
2827.000000	98.522406 
2826.000000	98.524815 
2825.000000	98.527665 
2824.000000	98.530537 
2823.000000	98.532511 
2822.000000	98.533325 
2821.000000	98.533516 
2820.000000	98.533460 
2819.000000	98.532835 
2818.000000	98.531320 
2817.000000	98.529395 
2816.000000	98.528094 
2815.000000	98.528213 
2814.000000	98.529857 
2813.000000	98.532422 
2812.000000	98.534729 
2811.000000	98.535581 
2810.000000	98.534746 
2809.000000	98.533427 
2808.000000	98.533491 
2807.000000	98.536019 
2806.000000	98.540518 
2805.000000	98.545246 
2804.000000	98.548262 
2803.000000	98.548626 
2802.000000	98.547152 
2801.000000	98.545986 
2800.000000	98.546994 
2799.000000	98.550251 
2798.000000	98.554027 
2797.000000	98.556343 
2796.000000	98.556724 
2795.000000	98.556367 
2794.000000	98.556732 
2793.000000	98.558174 
2792.000000	98.559933 
2791.000000	98.561163 
2790.000000	98.561696 
2789.000000	98.561896 
2788.000000	98.562093 
2787.000000	98.562350 
2786.000000	98.562693 
2785.000000	98.563303 
2784.000000	98.564378 
2783.000000	98.565872 
2782.000000	98.567473 
2781.000000	98.568875 
2780.000000	98.570033 
2779.000000	98.571094 
2778.000000	98.572103 
2777.000000	98.572908 
2776.000000	98.573430 
2775.000000	98.573917 
2774.000000	98.574723 
2773.000000	98.575878 
2772.000000	98.577120 
2771.000000	98.578428 
2770.000000	98.580239 
2769.000000	98.582884 
2768.000000	98.585982 
2767.000000	98.588664 
2766.000000	98.590343 
2765.000000	98.590953 
2764.000000	98.590569 
2763.000000	98.589274 
2762.000000	98.587607 
2761.000000	98.586744 
2760.000000	98.587642 
2759.000000	98.590063 
2758.000000	98.592621 
2757.000000	98.594097 
2756.000000	98.594727 
2755.000000	98.596010 
2754.000000	98.599243 
2753.000000	98.604149 
2752.000000	98.608761 
2751.000000	98.611083 
2750.000000	98.610795 
2749.000000	98.609324 
2748.000000	98.608358 
2747.000000	98.608346 
2746.000000	98.608884 
2745.000000	98.609876 
2744.000000	98.611556 
2743.000000	98.613574 
2742.000000	98.614895 
2741.000000	98.614936 
2740.000000	98.614226 
2739.000000	98.613599 
2738.000000	98.613169 
2737.000000	98.612568 
2736.000000	98.611838 
2735.000000	98.611507 
2734.000000	98.611835 
2733.000000	98.612445 
2732.000000	98.612834 
2731.000000	98.612988 
2730.000000	98.613374 
2729.000000	98.614472 
2728.000000	98.616299 
2727.000000	98.618255 
2726.000000	98.619522 
2725.000000	98.619823 
2724.000000	98.619756 
2723.000000	98.620144 
2722.000000	98.621109 
2721.000000	98.622093 
2720.000000	98.622741 
2719.000000	98.623313 
2718.000000	98.624087 
2717.000000	98.624839 
2716.000000	98.625255 
2715.000000	98.625547 
2714.000000	98.626215 
2713.000000	98.627310 
2712.000000	98.628324 
2711.000000	98.628831 
2710.000000	98.628953 
2709.000000	98.629082 
2708.000000	98.629449 
2707.000000	98.630081 
2706.000000	98.630974 
2705.000000	98.632098 
2704.000000	98.633264 
2703.000000	98.634176 
2702.000000	98.634674 
2701.000000	98.634887 
2700.000000	98.635160 
2699.000000	98.635801 
2698.000000	98.636879 
2697.000000	98.638146 
2696.000000	98.639156 
2695.000000	98.639632 
2694.000000	98.639694 
2693.000000	98.639731 
2692.000000	98.639971 
2691.000000	98.640297 
2690.000000	98.640458 
2689.000000	98.640357 
2688.000000	98.640116 
2687.000000	98.639992 
2686.000000	98.640200 
2685.000000	98.640761 
2684.000000	98.641434 
2683.000000	98.641861 
2682.000000	98.641898 
2681.000000	98.641758 
2680.000000	98.641759 
2679.000000	98.642002 
2678.000000	98.642353 
2677.000000	98.642688 
2676.000000	98.643002 
2675.000000	98.643255 
2674.000000	98.643297 
2673.000000	98.643052 
2672.000000	98.642630 
2671.000000	98.642233 
2670.000000	98.641947 
2669.000000	98.641717 
2668.000000	98.641504 
2667.000000	98.641355 
2666.000000	98.641299 
2665.000000	98.641272 
2664.000000	98.641212 
2663.000000	98.641109 
2662.000000	98.640945 
2661.000000	98.640683 
2660.000000	98.640304 
2659.000000	98.639878 
2658.000000	98.639489 
2657.000000	98.639097 
2656.000000	98.638597 
2655.000000	98.637967 
2654.000000	98.637320 
2653.000000	98.636798 
2652.000000	98.636444 
2651.000000	98.636205 
2650.000000	98.636001 
2649.000000	98.635758 
2648.000000	98.635446 
2647.000000	98.635117 
2646.000000	98.634862 
2645.000000	98.634665 
2644.000000	98.634346 
2643.000000	98.633747 
2642.000000	98.632996 
2641.000000	98.632471 
2640.000000	98.632441 
2639.000000	98.632822 
2638.000000	98.633266 
2637.000000	98.633446 
2636.000000	98.633215 
2635.000000	98.632580 
2634.000000	98.631688 
2633.000000	98.630821 
2632.000000	98.630249 
2631.000000	98.630018 
2630.000000	98.629890 
2629.000000	98.629563 
2628.000000	98.628967 
2627.000000	98.628338 
2626.000000	98.628070 
2625.000000	98.628494 
2624.000000	98.629757 
2623.000000	98.631713 
2622.000000	98.633752 
2621.000000	98.634884 
2620.000000	98.634374 
2619.000000	98.632204 
2618.000000	98.629207 
2617.000000	98.626704 
2616.000000	98.625608 
2615.000000	98.626084 
2614.000000	98.627599 
2613.000000	98.629258 
2612.000000	98.630403 
2611.000000	98.630980 
2610.000000	98.631489 
2609.000000	98.632473 
2608.000000	98.633903 
2607.000000	98.635172 
2606.000000	98.635776 
2605.000000	98.635809 
2604.000000	98.635634 
2603.000000	98.635361 
2602.000000	98.634972 
2601.000000	98.634721 
2600.000000	98.634939 
2599.000000	98.635447 
2598.000000	98.635627 
2597.000000	98.635181 
2596.000000	98.634477 
2595.000000	98.634018 
2594.000000	98.633939 
2593.000000	98.634128 
2592.000000	98.634477 
2591.000000	98.634797 
2590.000000	98.634870 
2589.000000	98.634885 
2588.000000	98.635456 
2587.000000	98.636881 
2586.000000	98.638651 
2585.000000	98.640019 
2584.000000	98.640847 
2583.000000	98.641473 
2582.000000	98.641978 
2581.000000	98.642127 
2580.000000	98.642029 
2579.000000	98.642359 
2578.000000	98.643760 
2577.000000	98.646160 
2576.000000	98.648765 
2575.000000	98.650825 
2574.000000	98.652163 
2573.000000	98.653082 
2572.000000	98.653875 
2571.000000	98.654296 
2570.000000	98.653877 
2569.000000	98.652820 
2568.000000	98.652167 
2567.000000	98.652702 
2566.000000	98.654099 
2565.000000	98.655378 
2564.000000	98.656050 
2563.000000	98.656524 
2562.000000	98.657397 
2561.000000	98.658812 
2560.000000	98.660493 
2559.000000	98.662024 
2558.000000	98.663069 
2557.000000	98.663528 
2556.000000	98.663690 
2555.000000	98.664057 
2554.000000	98.664817 
2553.000000	98.665628 
2552.000000	98.666030 
2551.000000	98.666029 
2550.000000	98.665986 
2549.000000	98.666132 
2548.000000	98.666369 
2547.000000	98.666516 
2546.000000	98.666501 
2545.000000	98.666362 
2544.000000	98.666186 
2543.000000	98.666041 
2542.000000	98.665927 
2541.000000	98.665792 
2540.000000	98.665590 
2539.000000	98.665308 
2538.000000	98.664941 
2537.000000	98.664469 
2536.000000	98.663900 
2535.000000	98.663333 
2534.000000	98.662948 
2533.000000	98.662859 
2532.000000	98.662938 
2531.000000	98.662839 
2530.000000	98.662303 
2529.000000	98.661367 
2528.000000	98.660252 
2527.000000	98.659159 
2526.000000	98.658263 
2525.000000	98.657710 
2524.000000	98.657453 
2523.000000	98.657140 
2522.000000	98.656489 
2521.000000	98.655693 
2520.000000	98.655154 
2519.000000	98.654811 
2518.000000	98.654090 
2517.000000	98.652685 
2516.000000	98.651072 
2515.000000	98.650032 
2514.000000	98.649851 
2513.000000	98.650297 
2512.000000	98.650987 
2511.000000	98.651464 
2510.000000	98.651112 
2509.000000	98.649523 
2508.000000	98.647053 
2507.000000	98.644705 
2506.000000	98.643127 
2505.000000	98.642156 
2504.000000	98.641458 
2503.000000	98.641222 
2502.000000	98.641863 
2501.000000	98.643419 
2500.000000	98.645483 
2499.000000	98.647406 
2498.000000	98.648523 
2497.000000	98.648504 
2496.000000	98.647669 
2495.000000	98.646784 
2494.000000	98.646250 
2493.000000	98.645811 
2492.000000	98.645225 
2491.000000	98.644806 
2490.000000	98.644991 
2489.000000	98.645591 
2488.000000	98.645854 
2487.000000	98.645328 
2486.000000	98.644379 
2485.000000	98.643813 
2484.000000	98.644049 
2483.000000	98.644856 
2482.000000	98.645681 
2481.000000	98.646170 
2480.000000	98.646329 
2479.000000	98.646265 
2478.000000	98.645934 
2477.000000	98.645239 
2476.000000	98.644365 
2475.000000	98.643865 
2474.000000	98.644240 
2473.000000	98.645498 
2472.000000	98.647098 
2471.000000	98.648260 
2470.000000	98.648471 
2469.000000	98.647725 
2468.000000	98.646541 
2467.000000	98.645720 
2466.000000	98.645839 
2465.000000	98.646949 
2464.000000	98.648674 
2463.000000	98.650473 
2462.000000	98.651903 
2461.000000	98.652807 
2460.000000	98.653406 
2459.000000	98.654088 
2458.000000	98.654873 
2457.000000	98.655130 
2456.000000	98.654174 
2455.000000	98.652149 
2454.000000	98.650087 
2453.000000	98.648978 
2452.000000	98.648967 
2451.000000	98.649504 
2450.000000	98.650126 
2449.000000	98.650936 
2448.000000	98.652244 
2447.000000	98.653952 
2446.000000	98.655435 
2445.000000	98.655916 
2444.000000	98.654850 
2443.000000	98.652290 
2442.000000	98.649341 
2441.000000	98.647897 
2440.000000	98.649154 
2439.000000	98.652591 
2438.000000	98.656471 
2437.000000	98.659609 
2436.000000	98.662016 
2435.000000	98.663785 
2434.000000	98.664474 
2433.000000	98.663982 
2432.000000	98.663254 
2431.000000	98.663391 
2430.000000	98.664457 
2429.000000	98.665699 
2428.000000	98.666636 
2427.000000	98.667405 
2426.000000	98.668301 
2425.000000	98.669609 
2424.000000	98.671675 
2423.000000	98.674353 
2422.000000	98.676585 
2421.000000	98.677778 
2420.000000	98.679059 
2419.000000	98.681884 
2418.000000	98.685615 
2417.000000	98.688052 
2416.000000	98.688191 
2415.000000	98.687512 
2414.000000	98.688328 
2413.000000	98.691359 
2412.000000	98.695442 
2411.000000	98.698733 
2410.000000	98.699955 
2409.000000	98.699113 
2408.000000	98.697482 
2407.000000	98.696563 
2406.000000	98.696658 
2405.000000	98.696829 
2404.000000	98.696209 
2403.000000	98.694857 
2402.000000	98.693391 
2401.000000	98.692502 
2400.000000	98.692914 
2399.000000	98.694991 
2398.000000	98.697998 
2397.000000	98.700347 
2396.000000	98.701091 
2395.000000	98.700674 
2394.000000	98.700040 
2393.000000	98.699698 
2392.000000	98.700036 
2391.000000	98.701706 
2390.000000	98.704753 
2389.000000	98.707806 
2388.000000	98.709122 
2387.000000	98.708304 
2386.000000	98.706311 
2385.000000	98.704194 
2384.000000	98.702528 
2383.000000	98.701583 
2382.000000	98.700857 
2381.000000	98.698610 
2380.000000	98.693172 
2379.000000	98.685040 
2378.000000	98.677482 
2377.000000	98.673895 
2376.000000	98.674980 
2375.000000	98.679032 
2374.000000	98.683508 
2373.000000	98.686509 
2372.000000	98.687086 
2371.000000	98.685252 
2370.000000	98.682007 
2369.000000	98.678477 
2368.000000	98.674965 
2367.000000	98.671550 
2366.000000	98.669097 
2365.000000	98.668591 
2364.000000	98.669741 
2363.000000	98.671031 
2362.000000	98.671269 
2361.000000	98.670505 
2360.000000	98.669512 
2359.000000	98.668889 
2358.000000	98.668477 
2357.000000	98.667772 
2356.000000	98.666583 
2355.000000	98.665259 
2354.000000	98.663953 
2353.000000	98.662773 
2352.000000	98.662107 
2351.000000	98.662119 
2350.000000	98.662434 
2349.000000	98.662531 
2348.000000	98.662342 
2347.000000	98.662136 
2346.000000	98.662169 
2345.000000	98.662477 
2344.000000	98.662866 
2343.000000	98.663213 
2342.000000	98.663524 
2341.000000	98.663918 
2340.000000	98.664538 
2339.000000	98.665424 
2338.000000	98.666510 
2337.000000	98.667635 
2336.000000	98.668736 
2335.000000	98.669789 
2334.000000	98.670742 
2333.000000	98.671543 
2332.000000	98.672426 
2331.000000	98.673621 
2330.000000	98.675106 
2329.000000	98.676412 
2328.000000	98.677577 
2327.000000	98.678845 
2326.000000	98.680217 
2325.000000	98.681413 
2324.000000	98.682487 
2323.000000	98.683787 
2322.000000	98.685194 
2321.000000	98.686254 
2320.000000	98.687355 
2319.000000	98.689212 
2318.000000	98.691824 
2317.000000	98.693572 
2316.000000	98.693516 
2315.000000	98.691829 
2314.000000	98.690227 
2313.000000	98.689753 
2312.000000	98.691379 
2311.000000	98.695098 
2310.000000	98.700356 
2309.000000	98.705239 
2308.000000	98.708514 
2307.000000	98.709990 
2306.000000	98.710922 
2305.000000	98.712389 
2304.000000	98.715275 
2303.000000	98.719248 
2302.000000	98.723329 
2301.000000	98.725587 
2300.000000	98.724935 
2299.000000	98.721024 
2298.000000	98.715093 
2297.000000	98.708949 
2296.000000	98.704469 
2295.000000	98.702556 
2294.000000	98.703493 
2293.000000	98.706105 
2292.000000	98.708508 
2291.000000	98.708893 
2290.000000	98.706762 
2289.000000	98.703634 
2288.000000	98.701461 
2287.000000	98.700816 
2286.000000	98.700888 
2285.000000	98.700709 
2284.000000	98.700039 
2283.000000	98.699171 
2282.000000	98.698375 
2281.000000	98.697672 
2280.000000	98.696953 
2279.000000	98.696163 
2278.000000	98.695346 
2277.000000	98.694603 
2276.000000	98.693999 
2275.000000	98.693501 
2274.000000	98.693031 
2273.000000	98.692560 
2272.000000	98.692105 
2271.000000	98.691677 
2270.000000	98.691262 
2269.000000	98.690847 
2268.000000	98.690418 
2267.000000	98.689969 
2266.000000	98.689496 
2265.000000	98.688997 
2264.000000	98.688473 
2263.000000	98.687929 
2262.000000	98.687368 
2261.000000	98.686789 
2260.000000	98.686197 
2259.000000	98.685611 
2258.000000	98.685064 
2257.000000	98.684597 
2256.000000	98.684243 
2255.000000	98.683988 
2254.000000	98.683753 
2253.000000	98.683415 
2252.000000	98.682878 
2251.000000	98.682132 
2250.000000	98.681236 
2249.000000	98.680276 
2248.000000	98.679315 
2247.000000	98.678372 
2246.000000	98.677411 
2245.000000	98.676349 
2244.000000	98.675122 
2243.000000	98.673739 
2242.000000	98.672288 
2241.000000	98.670868 
2240.000000	98.669538 
2239.000000	98.668299 
2238.000000	98.667118 
2237.000000	98.665951 
2236.000000	98.664751 
2235.000000	98.663497 
2234.000000	98.662191 
2233.000000	98.660851 
2232.000000	98.659483 
2231.000000	98.658074 
2230.000000	98.656607 
2229.000000	98.655075 
2228.000000	98.653489 
2227.000000	98.651871 
2226.000000	98.650237 
2225.000000	98.648583 
2224.000000	98.646901 
2223.000000	98.645191 
2222.000000	98.643463 
2221.000000	98.641729 
2220.000000	98.639995 
2219.000000	98.638263 
2218.000000	98.636545 
2217.000000	98.634847 
2216.000000	98.633170 
2215.000000	98.631498 
2214.000000	98.629817 
2213.000000	98.628115 
2212.000000	98.626419 
2211.000000	98.624823 
2210.000000	98.623458 
2209.000000	98.622373 
2208.000000	98.621405 
2207.000000	98.620297 
2206.000000	98.618927 
2205.000000	98.617597 
2204.000000	98.616795 
2203.000000	98.616699 
2202.000000	98.617189 
2201.000000	98.617951 
2200.000000	98.618497 
2199.000000	98.618372 
2198.000000	98.617406 
2197.000000	98.616048 
2196.000000	98.614983 
2195.000000	98.614441 
2194.000000	98.614208 
2193.000000	98.614125 
2192.000000	98.614414 
2191.000000	98.615364 
2190.000000	98.616847 
2189.000000	98.618406 
2188.000000	98.619798 
2187.000000	98.621026 
2186.000000	98.621755 
2185.000000	98.621302 
2184.000000	98.619581 
2183.000000	98.617902 
2182.000000	98.618038 
2181.000000	98.620421 
2180.000000	98.623696 
2179.000000	98.625913 
2178.000000	98.626314 
2177.000000	98.625387 
2176.000000	98.624264 
2175.000000	98.624131 
2174.000000	98.625747 
2173.000000	98.628970 
2172.000000	98.632801 
2171.000000	98.636262 
2170.000000	98.638947 
2169.000000	98.640718 
2168.000000	98.641668 
2167.000000	98.642596 
2166.000000	98.644738 
2165.000000	98.648600 
2164.000000	98.653562 
2163.000000	98.659098 
2162.000000	98.665397 
2161.000000	98.671906 
2160.000000	98.676516 
2159.000000	98.677417 
2158.000000	98.675068 
2157.000000	98.671764 
2156.000000	98.669796 
2155.000000	98.670545 
2154.000000	98.674337 
2153.000000	98.680006 
2152.000000	98.685177 
2151.000000	98.687712 
2150.000000	98.686756 
2149.000000	98.682858 
2148.000000	98.677902 
2147.000000	98.674361 
2146.000000	98.673367 
2145.000000	98.674071 
2144.000000	98.675852 
2143.000000	98.679923 
2142.000000	98.686689 
2141.000000	98.692645 
2140.000000	98.693486 
2139.000000	98.690165 
2138.000000	98.688920 
2137.000000	98.693909 
2136.000000	98.702531 
2135.000000	98.708900 
2134.000000	98.709582 
2133.000000	98.704435 
2132.000000	98.695244 
2131.000000	98.685705 
2130.000000	98.679781 
2129.000000	98.677797 
2128.000000	98.675846 
2127.000000	98.670792 
2126.000000	98.664956 
2125.000000	98.663390 
2124.000000	98.667326 
2123.000000	98.672815 
2122.000000	98.675288 
2121.000000	98.673793 
2120.000000	98.670409 
2119.000000	98.667751 
2118.000000	98.667567 
2117.000000	98.670282 
2116.000000	98.674886 
2115.000000	98.679749 
2114.000000	98.683968 
2113.000000	98.687413 
2112.000000	98.689651 
2111.000000	98.689944 
2110.000000	98.688693 
2109.000000	98.688036 
2108.000000	98.690163 
2107.000000	98.695009 
2106.000000	98.699799 
2105.000000	98.701306 
2104.000000	98.698932 
2103.000000	98.695648 
2102.000000	98.695298 
2101.000000	98.698541 
2100.000000	98.702285 
2099.000000	98.703454 
2098.000000	98.702661 
2097.000000	98.703041 
2096.000000	98.706427 
2095.000000	98.712210 
2094.000000	98.718807 
2093.000000	98.724535 
2092.000000	98.727559 
2091.000000	98.726994 
2090.000000	98.724831 
2089.000000	98.725082 
2088.000000	98.729583 
2087.000000	98.735802 
2086.000000	98.739832 
2085.000000	98.740752 
2084.000000	98.740719 
2083.000000	98.741924 
2082.000000	98.744663 
2081.000000	98.747810 
2080.000000	98.749717 
2079.000000	98.749064 
2078.000000	98.746183 
2077.000000	98.743145 
2076.000000	98.741817 
2075.000000	98.742350 
2074.000000	98.743512 
2073.000000	98.743539 
2072.000000	98.740600 
2071.000000	98.734005 
2070.000000	98.725811 
2069.000000	98.720042 
2068.000000	98.719234 
2067.000000	98.722554 
2066.000000	98.727082 
2065.000000	98.729567 
2064.000000	98.727495 
2063.000000	98.720876 
2062.000000	98.713852 
2061.000000	98.711664 
2060.000000	98.714982 
2059.000000	98.719461 
2058.000000	98.721502 
2057.000000	98.722277 
2056.000000	98.724176 
2055.000000	98.726532 
2054.000000	98.727013 
2053.000000	98.724954 
2052.000000	98.721148 
2051.000000	98.716055 
2050.000000	98.711044 
2049.000000	98.709038 
2048.000000	98.711616 
2047.000000	98.717669 
2046.000000	98.724059 
2045.000000	98.728903 
2044.000000	98.732205 
2043.000000	98.734464 
2042.000000	98.736259 
2041.000000	98.738192 
2040.000000	98.740543 
2039.000000	98.743110 
2038.000000	98.745457 
2037.000000	98.747193 
2036.000000	98.748169 
2035.000000	98.748603 
2034.000000	98.748985 
2033.000000	98.749670 
2032.000000	98.750596 
2031.000000	98.751497 
2030.000000	98.752266 
2029.000000	98.752959 
2028.000000	98.753603 
2027.000000	98.754166 
2026.000000	98.754628 
2025.000000	98.754997 
2024.000000	98.755281 
2023.000000	98.755484 
2022.000000	98.755597 
2021.000000	98.755595 
2020.000000	98.755428 
2019.000000	98.755037 
2018.000000	98.754410 
2017.000000	98.753580 
2016.000000	98.752571 
2015.000000	98.751386 
2014.000000	98.750029 
2013.000000	98.748545 
2012.000000	98.747003 
2011.000000	98.745445 
2010.000000	98.743845 
2009.000000	98.742104 
2008.000000	98.740083 
2007.000000	98.737670 
2006.000000	98.734855 
2005.000000	98.731728 
2004.000000	98.728388 
2003.000000	98.724875 
2002.000000	98.721202 
2001.000000	98.717430 
2000.000000	98.713677 
1999.000000	98.710047 
1998.000000	98.706572 
1997.000000	98.703225 
1996.000000	98.699961 
1995.000000	98.696761 
1994.000000	98.693641 
1993.000000	98.690636 
1992.000000	98.687765 
1991.000000	98.684977 
1990.000000	98.682184 
1989.000000	98.679435 
1988.000000	98.676966 
1987.000000	98.674934 
1986.000000	98.673106 
1985.000000	98.671033 
1984.000000	98.668608 
1983.000000	98.666306 
1982.000000	98.664643 
1981.000000	98.663691 
1980.000000	98.663105 
1979.000000	98.662249 
1978.000000	98.660328 
1977.000000	98.657201 
1976.000000	98.654207 
1975.000000	98.652993 
1974.000000	98.653817 
1973.000000	98.655776 
1972.000000	98.658281 
1971.000000	98.661017 
1970.000000	98.662997 
1969.000000	98.663232 
1968.000000	98.662008 
1967.000000	98.660390 
1966.000000	98.658787 
1965.000000	98.657400 
1964.000000	98.657284 
1963.000000	98.659490 
1962.000000	98.664514 
1961.000000	98.672837 
1960.000000	98.684264 
1959.000000	98.695776 
1958.000000	98.702264 
1957.000000	98.701915 
1956.000000	98.698328 
1955.000000	98.696546 
1954.000000	98.697669 
1953.000000	98.700233 
1952.000000	98.703538 
1951.000000	98.706907 
1950.000000	98.708460 
1949.000000	98.707912 
1948.000000	98.708866 
1947.000000	98.714504 
1946.000000	98.722305 
1945.000000	98.726605 
1944.000000	98.725845 
1943.000000	98.723343 
1942.000000	98.721824 
1941.000000	98.720901 
1940.000000	98.719493 
1939.000000	98.717424 
1938.000000	98.714786 
1937.000000	98.712270 
1936.000000	98.711489 
1935.000000	98.712859 
1934.000000	98.714337 
1933.000000	98.714212 
1932.000000	98.713385 
1931.000000	98.713650 
1930.000000	98.715242 
1929.000000	98.717280 
1928.000000	98.719494 
1927.000000	98.721191 
1926.000000	98.720529 
1925.000000	98.716690 
1924.000000	98.711771 
1923.000000	98.709023 
1922.000000	98.708936 
1921.000000	98.709735 
1920.000000	98.710283 
1919.000000	98.710737 
1918.000000	98.710917 
1917.000000	98.709944 
1916.000000	98.707900 
1915.000000	98.705895 
1914.000000	98.704367 
1913.000000	98.702881 
1912.000000	98.701110 
1911.000000	98.699264 
1910.000000	98.697620 
1909.000000	98.696210 
1908.000000	98.694966 
1907.000000	98.693818 
1906.000000	98.692676 
1905.000000	98.691467 
1904.000000	98.690247 
1903.000000	98.689187 
1902.000000	98.688368 
1901.000000	98.687706 
1900.000000	98.687052 
1899.000000	98.686334 
1898.000000	98.685595 
1897.000000	98.684937 
1896.000000	98.684421 
1895.000000	98.684022 
1894.000000	98.683659 
1893.000000	98.683282 
1892.000000	98.682902 
1891.000000	98.682571 
1890.000000	98.682329 
1889.000000	98.682165 
1888.000000	98.682037 
1887.000000	98.681939 
1886.000000	98.681965 
1885.000000	98.682260 
1884.000000	98.682853 
1883.000000	98.683636 
1882.000000	98.684424 
1881.000000	98.685135 
1880.000000	98.685802 
1879.000000	98.686509 
1878.000000	98.687240 
1877.000000	98.687912 
1876.000000	98.688519 
1875.000000	98.689216 
1874.000000	98.690184 
1873.000000	98.691494 
1872.000000	98.693088 
1871.000000	98.694773 
1870.000000	98.696326 
1869.000000	98.697528 
1868.000000	98.698357 
1867.000000	98.699050 
1866.000000	98.699751 
1865.000000	98.700394 
1864.000000	98.700989 
1863.000000	98.701753 
1862.000000	98.702859 
1861.000000	98.704171 
1860.000000	98.705362 
1859.000000	98.706312 
1858.000000	98.707191 
1857.000000	98.708207 
1856.000000	98.709407 
1855.000000	98.710731 
1854.000000	98.712047 
1853.000000	98.713121 
1852.000000	98.713841 
1851.000000	98.714436 
1850.000000	98.715327 
1849.000000	98.716780 
1848.000000	98.718745 
1847.000000	98.720982 
1846.000000	98.723154 
1845.000000	98.724873 
1844.000000	98.725971 
1843.000000	98.726802 
1842.000000	98.727697 
1841.000000	98.728343 
1840.000000	98.728472 
1839.000000	98.728418 
1838.000000	98.728765 
1837.000000	98.729473 
1836.000000	98.730048 
1835.000000	98.730495 
1834.000000	98.731168 
1833.000000	98.731920 
1832.000000	98.732260 
1831.000000	98.732057 
1830.000000	98.731750 
1829.000000	98.731719 
1828.000000	98.731928 
1827.000000	98.732256 
1826.000000	98.732771 
1825.000000	98.733532 
1824.000000	98.734327 
1823.000000	98.735051 
1822.000000	98.735850 
1821.000000	98.736680 
1820.000000	98.737230 
1819.000000	98.737442 
1818.000000	98.737831 
1817.000000	98.738504 
1816.000000	98.738772 
1815.000000	98.738396 
1814.000000	98.737890 
1813.000000	98.737733 
1812.000000	98.737698 
1811.000000	98.737453 
1810.000000	98.737358 
1809.000000	98.737711 
1808.000000	98.738113 
1807.000000	98.738017 
1806.000000	98.737325 
1805.000000	98.736426 
1804.000000	98.735943 
1803.000000	98.736376 
1802.000000	98.737547 
1801.000000	98.738518 
1800.000000	98.738385 
1799.000000	98.737096 
1798.000000	98.735596 
1797.000000	98.734819 
1796.000000	98.734894 
1795.000000	98.735414 
1794.000000	98.735970 
1793.000000	98.736481 
1792.000000	98.737236 
1791.000000	98.738766 
1790.000000	98.741151 
1789.000000	98.743580 
1788.000000	98.745279 
1787.000000	98.746263 
1786.000000	98.747160 
1785.000000	98.748377 
1784.000000	98.749689 
1783.000000	98.750837 
1782.000000	98.751770 
1781.000000	98.752738 
1780.000000	98.754026 
1779.000000	98.755669 
1778.000000	98.757621 
1777.000000	98.759721 
1776.000000	98.761766 
1775.000000	98.763443 
1774.000000	98.764488 
1773.000000	98.764949 
1772.000000	98.765304 
1771.000000	98.766174 
1770.000000	98.767794 
1769.000000	98.769920 
1768.000000	98.772106 
1767.000000	98.773904 
1766.000000	98.775133 
1765.000000	98.776049 
1764.000000	98.777080 
1763.000000	98.778567 
1762.000000	98.780603 
1761.000000	98.783052 
1760.000000	98.785563 
1759.000000	98.787780 
1758.000000	98.789627 
1757.000000	98.791266 
1756.000000	98.792878 
1755.000000	98.794186 
1754.000000	98.794899 
1753.000000	98.795335 
1752.000000	98.796279 
1751.000000	98.797950 
1750.000000	98.799601 
1749.000000	98.800410 
1748.000000	98.800264 
1747.000000	98.799470 
1746.000000	98.798269 
1745.000000	98.797318 
1744.000000	98.797447 
1743.000000	98.798803 
1742.000000	98.800555 
1741.000000	98.801606 
1740.000000	98.801602 
1739.000000	98.801126 
1738.000000	98.800863 
1737.000000	98.800552 
1736.000000	98.799781 
1735.000000	98.799038 
1734.000000	98.798517 
1733.000000	98.797577 
1732.000000	98.796830 
1731.000000	98.797204 
1730.000000	98.799128 
1729.000000	98.801714 
1728.000000	98.803288 
1727.000000	98.803145 
1726.000000	98.801888 
1725.000000	98.800782 
1724.000000	98.800188 
1723.000000	98.799735 
1722.000000	98.799419 
1721.000000	98.798946 
1720.000000	98.797624 
1719.000000	98.795373 
1718.000000	98.793606 
1717.000000	98.793266 
1716.000000	98.793280 
1715.000000	98.792668 
1714.000000	98.791588 
1713.000000	98.790106 
1712.000000	98.787963 
1711.000000	98.785641 
1710.000000	98.783656 
1709.000000	98.781504 
1708.000000	98.778570 
1707.000000	98.775400 
1706.000000	98.773540 
1705.000000	98.773287 
1704.000000	98.773171 
1703.000000	98.771923 
1702.000000	98.769771 
1701.000000	98.767655 
1700.000000	98.764058 
1699.000000	98.759255 
1698.000000	98.756585 
1697.000000	98.755192 
1696.000000	98.753798 
1695.000000	98.752065 
1694.000000	98.750496 
1693.000000	98.748455 
1692.000000	98.744794 
1691.000000	98.740149 
1690.000000	98.736016 
1689.000000	98.733001 
1688.000000	98.730776 
1687.000000	98.728065 
1686.000000	98.724754 
1685.000000	98.721914 
1684.000000	98.719258 
1683.000000	98.717083 
1682.000000	98.715669 
1681.000000	98.713139 
1680.000000	98.710596 
1679.000000	98.709326 
1678.000000	98.708604 
1677.000000	98.707296 
1676.000000	98.705471 
1675.000000	98.703012 
1674.000000	98.699115 
1673.000000	98.694601 
1672.000000	98.690692 
1671.000000	98.688331 
1670.000000	98.687253 
1669.000000	98.685779 
1668.000000	98.684354 
1667.000000	98.683770 
1666.000000	98.683035 
1665.000000	98.681407 
1664.000000	98.679500 
1663.000000	98.678473 
1662.000000	98.677321 
1661.000000	98.674246 
1660.000000	98.669854 
1659.000000	98.665568 
1658.000000	98.661938 
1657.000000	98.659099 
1656.000000	98.657081 
1655.000000	98.655729 
1654.000000	98.654670 
1653.000000	98.648582 
1652.000000	98.637797 
1651.000000	98.633188 
1650.000000	98.631236 
1649.000000	98.628223 
1648.000000	98.626319 
1647.000000	98.628286 
1646.000000	98.632404 
1645.000000	98.635809 
1644.000000	98.637357 
1643.000000	98.637782 
1642.000000	98.637486 
1641.000000	98.636246 
1640.000000	98.634830 
1639.000000	98.634401 
1638.000000	98.636045 
1637.000000	98.640111 
1636.000000	98.644530 
1635.000000	98.644691 
1634.000000	98.640544 
1633.000000	98.635425 
1632.000000	98.630979 
1631.000000	98.629020 
1630.000000	98.629699 
1629.000000	98.631237 
1628.000000	98.632568 
1627.000000	98.634647 
1626.000000	98.637172 
1625.000000	98.638517 
1624.000000	98.639039 
1623.000000	98.641135 
1622.000000	98.645470 
1621.000000	98.650174 
1620.000000	98.653872 
1619.000000	98.656406 
1618.000000	98.657757 
1617.000000	98.656708 
1616.000000	98.654852 
1615.000000	98.656830 
1614.000000	98.662200 
1613.000000	98.666868 
1612.000000	98.669856 
1611.000000	98.673127 
1610.000000	98.677284 
1609.000000	98.681414 
1608.000000	98.686166 
1607.000000	98.692598 
1606.000000	98.698539 
1605.000000	98.701434 
1604.000000	98.702947 
1603.000000	98.705998 
1602.000000	98.710447 
1601.000000	98.713790 
1600.000000	98.715568 
1599.000000	98.717546 
1598.000000	98.720366 
1597.000000	98.723428 
1596.000000	98.726911 
1595.000000	98.731509 
1594.000000	98.736039 
1593.000000	98.738449 
1592.000000	98.739401 
1591.000000	98.741490 
1590.000000	98.745205 
1589.000000	98.749264 
1588.000000	98.754099 
1587.000000	98.761015 
1586.000000	98.768184 
1585.000000	98.771541 
1584.000000	98.772303 
1583.000000	98.773966 
1582.000000	98.775022 
1581.000000	98.773532 
1580.000000	98.772740 
1579.000000	98.775711 
1578.000000	98.780849 
1577.000000	98.785526 
1576.000000	98.788081 
1575.000000	98.791416 
1574.000000	98.797487 
1573.000000	98.802441 
1572.000000	98.805202 
1571.000000	98.807749 
1570.000000	98.807627 
1569.000000	98.801398 
1568.000000	98.795917 
1567.000000	98.794679 
1566.000000	98.793197 
1565.000000	98.790251 
1564.000000	98.790415 
1563.000000	98.794541 
1562.000000	98.795927 
1561.000000	98.790685 
1560.000000	98.790161 
1559.000000	98.793828 
1558.000000	98.784507 
1557.000000	98.773924 
1556.000000	98.767834 
1555.000000	98.766528 
1554.000000	98.765022 
1553.000000	98.758677 
1552.000000	98.749313 
1551.000000	98.742026 
1550.000000	98.739400 
1549.000000	98.735791 
1548.000000	98.724790 
1547.000000	98.707593 
1546.000000	98.689649 
1545.000000	98.677170 
1544.000000	98.672224 
1543.000000	98.669557 
1542.000000	98.662240 
1541.000000	98.646156 
1540.000000	98.621466 
1539.000000	98.598868 
1538.000000	98.586865 
1537.000000	98.578053 
1536.000000	98.564415 
1535.000000	98.546690 
1534.000000	98.529028 
1533.000000	98.514594 
1532.000000	98.503031 
1531.000000	98.490501 
1530.000000	98.474881 
1529.000000	98.457526 
1528.000000	98.442033 
1527.000000	98.431482 
1526.000000	98.423316 
1525.000000	98.411156 
1524.000000	98.392313 
1523.000000	98.369845 
1522.000000	98.349537 
1521.000000	98.334026 
1520.000000	98.320452 
1519.000000	98.304915 
1518.000000	98.286616 
1517.000000	98.268071 
1516.000000	98.251308 
1515.000000	98.235855 
1514.000000	98.220040 
1513.000000	98.203050 
1512.000000	98.184408 
1511.000000	98.164296 
1510.000000	98.144314 
1509.000000	98.126350 
1508.000000	98.112309 
1507.000000	98.101396 
1506.000000	98.088511 
1505.000000	98.072261 
1504.000000	98.055856 
1503.000000	98.039819 
1502.000000	98.022776 
1501.000000	98.003711 
1500.000000	97.982340 
1499.000000	97.959091 
1498.000000	97.935233 
1497.000000	97.913037 
1496.000000	97.894318 
1495.000000	97.879652 
1494.000000	97.867317 
1493.000000	97.853854 
1492.000000	97.837241 
1491.000000	97.819299 
1490.000000	97.804065 
1489.000000	97.791428 
1488.000000	97.776160 
1487.000000	97.756678 
1486.000000	97.736137 
1485.000000	97.714739 
1484.000000	97.692217 
1483.000000	97.671082 
1482.000000	97.654708 
1481.000000	97.642351 
1480.000000	97.628271 
1479.000000	97.609643 
1478.000000	97.589778 
1477.000000	97.573034 
1476.000000	97.558039 
1475.000000	97.540744 
1474.000000	97.520422 
1473.000000	97.502727 
1472.000000	97.492987 
1471.000000	97.487784 
1470.000000	97.480500 
1469.000000	97.468308 
1468.000000	97.452582 
1467.000000	97.436817 
1466.000000	97.423696 
1465.000000	97.412974 
1464.000000	97.402384 
1463.000000	97.388387 
1462.000000	97.369693 
1461.000000	97.347749 
1460.000000	97.325932 
1459.000000	97.307813 
1458.000000	97.296652 
1457.000000	97.292564 
1456.000000	97.288359 
1455.000000	97.278067 
1454.000000	97.261860 
1453.000000	97.244526 
1452.000000	97.230464 
1451.000000	97.221174 
1450.000000	97.217857 
1449.000000	97.222285 
1448.000000	97.231729 
1447.000000	97.238399 
1446.000000	97.235546 
1445.000000	97.225784 
1444.000000	97.217478 
1443.000000	97.214336 
1442.000000	97.214896 
1441.000000	97.215072 
1440.000000	97.211184 
1439.000000	97.201389 
1438.000000	97.190817 
1437.000000	97.190043 
1436.000000	97.199538 
1435.000000	97.206036 
1434.000000	97.202724 
1433.000000	97.195229 
1432.000000	97.190648 
1431.000000	97.191266 
1430.000000	97.195994 
1429.000000	97.203595 
1428.000000	97.210276 
1427.000000	97.212520 
1426.000000	97.210517 
1425.000000	97.210170 
1424.000000	97.215778 
1423.000000	97.220323 
1422.000000	97.216173 
1421.000000	97.207317 
1420.000000	97.205719 
1419.000000	97.214104 
1418.000000	97.222447 
1417.000000	97.225730 
1416.000000	97.227967 
1415.000000	97.231735 
1414.000000	97.234042 
1413.000000	97.232865 
1412.000000	97.231162 
1411.000000	97.231989 
1410.000000	97.235233 
1409.000000	97.239481 
1408.000000	97.243566 
1407.000000	97.249079 
1406.000000	97.260073 
1405.000000	97.281549 
1404.000000	97.313145 
1403.000000	97.344269 
1402.000000	97.366694 
1401.000000	97.384944 
1400.000000	97.409268 
1399.000000	97.439111 
1398.000000	97.461077 
1397.000000	97.467736 
1396.000000	97.468767 
1395.000000	97.481167 
1394.000000	97.511117 
1393.000000	97.551618 
1392.000000	97.593471 
1391.000000	97.630134 
1390.000000	97.658162 
1389.000000	97.678885 
1388.000000	97.698087 
1387.000000	97.720274 
1386.000000	97.743488 
1385.000000	97.764423 
1384.000000	97.784136 
1383.000000	97.804040 
1382.000000	97.823545 
1381.000000	97.842920 
1380.000000	97.865441 
1379.000000	97.893664 
1378.000000	97.924891 
1377.000000	97.954099 
1376.000000	97.979844 
1375.000000	98.004416 
1374.000000	98.029024 
1373.000000	98.052862 
1372.000000	98.076296 
1371.000000	98.102197 
1370.000000	98.132095 
1369.000000	98.163446 
1368.000000	98.191639 
1367.000000	98.212977 
1366.000000	98.227500 
1365.000000	98.239164 
1364.000000	98.253514 
1363.000000	98.274018 
1362.000000	98.299313 
1361.000000	98.325111 
1360.000000	98.349288 
1359.000000	98.372326 
1358.000000	98.393864 
1357.000000	98.412034 
1356.000000	98.425751 
1355.000000	98.435778 
1354.000000	98.444600 
1353.000000	98.455403 
1352.000000	98.469931 
1351.000000	98.488226 
1350.000000	98.508233 
1349.000000	98.526536 
1348.000000	98.540892 
1347.000000	98.551543 
1346.000000	98.561414 
1345.000000	98.573495 
1344.000000	98.587582 
1343.000000	98.599854 
1342.000000	98.606918 
1341.000000	98.610022 
1340.000000	98.614769 
1339.000000	98.625339 
1338.000000	98.639860 
1337.000000	98.653218 
1336.000000	98.662135 
1335.000000	98.666350 
1334.000000	98.667825 
1333.000000	98.669829 
1332.000000	98.675180 
1331.000000	98.684359 
1330.000000	98.695472 
1329.000000	98.706128 
1328.000000	98.715003 
1327.000000	98.721966 
1326.000000	98.727323 
1325.000000	98.731250 
1324.000000	98.733641 
1323.000000	98.734036 
1322.000000	98.732481 
1321.000000	98.730540 
1320.000000	98.731085 
1319.000000	98.736557 
1318.000000	98.747019 
1317.000000	98.759368 
1316.000000	98.768618 
1315.000000	98.771120 
1314.000000	98.767982 
1313.000000	98.765125 
1312.000000	98.768079 
1311.000000	98.776436 
1310.000000	98.784869 
1309.000000	98.789252 
1308.000000	98.790151 
1307.000000	98.790579 
1306.000000	98.791888 
1305.000000	98.793283 
1304.000000	98.794435 
1303.000000	98.796313 
1302.000000	98.799327 
1301.000000	98.802004 
1300.000000	98.802558 
1299.000000	98.801354 
1298.000000	98.800827 
1297.000000	98.802529 
1296.000000	98.805109 
1295.000000	98.806160 
1294.000000	98.805061 
1293.000000	98.802829 
1292.000000	98.800558 
1291.000000	98.798899 
1290.000000	98.798707 
1289.000000	98.800809 
1288.000000	98.804224 
1287.000000	98.806308 
1286.000000	98.805534 
1285.000000	98.802772 
1284.000000	98.799707 
1283.000000	98.797300 
1282.000000	98.795992 
1281.000000	98.796067 
1280.000000	98.797201 
1279.000000	98.798587 
1278.000000	98.800091 
1277.000000	98.802272 
1276.000000	98.804622 
1275.000000	98.805353 
1274.000000	98.803982 
1273.000000	98.802625 
1272.000000	98.803109 
1271.000000	98.804009 
1270.000000	98.802481 
1269.000000	98.798255 
1268.000000	98.793869 
1267.000000	98.791426 
1266.000000	98.791055 
1265.000000	98.792209 
1264.000000	98.794362 
1263.000000	98.796387 
1262.000000	98.797085 
1261.000000	98.796625 
1260.000000	98.796303 
1259.000000	98.796714 
1258.000000	98.796819 
1257.000000	98.794376 
1256.000000	98.787183 
1255.000000	98.776607 
1254.000000	98.770910 
1253.000000	98.780268 
1252.000000	98.803569 
1251.000000	98.823268 
1250.000000	98.821213 
1249.000000	98.799594 
1248.000000	98.779874 
1247.000000	98.778670 
1246.000000	98.790049 
1245.000000	98.795409 
1244.000000	98.785567 
1243.000000	98.768061 
1242.000000	98.756058 
1241.000000	98.755300 
1240.000000	98.761340 
1239.000000	98.765019 
1238.000000	98.759484 
1237.000000	98.744229 
1236.000000	98.723699 
1235.000000	98.702364 
1234.000000	98.682007 
1233.000000	98.663380 
1232.000000	98.647683 
1231.000000	98.634963 
1230.000000	98.623444 
1229.000000	98.612213 
1228.000000	98.602330 
1227.000000	98.593436 
1226.000000	98.581564 
1225.000000	98.562637 
1224.000000	98.536336 
1223.000000	98.504594 
1222.000000	98.468537 
1221.000000	98.429385 
1220.000000	98.390237 
1219.000000	98.353691 
1218.000000	98.318623 
1217.000000	98.281834 
1216.000000	98.241369 
1215.000000	98.195869 
1214.000000	98.143289 
1213.000000	98.084424 
1212.000000	98.025864 
1211.000000	97.974137 
1210.000000	97.927083 
1209.000000	97.875924 
1208.000000	97.815954 
1207.000000	97.750754 
1206.000000	97.685748 
1205.000000	97.622314 
1204.000000	97.560113 
1203.000000	97.500349 
1202.000000	97.443435 
1201.000000	97.386783 
1200.000000	97.327694 
1199.000000	97.266559 
1198.000000	97.205416 
1197.000000	97.144869 
1196.000000	97.083696 
1195.000000	97.020273 
1194.000000	96.953873 
1193.000000	96.885893 
1192.000000	96.819461 
1191.000000	96.755705 
1190.000000	96.690943 
1189.000000	96.620263 
1188.000000	96.543538 
1187.000000	96.464990 
1186.000000	96.387335 
1185.000000	96.310006 
1184.000000	96.233027 
1183.000000	96.158056 
1182.000000	96.084326 
1181.000000	96.007442 
1180.000000	95.923949 
1179.000000	95.834344 
1178.000000	95.740696 
1177.000000	95.644212 
1176.000000	95.545573 
1175.000000	95.444224 
1174.000000	95.337028 
1173.000000	95.221928 
1172.000000	95.103856 
1171.000000	94.992247 
1170.000000	94.890868 
1169.000000	94.794481 
1168.000000	94.697456 
1167.000000	94.601592 
1166.000000	94.514099 
1165.000000	94.443086 
1164.000000	94.397304 
1163.000000	94.384467 
1162.000000	94.404707 
1161.000000	94.447325 
1160.000000	94.496065 
1159.000000	94.535972 
1158.000000	94.555728 
1157.000000	94.548395 
1156.000000	94.512552 
1155.000000	94.450928 
1154.000000	94.367430 
1153.000000	94.267875 
1152.000000	94.162730 
1151.000000	94.063623 
1150.000000	93.975184 
1149.000000	93.894189 
1148.000000	93.817094 
1147.000000	93.742726 
1146.000000	93.666876 
1145.000000	93.582030 
1144.000000	93.486551 
1143.000000	93.388650 
1142.000000	93.297136 
1141.000000	93.212639 
1140.000000	93.131333 
1139.000000	93.051534 
1138.000000	92.971958 
1137.000000	92.888894 
1136.000000	92.801272 
1135.000000	92.715047 
1134.000000	92.636572 
1133.000000	92.563684 
1132.000000	92.488225 
1131.000000	92.404891 
1130.000000	92.312563 
1129.000000	92.209448 
1128.000000	92.093961 
1127.000000	91.971766 
1126.000000	91.856584 
1125.000000	91.760084 
1124.000000	91.681787 
1123.000000	91.609966 
1122.000000	91.532172 
1121.000000	91.444791 
1120.000000	91.352477 
1119.000000	91.260261 
1118.000000	91.169528 
1117.000000	91.081684 
1116.000000	90.999933 
1115.000000	90.922916 
1114.000000	90.840918 
1113.000000	90.745706 
1112.000000	90.642993 
1111.000000	90.548143 
1110.000000	90.469195 
1109.000000	90.400184 
1108.000000	90.330267 
1107.000000	90.253005 
1106.000000	90.167219 
1105.000000	90.076161 
1104.000000	89.987287 
1103.000000	89.906527 
1102.000000	89.831539 
1101.000000	89.755406 
1100.000000	89.676349 
1099.000000	89.597863 
1098.000000	89.521465 
1097.000000	89.447019 
1096.000000	89.378045 
1095.000000	89.317415 
1094.000000	89.257978 
1093.000000	89.187455 
1092.000000	89.104368 
1091.000000	89.020955 
1090.000000	88.948947 
1089.000000	88.889566 
1088.000000	88.837402 
1087.000000	88.785884 
1086.000000	88.728974 
1085.000000	88.666093 
1084.000000	88.605679 
1083.000000	88.556016 
1082.000000	88.513407 
1081.000000	88.468160 
1080.000000	88.420518 
1079.000000	88.380004 
1078.000000	88.349691 
1077.000000	88.322189 
1076.000000	88.291125 
1075.000000	88.255130 
1074.000000	88.210401 
1073.000000	88.151161 
1072.000000	88.077986 
1071.000000	87.993692 
1070.000000	87.890149 
1069.000000	87.753016 
1068.000000	87.583256 
1067.000000	87.402892 
1066.000000	87.235078 
1065.000000	87.087284 
1064.000000	86.955987 
1063.000000	86.833622 
1062.000000	86.704990 
1061.000000	86.550969 
1060.000000	86.366674 
1059.000000	86.169902 
1058.000000	85.984571 
1057.000000	85.820081 
1056.000000	85.670114 
1055.000000	85.523695 
1054.000000	85.372864 
1053.000000	85.216721 
1052.000000	85.062486 
1051.000000	84.917237 
1050.000000	84.777068 
1049.000000	84.631653 
1048.000000	84.479140 
1047.000000	84.327173 
1046.000000	84.180352 
1045.000000	84.036465 
1044.000000	83.893162 
1043.000000	83.748511 
1042.000000	83.597229 
1041.000000	83.436997 
1040.000000	83.277224 
1039.000000	83.131497 
1038.000000	83.003063 
1037.000000	82.887239 
1036.000000	82.783817 
1035.000000	82.694905 
1034.000000	82.614880 
1033.000000	82.536176 
1032.000000	82.460839 
1031.000000	82.392150 
1030.000000	82.321042 
1029.000000	82.239234 
1028.000000	82.161665 
1027.000000	82.114844 
1026.000000	82.103136 
1025.000000	82.104796 
1024.000000	82.101058 
1023.000000	82.090532 
1022.000000	82.074861 
1021.000000	82.051244 
1020.000000	82.022349 
1019.000000	81.994917 
1018.000000	81.964977 
1017.000000	81.921760 
1016.000000	81.869603 
1015.000000	81.828888 
1014.000000	81.811345 
1013.000000	81.809667 
1012.000000	81.812880 
1011.000000	81.815344 
1010.000000	81.809674 
1009.000000	81.790565 
1008.000000	81.770391 
1007.000000	81.773099 
1006.000000	81.806531 
1005.000000	81.855162 
1004.000000	81.903772 
1003.000000	81.953262 
1002.000000	82.009094 
1001.000000	82.070327 
1000.000000	82.136368 
999.000000	 82.211316 
998.000000	 82.295878 
997.000000	 82.384998 
996.000000	 82.475287 
995.000000	 82.564353 
994.000000	 82.644525 
993.000000	 82.711322 
992.000000	 82.776865 
991.000000	 82.858845 
990.000000	 82.956168 
989.000000	 83.051567 
988.000000	 83.138718 
987.000000	 83.229231 
986.000000	 83.331153 
985.000000	 83.439630 
984.000000	 83.552916 
983.000000	 83.679232 
982.000000	 83.821037 
981.000000	 83.967897 
980.000000	 84.111656 
979.000000	 84.255812 
978.000000	 84.404578 
977.000000	 84.555811 
976.000000	 84.709921 
975.000000	 84.872801 
974.000000	 85.044092 
973.000000	 85.214143 
972.000000	 85.378364 
971.000000	 85.544351 
970.000000	 85.719722 
969.000000	 85.901915 
968.000000	 86.083719 
967.000000	 86.260612 
966.000000	 86.430255 
965.000000	 86.593304 
964.000000	 86.756624 
963.000000	 86.927486 
962.000000	 87.103396 
961.000000	 87.275449 
960.000000	 87.440950 
959.000000	 87.603408 
958.000000	 87.761589 
957.000000	 87.909961 
956.000000	 88.050326 
955.000000	 88.192013 
954.000000	 88.339161 
953.000000	 88.487282 
952.000000	 88.632430 
951.000000	 88.773322 
950.000000	 88.904776 
949.000000	 89.020866 
948.000000	 89.125602 
947.000000	 89.229620 
946.000000	 89.334423 
945.000000	 89.430909 
944.000000	 89.515759 
943.000000	 89.598341 
942.000000	 89.688187 
941.000000	 89.784845 
940.000000	 89.883578 
939.000000	 89.982259 
938.000000	 90.079370 
937.000000	 90.173199 
936.000000	 90.266178 
935.000000	 90.363241 
934.000000	 90.463808 
933.000000	 90.562048 
932.000000	 90.656258 
931.000000	 90.751097 
930.000000	 90.849381 
929.000000	 90.948315 
928.000000	 91.045121 
927.000000	 91.139969 
926.000000	 91.231976 
925.000000	 91.317730 
924.000000	 91.394628 
923.000000	 91.462064 
922.000000	 91.520885 
921.000000	 91.575988 
920.000000	 91.636306 
919.000000	 91.706024 
918.000000	 91.777979 
917.000000	 91.841787 
916.000000	 91.896429 
915.000000	 91.949784 
914.000000	 92.009572 
913.000000	 92.080674 
912.000000	 92.166349 
911.000000	 92.264113 
910.000000	 92.364769 
909.000000	 92.464047 
908.000000	 92.570668 
907.000000	 92.694393 
906.000000	 92.831548 
905.000000	 92.971755 
904.000000	 93.112933 
903.000000	 93.258491 
902.000000	 93.405394 
901.000000	 93.547750 
900.000000	 93.688461 
899.000000	 93.835225 
898.000000	 93.987140 
897.000000	 94.135597 
896.000000	 94.275090 
895.000000	 94.403363 
894.000000	 94.516365 
893.000000	 94.614809 
892.000000	 94.711318 
891.000000	 94.818255 
890.000000	 94.930181 
889.000000	 95.028488 
888.000000	 95.099307 
887.000000	 95.137113 
886.000000	 95.138437 
885.000000	 95.106676 
884.000000	 95.058958 
883.000000	 95.013092 
882.000000	 94.969741 
881.000000	 94.921601 
880.000000	 94.875775 
879.000000	 94.849042 
878.000000	 94.843693 
877.000000	 94.848790 
876.000000	 94.865910 
875.000000	 94.912862 
874.000000	 94.999506 
873.000000	 95.119704 
872.000000	 95.268835 
871.000000	 95.448220 
870.000000	 95.648310 
869.000000	 95.847863 
868.000000	 96.036140 
867.000000	 96.219383 
866.000000	 96.400869 
865.000000	 96.571163 
864.000000	 96.724115 
863.000000	 96.867330 
862.000000	 97.008823 
861.000000	 97.145158 
860.000000	 97.270302 
859.000000	 97.386135 
858.000000	 97.497232 
857.000000	 97.603485 
856.000000	 97.703329 
855.000000	 97.796569 
854.000000	 97.879911 
853.000000	 97.947822 
852.000000	 98.001791 
851.000000	 98.051464 
850.000000	 98.104000 
849.000000	 98.159813 
848.000000	 98.219576 
847.000000	 98.285000 
846.000000	 98.350708 
845.000000	 98.406559 
844.000000	 98.451190 
843.000000	 98.492915 
842.000000	 98.534380 
841.000000	 98.567259 
840.000000	 98.585562 
839.000000	 98.593090 
838.000000	 98.593880 
837.000000	 98.586745 
836.000000	 98.574772 
835.000000	 98.569461 
834.000000	 98.578120 
833.000000	 98.595268 
832.000000	 98.612232 
831.000000	 98.626995 
830.000000	 98.639555 
829.000000	 98.647466 
828.000000	 98.653646 
827.000000	 98.669798 
826.000000	 98.702843 
825.000000	 98.744762 
824.000000	 98.783337 
823.000000	 98.814668 
822.000000	 98.838019 
821.000000	 98.848532 
820.000000	 98.843876 
819.000000	 98.830135 
818.000000	 98.813249 
817.000000	 98.789587 
816.000000	 98.749910 
815.000000	 98.688030 
814.000000	 98.601241 
813.000000	 98.486195 
812.000000	 98.338249 
811.000000	 98.151401 
810.000000	 97.915952 
809.000000	 97.620715 
808.000000	 97.261927 
807.000000	 96.848318 
806.000000	 96.396563 
805.000000	 95.925838 
804.000000	 95.457055 
803.000000	 95.009197 
802.000000	 94.592985 
801.000000	 94.215822 
800.000000	 93.894847 
799.000000	 93.654255 
798.000000	 93.505561 
797.000000	 93.439821 
796.000000	 93.440547 
795.000000	 93.491990 
794.000000	 93.573730 
793.000000	 93.662541 
792.000000	 93.745365 
791.000000	 93.820784 
790.000000	 93.886038 
789.000000	 93.932244 
788.000000	 93.951512 
787.000000	 93.937145 
786.000000	 93.878067 
785.000000	 93.766435 
784.000000	 93.611524 
783.000000	 93.434559 
782.000000	 93.251185 
781.000000	 93.072403 
780.000000	 92.919228 
779.000000	 92.816717 
778.000000	 92.772029 
777.000000	 92.777035 
776.000000	 92.833354 
775.000000	 92.952302 
774.000000	 93.125351 
773.000000	 93.317332 
772.000000	 93.497929 
771.000000	 93.662252 
770.000000	 93.814545 
769.000000	 93.952369 
768.000000	 94.076063 
767.000000	 94.194494 
766.000000	 94.309910 
765.000000	 94.413276 
764.000000	 94.505402 
763.000000	 94.606152 
762.000000	 94.729071 
761.000000	 94.860136 
760.000000	 94.975304 
759.000000	 95.069018 
758.000000	 95.153562 
757.000000	 95.239995 
756.000000	 95.331688 
755.000000	 95.428263 
754.000000	 95.523622 
753.000000	 95.605837 
752.000000	 95.669918 
751.000000	 95.728076 
750.000000	 95.800660 
749.000000	 95.898686 
748.000000	 96.016263 
747.000000	 96.133044 
746.000000	 96.223242 
745.000000	 96.274183 
744.000000	 96.303112 
743.000000	 96.348067 
742.000000	 96.434656 
741.000000	 96.555762 
740.000000	 96.684769 
739.000000	 96.799438 
738.000000	 96.890755 
737.000000	 96.959819 
736.000000	 97.013934 
735.000000	 97.060887 
734.000000	 97.103486 
733.000000	 97.142756 
732.000000	 97.183673 
731.000000	 97.229211 
730.000000	 97.271681 
729.000000	 97.302668 
728.000000	 97.328651 
727.000000	 97.364780 
726.000000	 97.415699 
725.000000	 97.472980 
724.000000	 97.530244 
723.000000	 97.588444 
722.000000	 97.645674 
721.000000	 97.694363 
720.000000	 97.730862 
719.000000	 97.757107 
718.000000	 97.771014 
717.000000	 97.767505 
716.000000	 97.751792 
715.000000	 97.738719 
714.000000	 97.737209 
713.000000	 97.748877 
712.000000	 97.781320 
711.000000	 97.844799 
710.000000	 97.931695 
709.000000	 98.018570 
708.000000	 98.089291 
707.000000	 98.140560 
706.000000	 98.167476 
705.000000	 98.160764 
704.000000	 98.123284 
703.000000	 98.073236 
702.000000	 98.017535 
701.000000	 97.935763 
700.000000	 97.803012 
699.000000	 97.615223 
698.000000	 97.389247 
697.000000	 97.152643 
696.000000	 96.942193 
695.000000	 96.800187 
694.000000	 96.750870 
693.000000	 96.785866 
692.000000	 96.880853 
691.000000	 97.014667 
690.000000	 97.169387 
689.000000	 97.322558 
688.000000	 97.453091 
687.000000	 97.555407 
686.000000	 97.636444 
685.000000	 97.704533 
684.000000	 97.767054 
683.000000	 97.827353 
682.000000	 97.881483 
681.000000	 97.925679 
680.000000	 97.968356 
679.000000	 98.020970 
678.000000	 98.080284 
677.000000	 98.136437 
676.000000	 98.188214 
675.000000	 98.241298 
674.000000	 98.290615 
673.000000	 98.314666 
672.000000	 98.298293 
671.000000	 98.237890 
670.000000	 98.139212 
669.000000	 98.021614 
668.000000	 97.984557 
667.000000	 98.118851 
666.000000	 98.321312 
665.000000	 98.468280 
664.000000	 98.558748 
663.000000	 98.617761 
662.000000	 98.660074 
661.000000	 98.690578 
660.000000	 98.718701 
659.000000	 98.758524 
658.000000	 98.809457 
657.000000	 98.852803 
656.000000	 98.867280 
655.000000	 98.849528 
654.000000	 98.814458 
653.000000	 98.779581 
652.000000	 98.758236 
651.000000	 98.760473 
650.000000	 98.781453 

