4000.000000	98.463994 
3999.000000	98.462931 
3998.000000	98.460827 
3997.000000	98.457961 
3996.000000	98.454778 
3995.000000	98.452063 
3994.000000	98.450693 
3993.000000	98.450865 
3992.000000	98.451747 
3991.000000	98.452303 
3990.000000	98.452476 
3989.000000	98.452973 
3988.000000	98.454034 
3987.000000	98.455170 
3986.000000	98.456076 
3985.000000	98.457052 
3984.000000	98.458321 
3983.000000	98.459634 
3982.000000	98.460949 
3981.000000	98.462664 
3980.000000	98.464682 
3979.000000	98.465804 
3978.000000	98.465050 
3977.000000	98.463253 
3976.000000	98.462426 
3975.000000	98.463255 
3974.000000	98.464136 
3973.000000	98.463071 
3972.000000	98.459647 
3971.000000	98.455154 
3970.000000	98.451412 
3969.000000	98.449719 
3968.000000	98.450254 
3967.000000	98.452193 
3966.000000	98.454248 
3965.000000	98.455273 
3964.000000	98.454591 
3963.000000	98.452205 
3962.000000	98.448994 
3961.000000	98.446355 
3960.000000	98.444933 
3959.000000	98.444151 
3958.000000	98.443251 
3957.000000	98.442530 
3956.000000	98.442627 
3955.000000	98.443327 
3954.000000	98.443744 
3953.000000	98.443340 
3952.000000	98.442428 
3951.000000	98.441602 
3950.000000	98.441193 
3949.000000	98.441093 
3948.000000	98.441044 
3947.000000	98.441121 
3946.000000	98.441525 
3945.000000	98.441950 
3944.000000	98.441814 
3943.000000	98.441342 
3942.000000	98.441586 
3941.000000	98.443018 
3940.000000	98.444757 
3939.000000	98.445511 
3938.000000	98.444960 
3937.000000	98.443956 
3936.000000	98.443336 
3935.000000	98.442964 
3934.000000	98.442333 
3933.000000	98.441500 
3932.000000	98.441056 
3931.000000	98.441139 
3930.000000	98.441369 
3929.000000	98.441556 
3928.000000	98.441829 
3927.000000	98.442099 
3926.000000	98.442040 
3925.000000	98.441738 
3924.000000	98.441513 
3923.000000	98.441410 
3922.000000	98.441333 
3921.000000	98.441245 
3920.000000	98.441143 
3919.000000	98.441037 
3918.000000	98.440930 
3917.000000	98.440812 
3916.000000	98.440677 
3915.000000	98.440533 
3914.000000	98.440391 
3913.000000	98.440252 
3912.000000	98.440104 
3911.000000	98.439937 
3910.000000	98.439755 
3909.000000	98.439574 
3908.000000	98.439399 
3907.000000	98.439225 
3906.000000	98.439041 
3905.000000	98.438851 
3904.000000	98.438666 
3903.000000	98.438502 
3902.000000	98.438364 
3901.000000	98.438248 
3900.000000	98.438151 
3899.000000	98.438074 
3898.000000	98.438023 
3897.000000	98.437992 
3896.000000	98.437962 
3895.000000	98.437920 
3894.000000	98.437868 
3893.000000	98.437811 
3892.000000	98.437748 
3891.000000	98.437674 
3890.000000	98.437588 
3889.000000	98.437491 
3888.000000	98.437373 
3887.000000	98.437219 
3886.000000	98.437026 
3885.000000	98.436817 
3884.000000	98.436609 
3883.000000	98.436400 
3882.000000	98.436177 
3881.000000	98.435947 
3880.000000	98.435738 
3879.000000	98.435580 
3878.000000	98.435481 
3877.000000	98.435425 
3876.000000	98.435397 
3875.000000	98.435395 
3874.000000	98.435430 
3873.000000	98.435505 
3872.000000	98.435604 
3871.000000	98.435700 
3870.000000	98.435794 
3869.000000	98.435916 
3868.000000	98.436078 
3867.000000	98.436253 
3866.000000	98.436406 
3865.000000	98.436528 
3864.000000	98.436631 
3863.000000	98.436713 
3862.000000	98.436757 
3861.000000	98.436761 
3860.000000	98.436745 
3859.000000	98.436723 
3858.000000	98.436694 
3857.000000	98.436649 
3856.000000	98.436586 
3855.000000	98.436507 
3854.000000	98.436422 
3853.000000	98.436355 
3852.000000	98.436318 
3851.000000	98.436305 
3850.000000	98.436307 
3849.000000	98.436317 
3848.000000	98.436337 
3847.000000	98.436375 
3846.000000	98.436442 
3845.000000	98.436550 
3844.000000	98.436700 
3843.000000	98.436892 
3842.000000	98.437129 
3841.000000	98.437422 
3840.000000	98.437771 
3839.000000	98.438159 
3838.000000	98.438558 
3837.000000	98.438943 
3836.000000	98.439305 
3835.000000	98.439648 
3834.000000	98.439980 
3833.000000	98.440303 
3832.000000	98.440615 
3831.000000	98.440917 
3830.000000	98.441208 
3829.000000	98.441491 
3828.000000	98.441767 
3827.000000	98.442027 
3826.000000	98.442265 
3825.000000	98.442493 
3824.000000	98.442727 
3823.000000	98.442970 
3822.000000	98.443220 
3821.000000	98.443492 
3820.000000	98.443820 
3819.000000	98.444215 
3818.000000	98.444643 
3817.000000	98.445053 
3816.000000	98.445425 
3815.000000	98.445778 
3814.000000	98.446124 
3813.000000	98.446450 
3812.000000	98.446749 
3811.000000	98.447030 
3810.000000	98.447312 
3809.000000	98.447597 
3808.000000	98.447869 
3807.000000	98.448117 
3806.000000	98.448355 
3805.000000	98.448603 
3804.000000	98.448859 
3803.000000	98.449100 
3802.000000	98.449313 
3801.000000	98.449513 
3800.000000	98.449707 
3799.000000	98.449872 
3798.000000	98.449981 
3797.000000	98.450033 
3796.000000	98.450058 
3795.000000	98.450075 
3794.000000	98.450080 
3793.000000	98.450062 
3792.000000	98.450019 
3791.000000	98.449955 
3790.000000	98.449872 
3789.000000	98.449776 
3788.000000	98.449679 
3787.000000	98.449589 
3786.000000	98.449509 
3785.000000	98.449448 
3784.000000	98.449418 
3783.000000	98.449418 
3782.000000	98.449430 
3781.000000	98.449440 
3780.000000	98.449457 
3779.000000	98.449484 
3778.000000	98.449501 
3777.000000	98.449472 
3776.000000	98.449386 
3775.000000	98.449268 
3774.000000	98.449154 
3773.000000	98.449061 
3772.000000	98.448987 
3771.000000	98.448932 
3770.000000	98.448904 
3769.000000	98.448905 
3768.000000	98.448916 
3767.000000	98.448914 
3766.000000	98.448893 
3765.000000	98.448871 
3764.000000	98.448863 
3763.000000	98.448860 
3762.000000	98.448837 
3761.000000	98.448783 
3760.000000	98.448703 
3759.000000	98.448605 
3758.000000	98.448479 
3757.000000	98.448323 
3756.000000	98.448154 
3755.000000	98.447987 
3754.000000	98.447822 
3753.000000	98.447658 
3752.000000	98.447505 
3751.000000	98.447374 
3750.000000	98.447248 
3749.000000	98.447105 
3748.000000	98.446936 
3747.000000	98.446736 
3746.000000	98.446473 
3745.000000	98.446114 
3744.000000	98.445656 
3743.000000	98.445101 
3742.000000	98.444420 
3741.000000	98.443583 
3740.000000	98.442592 
3739.000000	98.441471 
3738.000000	98.440291 
3737.000000	98.439075 
3736.000000	98.437429 
3735.000000	98.435277 
3734.000000	98.433383 
3733.000000	98.431886 
3732.000000	98.430003 
3731.000000	98.427874 
3730.000000	98.426690 
3729.000000	98.426632 
3728.000000	98.425881 
3727.000000	98.423074 
3726.000000	98.420051 
3725.000000	98.419023 
3724.000000	98.418707 
3723.000000	98.416611 
3722.000000	98.413035 
3721.000000	98.409939 
3720.000000	98.407674 
3719.000000	98.405177 
3718.000000	98.401275 
3717.000000	98.397006 
3716.000000	98.394658 
3715.000000	98.393686 
3714.000000	98.391311 
3713.000000	98.387384 
3712.000000	98.385574 
3711.000000	98.386958 
3710.000000	98.387198 
3709.000000	98.382644 
3708.000000	98.372840 
3707.000000	98.359814 
3706.000000	98.346934 
3705.000000	98.336813 
3704.000000	98.329337 
3703.000000	98.322227 
3702.000000	98.313323 
3701.000000	98.302498 
3700.000000	98.291746 
3699.000000	98.282711 
3698.000000	98.274141 
3697.000000	98.264511 
3696.000000	98.256086 
3695.000000	98.251024 
3694.000000	98.247335 
3693.000000	98.242496 
3692.000000	98.237658 
3691.000000	98.235064 
3690.000000	98.233339 
3689.000000	98.229839 
3688.000000	98.224952 
3687.000000	98.220922 
3686.000000	98.217579 
3685.000000	98.212369 
3684.000000	98.204546 
3683.000000	98.196714 
3682.000000	98.190671 
3681.000000	98.184467 
3680.000000	98.176453 
3679.000000	98.168328 
3678.000000	98.161781 
3677.000000	98.154596 
3676.000000	98.145188 
3675.000000	98.136017 
3674.000000	98.129026 
3673.000000	98.123191 
3672.000000	98.116641 
3671.000000	98.108898 
3670.000000	98.101093 
3669.000000	98.094062 
3668.000000	98.087329 
3667.000000	98.080319 
3666.000000	98.073006 
3665.000000	98.065622 
3664.000000	98.058417 
3663.000000	98.051461 
3662.000000	98.044502 
3661.000000	98.037236 
3660.000000	98.029860 
3659.000000	98.022911 
3658.000000	98.016417 
3657.000000	98.009319 
3656.000000	98.001252 
3655.000000	97.993622 
3654.000000	97.987607 
3653.000000	97.982033 
3652.000000	97.973918 
3651.000000	97.962964 
3650.000000	97.954194 
3649.000000	97.950644 
3648.000000	97.948110 
3647.000000	97.942951 
3646.000000	97.937063 
3645.000000	97.932922 
3644.000000	97.929804 
3643.000000	97.925933 
3642.000000	97.921453 
3641.000000	97.918262 
3640.000000	97.916276 
3639.000000	97.912949 
3638.000000	97.907777 
3637.000000	97.902978 
3636.000000	97.898496 
3635.000000	97.889604 
3634.000000	97.874898 
3633.000000	97.861683 
3632.000000	97.857666 
3631.000000	97.859134 
3630.000000	97.854077 
3629.000000	97.842950 
3628.000000	97.837035 
3627.000000	97.836670 
3626.000000	97.833639 
3625.000000	97.824783 
3624.000000	97.814964 
3623.000000	97.810849 
3622.000000	97.811794 
3621.000000	97.810112 
3620.000000	97.802553 
3619.000000	97.795516 
3618.000000	97.795220 
3617.000000	97.802105 
3616.000000	97.813905 
3615.000000	97.826662 
3614.000000	97.837778 
3613.000000	97.848564 
3612.000000	97.860345 
3611.000000	97.869836 
3610.000000	97.872230 
3609.000000	97.867963 
3608.000000	97.863229 
3607.000000	97.862410 
3606.000000	97.863623 
3605.000000	97.864713 
3604.000000	97.867563 
3603.000000	97.875055 
3602.000000	97.886004 
3601.000000	97.895057 
3600.000000	97.899726 
3599.000000	97.901617 
3598.000000	97.903231 
3597.000000	97.906206 
3596.000000	97.911314 
3595.000000	97.916369 
3594.000000	97.918877 
3593.000000	97.918435 
3592.000000	97.917030 
3591.000000	97.916663 
3590.000000	97.916068 
3589.000000	97.912196 
3588.000000	97.905801 
3587.000000	97.901608 
3586.000000	97.901538 
3585.000000	97.903672 
3584.000000	97.906509 
3583.000000	97.910219 
3582.000000	97.914935 
3581.000000	97.919118 
3580.000000	97.920943 
3579.000000	97.919710 
3578.000000	97.916197 
3577.000000	97.911872 
3576.000000	97.908272 
3575.000000	97.906147 
3574.000000	97.905184 
3573.000000	97.904792 
3572.000000	97.904761 
3571.000000	97.905520 
3570.000000	97.906511 
3569.000000	97.905479 
3568.000000	97.901822 
3567.000000	97.898920 
3566.000000	97.899407 
3565.000000	97.901461 
3564.000000	97.901911 
3563.000000	97.899898 
3562.000000	97.897097 
3561.000000	97.895600 
3560.000000	97.895852 
3559.000000	97.896779 
3558.000000	97.897118 
3557.000000	97.896554 
3556.000000	97.895533 
3555.000000	97.894295 
3554.000000	97.892345 
3553.000000	97.889385 
3552.000000	97.886295 
3551.000000	97.884442 
3550.000000	97.884245 
3549.000000	97.884876 
3548.000000	97.885285 
3547.000000	97.885037 
3546.000000	97.884206 
3545.000000	97.883257 
3544.000000	97.883095 
3543.000000	97.884388 
3542.000000	97.886763 
3541.000000	97.889261 
3540.000000	97.891338 
3539.000000	97.892976 
3538.000000	97.894031 
3537.000000	97.894180 
3536.000000	97.893497 
3535.000000	97.892423 
3534.000000	97.891370 
3533.000000	97.890573 
3532.000000	97.890395 
3531.000000	97.891122 
3530.000000	97.892385 
3529.000000	97.893197 
3528.000000	97.892912 
3527.000000	97.891852 
3526.000000	97.890882 
3525.000000	97.890621 
3524.000000	97.891233 
3523.000000	97.892605 
3522.000000	97.894276 
3521.000000	97.895515 
3520.000000	97.895861 
3519.000000	97.895479 
3518.000000	97.894948 
3517.000000	97.894609 
3516.000000	97.894327 
3515.000000	97.893937 
3514.000000	97.893692 
3513.000000	97.893947 
3512.000000	97.894589 
3511.000000	97.895079 
3510.000000	97.895103 
3509.000000	97.894912 
3508.000000	97.894961 
3507.000000	97.895377 
3506.000000	97.895857 
3505.000000	97.896007 
3504.000000	97.895765 
3503.000000	97.895457 
3502.000000	97.895472 
3501.000000	97.895930 
3500.000000	97.896641 
3499.000000	97.897207 
3498.000000	97.897215 
3497.000000	97.896517 
3496.000000	97.895344 
3495.000000	97.894185 
3494.000000	97.893590 
3493.000000	97.893995 
3492.000000	97.895358 
3491.000000	97.896935 
3490.000000	97.897805 
3489.000000	97.897707 
3488.000000	97.897034 
3487.000000	97.895989 
3486.000000	97.894241 
3485.000000	97.891715 
3484.000000	97.889066 
3483.000000	97.886886 
3482.000000	97.885037 
3481.000000	97.883211 
3480.000000	97.881745 
3479.000000	97.881202 
3478.000000	97.881350 
3477.000000	97.881189 
3476.000000	97.880113 
3475.000000	97.878545 
3474.000000	97.877290 
3473.000000	97.876677 
3472.000000	97.876465 
3471.000000	97.876264 
3470.000000	97.875855 
3469.000000	97.875224 
3468.000000	97.874487 
3467.000000	97.873839 
3466.000000	97.873395 
3465.000000	97.873003 
3464.000000	97.872278 
3463.000000	97.870904 
3462.000000	97.868924 
3461.000000	97.866733 
3460.000000	97.864794 
3459.000000	97.863295 
3458.000000	97.862070 
3457.000000	97.860803 
3456.000000	97.859301 
3455.000000	97.857629 
3454.000000	97.856009 
3453.000000	97.854613 
3452.000000	97.853474 
3451.000000	97.852508 
3450.000000	97.851548 
3449.000000	97.850412 
3448.000000	97.849017 
3447.000000	97.847436 
3446.000000	97.845813 
3445.000000	97.844266 
3444.000000	97.842838 
3443.000000	97.841516 
3442.000000	97.840265 
3441.000000	97.839023 
3440.000000	97.837716 
3439.000000	97.836308 
3438.000000	97.834813 
3437.000000	97.833290 
3436.000000	97.831820 
3435.000000	97.830471 
3434.000000	97.829274 
3433.000000	97.828170 
3432.000000	97.827024 
3431.000000	97.825728 
3430.000000	97.824271 
3429.000000	97.822741 
3428.000000	97.821215 
3427.000000	97.819666 
3426.000000	97.818003 
3425.000000	97.816229 
3424.000000	97.814505 
3423.000000	97.813014 
3422.000000	97.811796 
3421.000000	97.810792 
3420.000000	97.809992 
3419.000000	97.809338 
3418.000000	97.808536 
3417.000000	97.807221 
3416.000000	97.805457 
3415.000000	97.803868 
3414.000000	97.802963 
3413.000000	97.802512 
3412.000000	97.801835 
3411.000000	97.800730 
3410.000000	97.799781 
3409.000000	97.799719 
3408.000000	97.800608 
3407.000000	97.801643 
3406.000000	97.801763 
3405.000000	97.800551 
3404.000000	97.798561 
3403.000000	97.796593 
3402.000000	97.794820 
3401.000000	97.792984 
3400.000000	97.791258 
3399.000000	97.790268 
3398.000000	97.790196 
3397.000000	97.790383 
3396.000000	97.790075 
3395.000000	97.789330 
3394.000000	97.788841 
3393.000000	97.789096 
3392.000000	97.789894 
3391.000000	97.790576 
3390.000000	97.790566 
3389.000000	97.789789 
3388.000000	97.788734 
3387.000000	97.788145 
3386.000000	97.788552 
3385.000000	97.789906 
3384.000000	97.791498 
3383.000000	97.792390 
3382.000000	97.792307 
3381.000000	97.792089 
3380.000000	97.792899 
3379.000000	97.794977 
3378.000000	97.797639 
3377.000000	97.800447 
3376.000000	97.803584 
3375.000000	97.806867 
3374.000000	97.809185 
3373.000000	97.809687 
3372.000000	97.809064 
3371.000000	97.809044 
3370.000000	97.810536 
3369.000000	97.812796 
3368.000000	97.814454 
3367.000000	97.814933 
3366.000000	97.814664 
3365.000000	97.814381 
3364.000000	97.814553 
3363.000000	97.815343 
3362.000000	97.816719 
3361.000000	97.818444 
3360.000000	97.820132 
3359.000000	97.821474 
3358.000000	97.822490 
3357.000000	97.823566 
3356.000000	97.825183 
3355.000000	97.827525 
3354.000000	97.830356 
3353.000000	97.833202 
3352.000000	97.835633 
3351.000000	97.837443 
3350.000000	97.838676 
3349.000000	97.839566 
3348.000000	97.840437 
3347.000000	97.841529 
3346.000000	97.842874 
3345.000000	97.844311 
3344.000000	97.845634 
3343.000000	97.846763 
3342.000000	97.847811 
3341.000000	97.848975 
3340.000000	97.850303 
3339.000000	97.851678 
3338.000000	97.852959 
3337.000000	97.854097 
3336.000000	97.855129 
3335.000000	97.856146 
3334.000000	97.857216 
3333.000000	97.858351 
3332.000000	97.859527 
3331.000000	97.860708 
3330.000000	97.861826 
3329.000000	97.862809 
3328.000000	97.863673 
3327.000000	97.864582 
3326.000000	97.865731 
3325.000000	97.867170 
3324.000000	97.868708 
3323.000000	97.870041 
3322.000000	97.871036 
3321.000000	97.871855 
3320.000000	97.872837 
3319.000000	97.874126 
3318.000000	97.875513 
3317.000000	97.876665 
3316.000000	97.877488 
3315.000000	97.878150 
3314.000000	97.878825 
3313.000000	97.879511 
3312.000000	97.880145 
3311.000000	97.880789 
3310.000000	97.881609 
3309.000000	97.882688 
3308.000000	97.883906 
3307.000000	97.885011 
3306.000000	97.885831 
3305.000000	97.886405 
3304.000000	97.886950 
3303.000000	97.887705 
3302.000000	97.888762 
3301.000000	97.889998 
3300.000000	97.891112 
3299.000000	97.891804 
3298.000000	97.892025 
3297.000000	97.892154 
3296.000000	97.892766 
3295.000000	97.894116 
3294.000000	97.895950 
3293.000000	97.897800 
3292.000000	97.899447 
3291.000000	97.900949 
3290.000000	97.902375 
3289.000000	97.903701 
3288.000000	97.904904 
3287.000000	97.906007 
3286.000000	97.907006 
3285.000000	97.907856 
3284.000000	97.908590 
3283.000000	97.909384 
3282.000000	97.910415 
3281.000000	97.911693 
3280.000000	97.913018 
3279.000000	97.914116 
3278.000000	97.914894 
3277.000000	97.915493 
3276.000000	97.916192 
3275.000000	97.917144 
3274.000000	97.918302 
3273.000000	97.919541 
3272.000000	97.920815 
3271.000000	97.922155 
3270.000000	97.923512 
3269.000000	97.924695 
3268.000000	97.925545 
3267.000000	97.926123 
3266.000000	97.926703 
3265.000000	97.927544 
3264.000000	97.928683 
3263.000000	97.929911 
3262.000000	97.930967 
3261.000000	97.931792 
3260.000000	97.932509 
3259.000000	97.933183 
3258.000000	97.933722 
3257.000000	97.934118 
3256.000000	97.934680 
3255.000000	97.935734 
3254.000000	97.937222 
3253.000000	97.938745 
3252.000000	97.940043 
3251.000000	97.941240 
3250.000000	97.942510 
3249.000000	97.943686 
3248.000000	97.944425 
3247.000000	97.944693 
3246.000000	97.944906 
3245.000000	97.945505 
3244.000000	97.946503 
3243.000000	97.947518 
3242.000000	97.948173 
3241.000000	97.948458 
3240.000000	97.948743 
3239.000000	97.949503 
3238.000000	97.950946 
3237.000000	97.952981 
3236.000000	97.955464 
3235.000000	97.958221 
3234.000000	97.960898 
3233.000000	97.962977 
3232.000000	97.964168 
3231.000000	97.964678 
3230.000000	97.964866 
3229.000000	97.964836 
3228.000000	97.964625 
3227.000000	97.964634 
3226.000000	97.965471 
3225.000000	97.967297 
3224.000000	97.969584 
3223.000000	97.971667 
3222.000000	97.973393 
3221.000000	97.975014 
3220.000000	97.976597 
3219.000000	97.977900 
3218.000000	97.978837 
3217.000000	97.979752 
3216.000000	97.981096 
3215.000000	97.982983 
3214.000000	97.985118 
3213.000000	97.987024 
3212.000000	97.988301 
3211.000000	97.988818 
3210.000000	97.988781 
3209.000000	97.988708 
3208.000000	97.989167 
3207.000000	97.990425 
3206.000000	97.992360 
3205.000000	97.994645 
3204.000000	97.996997 
3203.000000	97.999342 
3202.000000	98.001683 
3201.000000	98.003862 
3200.000000	98.005539 
3199.000000	98.006537 
3198.000000	98.007209 
3197.000000	98.008305 
3196.000000	98.010328 
3195.000000	98.012992 
3194.000000	98.015297 
3193.000000	98.016308 
3192.000000	98.015969 
3191.000000	98.015286 
3190.000000	98.015475 
3189.000000	98.016726 
3188.000000	98.018034 
3187.000000	98.018461 
3186.000000	98.018411 
3185.000000	98.019135 
3184.000000	98.021126 
3183.000000	98.023742 
3182.000000	98.026385 
3181.000000	98.029308 
3180.000000	98.032875 
3179.000000	98.036575 
3178.000000	98.039356 
3177.000000	98.040717 
3176.000000	98.041075 
3175.000000	98.041382 
3174.000000	98.042707 
3173.000000	98.045840 
3172.000000	98.050610 
3171.000000	98.055485 
3170.000000	98.058489 
3169.000000	98.058754 
3168.000000	98.057086 
3167.000000	98.055288 
3166.000000	98.054937 
3165.000000	98.056454 
3164.000000	98.058791 
3163.000000	98.060090 
3162.000000	98.059231 
3161.000000	98.056872 
3160.000000	98.054820 
3159.000000	98.054270 
3158.000000	98.055054 
3157.000000	98.056457 
3156.000000	98.058088 
3155.000000	98.059704 
3154.000000	98.060799 
3153.000000	98.061019 
3152.000000	98.060849 
3151.000000	98.061388 
3150.000000	98.063340 
3149.000000	98.066492 
3148.000000	98.070216 
3147.000000	98.074207 
3146.000000	98.078515 
3145.000000	98.082886 
3144.000000	98.086333 
3143.000000	98.087710 
3142.000000	98.086890 
3141.000000	98.085297 
3140.000000	98.084933 
3139.000000	98.086595 
3138.000000	98.089346 
3137.000000	98.091607 
3136.000000	98.092614 
3135.000000	98.092733 
3134.000000	98.092680 
3133.000000	98.092761 
3132.000000	98.092876 
3131.000000	98.093109 
3130.000000	98.094002 
3129.000000	98.096073 
3128.000000	98.099228 
3127.000000	98.102882 
3126.000000	98.106586 
3125.000000	98.110234 
3124.000000	98.113521 
3123.000000	98.115627 
3122.000000	98.115926 
3121.000000	98.114802 
3120.000000	98.113394 
3119.000000	98.112549 
3118.000000	98.112387 
3117.000000	98.112898 
3116.000000	98.114329 
3115.000000	98.116705 
3114.000000	98.119430 
3113.000000	98.121776 
3112.000000	98.123618 
3111.000000	98.125365 
3110.000000	98.127210 
3109.000000	98.128792 
3108.000000	98.129787 
3107.000000	98.130576 
3106.000000	98.131989 
3105.000000	98.134290 
3104.000000	98.136664 
3103.000000	98.137906 
3102.000000	98.137540 
3101.000000	98.136188 
3100.000000	98.134901 
3099.000000	98.134315 
3098.000000	98.134647 
3097.000000	98.136153 
3096.000000	98.138956 
3095.000000	98.142463 
3094.000000	98.145529 
3093.000000	98.147470 
3092.000000	98.148699 
3091.000000	98.149999 
3090.000000	98.151364 
3089.000000	98.151944 
3088.000000	98.151030 
3087.000000	98.148888 
3086.000000	98.146721 
3085.000000	98.145699 
3084.000000	98.145838 
3083.000000	98.146009 
3082.000000	98.145310 
3081.000000	98.144296 
3080.000000	98.144295 
3079.000000	98.145618 
3078.000000	98.147255 
3077.000000	98.148557 
3076.000000	98.150246 
3075.000000	98.152969 
3074.000000	98.155662 
3073.000000	98.156526 
3072.000000	98.155447 
3071.000000	98.154272 
3070.000000	98.154673 
3069.000000	98.156758 
3068.000000	98.159683 
3067.000000	98.162526 
3066.000000	98.164292 
3065.000000	98.164118 
3064.000000	98.161956 
3063.000000	98.158554 
3062.000000	98.154752 
3061.000000	98.151434 
3060.000000	98.149898 
3059.000000	98.151190 
3058.000000	98.154947 
3057.000000	98.159673 
3056.000000	98.163976 
3055.000000	98.166585 
3054.000000	98.165679 
3053.000000	98.160184 
3052.000000	98.152402 
3051.000000	98.147500 
3050.000000	98.148813 
3049.000000	98.154498 
3048.000000	98.159685 
3047.000000	98.161151 
3046.000000	98.158719 
3045.000000	98.153302 
3044.000000	98.145932 
3043.000000	98.138832 
3042.000000	98.135283 
3041.000000	98.136731 
3040.000000	98.140573 
3039.000000	98.142273 
3038.000000	98.139730 
3037.000000	98.134753 
3036.000000	98.130256 
3035.000000	98.126778 
3034.000000	98.122425 
3033.000000	98.115470 
3032.000000	98.106034 
3031.000000	98.095670 
3030.000000	98.086127 
3029.000000	98.078307 
3028.000000	98.071599 
3027.000000	98.064217 
3026.000000	98.055050 
3025.000000	98.045243 
3024.000000	98.037111 
3023.000000	98.031318 
3022.000000	98.026215 
3021.000000	98.020348 
3020.000000	98.014216 
3019.000000	98.008554 
3018.000000	98.002057 
3017.000000	97.992427 
3016.000000	97.979244 
3015.000000	97.964493 
3014.000000	97.950547 
3013.000000	97.938675 
3012.000000	97.928973 
3011.000000	97.920297 
3010.000000	97.910290 
3009.000000	97.896801 
3008.000000	97.879701 
3007.000000	97.860946 
3006.000000	97.843138 
3005.000000	97.828509 
3004.000000	97.818417 
3003.000000	97.812356 
3002.000000	97.807684 
3001.000000	97.801684 
3000.000000	97.793856 
2999.000000	97.784945 
2998.000000	97.774402 
2997.000000	97.760906 
2996.000000	97.745402 
2995.000000	97.731144 
2994.000000	97.719291 
2993.000000	97.706296 
2992.000000	97.687797 
2991.000000	97.664680 
2990.000000	97.643661 
2989.000000	97.631557 
2988.000000	97.630042 
2987.000000	97.635587 
2986.000000	97.643155 
2985.000000	97.649720 
2984.000000	97.654873 
2983.000000	97.659246 
2982.000000	97.663153 
2981.000000	97.666473 
2980.000000	97.668922 
2979.000000	97.669828 
2978.000000	97.668121 
2977.000000	97.663430 
2976.000000	97.657159 
2975.000000	97.651714 
2974.000000	97.648634 
2973.000000	97.648176 
2972.000000	97.650551 
2971.000000	97.656382 
2970.000000	97.665505 
2969.000000	97.676283 
2968.000000	97.686896 
2967.000000	97.696819 
2966.000000	97.706288 
2965.000000	97.714773 
2964.000000	97.720993 
2963.000000	97.724494 
2962.000000	97.726588 
2961.000000	97.729459 
2960.000000	97.734606 
2959.000000	97.742209 
2958.000000	97.751647 
2957.000000	97.762103 
2956.000000	97.772423 
2955.000000	97.780864 
2954.000000	97.786036 
2953.000000	97.788755 
2952.000000	97.792365 
2951.000000	97.800040 
2950.000000	97.811354 
2949.000000	97.822130 
2948.000000	97.828152 
2947.000000	97.828759 
2946.000000	97.826934 
2945.000000	97.826385 
2944.000000	97.828437 
2943.000000	97.831322 
2942.000000	97.832209 
2941.000000	97.830081 
2940.000000	97.826884 
2939.000000	97.825803 
2938.000000	97.828341 
2937.000000	97.833398 
2936.000000	97.838787 
2935.000000	97.842730 
2934.000000	97.843907 
2933.000000	97.841471 
2932.000000	97.836200 
2931.000000	97.831176 
2930.000000	97.829996 
2929.000000	97.833657 
2928.000000	97.839332 
2927.000000	97.842467 
2926.000000	97.840390 
2925.000000	97.834488 
2924.000000	97.829218 
2923.000000	97.828396 
2922.000000	97.831962 
2921.000000	97.836449 
2920.000000	97.838755 
2919.000000	97.838881 
2918.000000	97.838524 
2917.000000	97.837813 
2916.000000	97.834827 
2915.000000	97.828544 
2914.000000	97.821022 
2913.000000	97.815743 
2912.000000	97.814162 
2911.000000	97.814642 
2910.000000	97.814591 
2909.000000	97.813055 
2908.000000	97.811061 
2907.000000	97.809815 
2906.000000	97.808901 
2905.000000	97.806281 
2904.000000	97.800227 
2903.000000	97.792110 
2902.000000	97.786854 
2901.000000	97.789443 
2900.000000	97.800761 
2899.000000	97.816458 
2898.000000	97.830487 
2897.000000	97.839770 
2896.000000	97.844827 
2895.000000	97.846980 
2894.000000	97.847016 
2893.000000	97.846566 
2892.000000	97.848501 
2891.000000	97.854253 
2890.000000	97.861813 
2889.000000	97.868004 
2888.000000	97.872123 
2887.000000	97.875665 
2886.000000	97.879050 
2885.000000	97.881166 
2884.000000	97.882584 
2883.000000	97.886585 
2882.000000	97.895369 
2881.000000	97.907015 
2880.000000	97.918014 
2879.000000	97.927762 
2878.000000	97.938134 
2877.000000	97.949183 
2876.000000	97.958060 
2875.000000	97.962887 
2874.000000	97.965519 
2873.000000	97.969209 
2872.000000	97.974903 
2871.000000	97.981207 
2870.000000	97.986988 
2869.000000	97.992287 
2868.000000	97.997112 
2867.000000	98.001079 
2866.000000	98.004522 
2865.000000	98.008715 
2864.000000	98.014487 
2863.000000	98.021521 
2862.000000	98.029370 
2861.000000	98.038190 
2860.000000	98.047798 
2859.000000	98.056914 
2858.000000	98.064436 
2857.000000	98.071224 
2856.000000	98.079556 
2855.000000	98.090565 
2854.000000	98.102738 
2853.000000	98.113179 
2852.000000	98.120040 
2851.000000	98.123814 
2850.000000	98.126958 
2849.000000	98.132279 
2848.000000	98.140754 
2847.000000	98.150392 
2846.000000	98.157711 
2845.000000	98.160984 
2844.000000	98.161981 
2843.000000	98.164213 
2842.000000	98.169429 
2841.000000	98.176203 
2840.000000	98.181793 
2839.000000	98.184775 
2838.000000	98.185794 
2837.000000	98.186471 
2836.000000	98.188096 
2835.000000	98.191038 
2834.000000	98.194851 
2833.000000	98.198834 
2832.000000	98.202628 
2831.000000	98.206255 
2830.000000	98.209573 
2829.000000	98.212090 
2828.000000	98.213620 
2827.000000	98.214912 
2826.000000	98.217167 
2825.000000	98.220816 
2824.000000	98.224945 
2823.000000	98.227985 
2822.000000	98.228873 
2821.000000	98.227749 
2820.000000	98.225920 
2819.000000	98.225146 
2818.000000	98.226499 
2817.000000	98.229685 
2816.000000	98.233544 
2815.000000	98.237187 
2814.000000	98.240363 
2813.000000	98.242744 
2812.000000	98.243534 
2811.000000	98.242326 
2810.000000	98.240103 
2809.000000	98.238711 
2808.000000	98.239241 
2807.000000	98.241330 
2806.000000	98.244027 
2805.000000	98.246742 
2804.000000	98.249211 
2803.000000	98.251113 
2802.000000	98.252295 
2801.000000	98.253200 
2800.000000	98.254528 
2799.000000	98.256392 
2798.000000	98.258119 
2797.000000	98.259037 
2796.000000	98.259184 
2795.000000	98.259142 
2794.000000	98.259447 
2793.000000	98.260212 
2792.000000	98.261264 
2791.000000	98.262393 
2790.000000	98.263470 
2789.000000	98.264445 
2788.000000	98.265335 
2787.000000	98.266193 
2786.000000	98.267061 
2785.000000	98.267945 
2784.000000	98.268829 
2783.000000	98.269703 
2782.000000	98.270566 
2781.000000	98.271420 
2780.000000	98.272268 
2779.000000	98.273106 
2778.000000	98.273928 
2777.000000	98.274735 
2776.000000	98.275527 
2775.000000	98.276310 
2774.000000	98.277086 
2773.000000	98.277856 
2772.000000	98.278620 
2771.000000	98.279378 
2770.000000	98.280140 
2769.000000	98.280915 
2768.000000	98.281704 
2767.000000	98.282498 
2766.000000	98.283284 
2765.000000	98.284054 
2764.000000	98.284809 
2763.000000	98.285555 
2762.000000	98.286297 
2761.000000	98.287037 
2760.000000	98.287775 
2759.000000	98.288512 
2758.000000	98.289250 
2757.000000	98.289991 
2756.000000	98.290735 
2755.000000	98.291487 
2754.000000	98.292257 
2753.000000	98.293048 
2752.000000	98.293857 
2751.000000	98.294672 
2750.000000	98.295476 
2749.000000	98.296256 
2748.000000	98.297008 
2747.000000	98.297725 
2746.000000	98.298410 
2745.000000	98.299073 
2744.000000	98.299733 
2743.000000	98.300405 
2742.000000	98.301096 
2741.000000	98.301800 
2740.000000	98.302503 
2739.000000	98.303192 
2738.000000	98.303865 
2737.000000	98.304527 
2736.000000	98.305190 
2735.000000	98.305865 
2734.000000	98.306558 
2733.000000	98.307263 
2732.000000	98.307964 
2731.000000	98.308644 
2730.000000	98.309304 
2729.000000	98.309959 
2728.000000	98.310612 
2727.000000	98.311229 
2726.000000	98.311767 
2725.000000	98.312230 
2724.000000	98.312674 
2723.000000	98.313146 
2722.000000	98.313651 
2721.000000	98.314166 
2720.000000	98.314673 
2719.000000	98.315177 
2718.000000	98.315684 
2717.000000	98.316196 
2716.000000	98.316716 
2715.000000	98.317243 
2714.000000	98.317781 
2713.000000	98.318325 
2712.000000	98.318858 
2711.000000	98.319360 
2710.000000	98.319825 
2709.000000	98.320262 
2708.000000	98.320703 
2707.000000	98.321179 
2706.000000	98.321704 
2705.000000	98.322267 
2704.000000	98.322843 
2703.000000	98.323406 
2702.000000	98.323949 
2701.000000	98.324487 
2700.000000	98.325048 
2699.000000	98.325635 
2698.000000	98.326224 
2697.000000	98.326773 
2696.000000	98.327259 
2695.000000	98.327698 
2694.000000	98.328140 
2693.000000	98.328619 
2692.000000	98.329121 
2691.000000	98.329595 
2690.000000	98.330013 
2689.000000	98.330390 
2688.000000	98.330766 
2687.000000	98.331168 
2686.000000	98.331606 
2685.000000	98.332097 
2684.000000	98.332649 
2683.000000	98.333220 
2682.000000	98.333732 
2681.000000	98.334147 
2680.000000	98.334504 
2679.000000	98.334873 
2678.000000	98.335304 
2677.000000	98.335847 
2676.000000	98.336538 
2675.000000	98.337271 
2674.000000	98.337792 
2673.000000	98.337960 
2672.000000	98.337946 
2671.000000	98.338047 
2670.000000	98.338293 
2669.000000	98.338486 
2668.000000	98.338545 
2667.000000	98.338618 
2666.000000	98.338829 
2665.000000	98.339082 
2664.000000	98.339197 
2663.000000	98.339164 
2662.000000	98.339163 
2661.000000	98.339336 
2660.000000	98.339597 
2659.000000	98.339699 
2658.000000	98.339493 
2657.000000	98.339109 
2656.000000	98.338868 
2655.000000	98.338951 
2654.000000	98.339186 
2653.000000	98.339223 
2652.000000	98.338961 
2651.000000	98.338696 
2650.000000	98.338783 
2649.000000	98.339224 
2648.000000	98.339685 
2647.000000	98.339842 
2646.000000	98.339574 
2645.000000	98.338812 
2644.000000	98.337477 
2643.000000	98.335768 
2642.000000	98.334326 
2641.000000	98.333765 
2640.000000	98.334079 
2639.000000	98.334679 
2638.000000	98.335056 
2637.000000	98.335258 
2636.000000	98.335555 
2635.000000	98.335979 
2634.000000	98.336373 
2633.000000	98.336588 
2632.000000	98.336427 
2631.000000	98.335693 
2630.000000	98.334580 
2629.000000	98.333733 
2628.000000	98.333626 
2627.000000	98.334024 
2626.000000	98.334341 
2625.000000	98.334381 
2624.000000	98.334373 
2623.000000	98.334366 
2622.000000	98.334058 
2621.000000	98.333274 
2620.000000	98.332173 
2619.000000	98.330918 
2618.000000	98.329554 
2617.000000	98.328344 
2616.000000	98.327811 
2615.000000	98.328146 
2614.000000	98.328816 
2613.000000	98.329124 
2612.000000	98.329015 
2611.000000	98.328959 
2610.000000	98.329197 
2609.000000	98.329417 
2608.000000	98.329156 
2607.000000	98.328328 
2606.000000	98.327393 
2605.000000	98.327056 
2604.000000	98.327689 
2603.000000	98.328969 
2602.000000	98.330123 
2601.000000	98.330621 
2600.000000	98.330435 
2599.000000	98.329695 
2598.000000	98.328592 
2597.000000	98.327704 
2596.000000	98.327800 
2595.000000	98.328932 
2594.000000	98.330222 
2593.000000	98.331010 
2592.000000	98.331705 
2591.000000	98.332756 
2590.000000	98.333308 
2589.000000	98.331942 
2588.000000	98.328640 
2587.000000	98.325279 
2586.000000	98.323836 
2585.000000	98.324685 
2584.000000	98.326867 
2583.000000	98.329389 
2582.000000	98.331953 
2581.000000	98.334605 
2580.000000	98.337250 
2579.000000	98.339607 
2578.000000	98.341428 
2577.000000	98.342581 
2576.000000	98.342871 
2575.000000	98.342040 
2574.000000	98.340176 
2573.000000	98.337982 
2572.000000	98.336166 
2571.000000	98.334528 
2570.000000	98.332367 
2569.000000	98.329983 
2568.000000	98.328931 
2567.000000	98.330184 
2566.000000	98.332593 
2565.000000	98.333845 
2564.000000	98.332847 
2563.000000	98.330548 
2562.000000	98.328682 
2561.000000	98.328413 
2560.000000	98.330087 
2559.000000	98.333352 
2558.000000	98.337158 
2557.000000	98.340182 
2556.000000	98.341800 
2555.000000	98.342439 
2554.000000	98.342755 
2553.000000	98.342704 
2552.000000	98.341904 
2551.000000	98.340930 
2550.000000	98.341521 
2549.000000	98.344710 
2548.000000	98.348977 
2547.000000	98.351446 
2546.000000	98.351446 
2545.000000	98.351596 
2544.000000	98.354157 
2543.000000	98.357354 
2542.000000	98.357515 
2541.000000	98.354317 
2540.000000	98.351556 
2539.000000	98.352422 
2538.000000	98.356216 
2537.000000	98.360634 
2536.000000	98.364842 
2535.000000	98.368451 
2534.000000	98.369433 
2533.000000	98.365775 
2532.000000	98.358513 
2531.000000	98.351059 
2530.000000	98.345432 
2529.000000	98.340970 
2528.000000	98.336814 
2527.000000	98.333710 
2526.000000	98.332849 
2525.000000	98.334298 
2524.000000	98.337131 
2523.000000	98.340111 
2522.000000	98.341803 
2521.000000	98.341054 
2520.000000	98.338329 
2519.000000	98.336052 
2518.000000	98.336658 
2517.000000	98.340088 
2516.000000	98.343529 
2515.000000	98.344100 
2514.000000	98.341962 
2513.000000	98.340430 
2512.000000	98.342744 
2511.000000	98.349106 
2510.000000	98.357085 
2509.000000	98.364243 
2508.000000	98.369607 
2507.000000	98.373103 
2506.000000	98.375134 
2505.000000	98.376731 
2504.000000	98.378540 
2503.000000	98.379173 
2502.000000	98.376092 
2501.000000	98.368777 
2500.000000	98.359826 
2499.000000	98.352190 
2498.000000	98.346572 
2497.000000	98.342546 
2496.000000	98.340696 
2495.000000	98.342003 
2494.000000	98.345962 
2493.000000	98.350679 
2492.000000	98.354671 
2491.000000	98.357736 
2490.000000	98.360363 
2489.000000	98.363020 
2488.000000	98.365647 
2487.000000	98.367286 
2486.000000	98.366768 
2485.000000	98.364235 
2484.000000	98.361432 
2483.000000	98.360091 
2482.000000	98.360716 
2481.000000	98.363204 
2480.000000	98.367425 
2479.000000	98.372446 
2478.000000	98.376313 
2477.000000	98.377734 
2476.000000	98.377194 
2475.000000	98.375560 
2474.000000	98.372499 
2473.000000	98.367498 
2472.000000	98.361752 
2471.000000	98.357556 
2470.000000	98.356067 
2469.000000	98.356827 
2468.000000	98.358897 
2467.000000	98.361313 
2466.000000	98.362730 
2465.000000	98.362038 
2464.000000	98.359785 
2463.000000	98.358099 
2462.000000	98.358658 
2461.000000	98.361286 
2460.000000	98.364579 
2459.000000	98.367423 
2458.000000	98.369683 
2457.000000	98.371604 
2456.000000	98.373028 
2455.000000	98.373410 
2454.000000	98.372542 
2453.000000	98.371052 
2452.000000	98.370003 
2451.000000	98.370020 
2450.000000	98.371044 
2449.000000	98.372802 
2448.000000	98.375042 
2447.000000	98.377252 
2446.000000	98.378670 
2445.000000	98.378961 
2444.000000	98.378564 
2443.000000	98.378078 
2442.000000	98.377592 
2441.000000	98.376948 
2440.000000	98.376367 
2439.000000	98.376392 
2438.000000	98.377347 
2437.000000	98.379141 
2436.000000	98.381393 
2435.000000	98.383481 
2434.000000	98.384703 
2433.000000	98.384783 
2432.000000	98.384228 
2431.000000	98.383918 
2430.000000	98.384372 
2429.000000	98.385506 
2428.000000	98.386885 
2427.000000	98.387964 
2426.000000	98.388267 
2425.000000	98.387568 
2424.000000	98.386078 
2423.000000	98.384488 
2422.000000	98.383706 
2421.000000	98.384412 
2420.000000	98.386594 
2419.000000	98.389297 
2418.000000	98.391253 
2417.000000	98.392155 
2416.000000	98.392884 
2415.000000	98.394074 
2414.000000	98.395032 
2413.000000	98.394827 
2412.000000	98.393737 
2411.000000	98.392692 
2410.000000	98.391932 
2409.000000	98.391265 
2408.000000	98.391286 
2407.000000	98.392952 
2406.000000	98.395913 
2405.000000	98.398600 
2404.000000	98.400065 
2403.000000	98.400565 
2402.000000	98.400665 
2401.000000	98.400820 
2400.000000	98.401581 
2399.000000	98.403263 
2398.000000	98.405552 
2397.000000	98.408032 
2396.000000	98.410644 
2395.000000	98.412917 
2394.000000	98.413454 
2393.000000	98.411800 
2392.000000	98.409886 
2391.000000	98.410285 
2390.000000	98.413270 
2389.000000	98.416750 
2388.000000	98.418901 
2387.000000	98.419641 
2386.000000	98.419695 
2385.000000	98.419429 
2384.000000	98.419044 
2383.000000	98.418695 
2382.000000	98.417997 
2381.000000	98.416218 
2380.000000	98.413315 
2379.000000	98.410266 
2378.000000	98.407940 
2377.000000	98.406303 
2376.000000	98.405318 
2375.000000	98.405794 
2374.000000	98.408402 
2373.000000	98.412242 
2372.000000	98.415473 
2371.000000	98.417340 
2370.000000	98.418433 
2369.000000	98.419028 
2368.000000	98.418403 
2367.000000	98.416096 
2366.000000	98.412809 
2365.000000	98.409904 
2364.000000	98.408427 
2363.000000	98.408458 
2362.000000	98.409418 
2361.000000	98.410689 
2360.000000	98.411674 
2359.000000	98.412093 
2358.000000	98.411805 
2357.000000	98.410783 
2356.000000	98.409502 
2355.000000	98.408244 
2354.000000	98.406700 
2353.000000	98.404815 
2352.000000	98.403710 
2351.000000	98.404250 
2350.000000	98.405736 
2349.000000	98.406750 
2348.000000	98.406682 
2347.000000	98.405939 
2346.000000	98.405436 
2345.000000	98.405678 
2344.000000	98.406579 
2343.000000	98.407360 
2342.000000	98.407456 
2341.000000	98.406958 
2340.000000	98.406249 
2339.000000	98.405596 
2338.000000	98.404818 
2337.000000	98.403867 
2336.000000	98.403026 
2335.000000	98.402589 
2334.000000	98.402161 
2333.000000	98.401272 
2332.000000	98.400133 
2331.000000	98.399742 
2330.000000	98.400253 
2329.000000	98.401206 
2328.000000	98.401950 
2327.000000	98.402343 
2326.000000	98.402314 
2325.000000	98.401662 
2324.000000	98.400881 
2323.000000	98.400528 
2322.000000	98.400526 
2321.000000	98.399978 
2320.000000	98.398575 
2319.000000	98.397199 
2318.000000	98.396224 
2317.000000	98.395137 
2316.000000	98.392933 
2315.000000	98.390082 
2314.000000	98.387457 
2313.000000	98.385836 
2312.000000	98.384934 
2311.000000	98.384896 
2310.000000	98.385490 
2309.000000	98.386413 
2308.000000	98.386777 
2307.000000	98.386553 
2306.000000	98.386048 
2305.000000	98.385710 
2304.000000	98.385402 
2303.000000	98.385267 
2302.000000	98.385174 
2301.000000	98.385321 
2300.000000	98.385672 
2299.000000	98.386220 
2298.000000	98.385986 
2297.000000	98.383968 
2296.000000	98.380227 
2295.000000	98.376690 
2294.000000	98.375207 
2293.000000	98.375652 
2292.000000	98.376505 
2291.000000	98.376871 
2290.000000	98.377241 
2289.000000	98.378155 
2288.000000	98.379228 
2287.000000	98.379265 
2286.000000	98.377382 
2285.000000	98.373830 
2284.000000	98.370325 
2283.000000	98.368862 
2282.000000	98.370052 
2281.000000	98.372545 
2280.000000	98.374244 
2279.000000	98.373838 
2278.000000	98.371268 
2277.000000	98.367615 
2276.000000	98.364750 
2275.000000	98.364245 
2274.000000	98.366053 
2273.000000	98.369128 
2272.000000	98.373080 
2271.000000	98.377989 
2270.000000	98.382678 
2269.000000	98.385150 
2268.000000	98.385005 
2267.000000	98.383898 
2266.000000	98.383129 
2265.000000	98.382340 
2264.000000	98.381113 
2263.000000	98.380097 
2262.000000	98.379765 
2261.000000	98.379570 
2260.000000	98.379232 
2259.000000	98.379227 
2258.000000	98.379529 
2257.000000	98.379412 
2256.000000	98.379249 
2255.000000	98.380674 
2254.000000	98.383697 
2253.000000	98.385397 
2252.000000	98.383276 
2251.000000	98.378165 
2250.000000	98.372842 
2249.000000	98.368746 
2248.000000	98.365602 
2247.000000	98.363398 
2246.000000	98.362693 
2245.000000	98.363274 
2244.000000	98.363972 
2243.000000	98.363981 
2242.000000	98.363513 
2241.000000	98.363156 
2240.000000	98.363273 
2239.000000	98.363859 
2238.000000	98.364421 
2237.000000	98.364164 
2236.000000	98.362758 
2235.000000	98.360759 
2234.000000	98.359075 
2233.000000	98.358170 
2232.000000	98.357996 
2231.000000	98.358298 
2230.000000	98.358600 
2229.000000	98.358199 
2228.000000	98.356681 
2227.000000	98.354412 
2226.000000	98.352454 
2225.000000	98.351573 
2224.000000	98.351606 
2223.000000	98.352057 
2222.000000	98.352621 
2221.000000	98.353010 
2220.000000	98.352955 
2219.000000	98.352402 
2218.000000	98.351525 
2217.000000	98.350565 
2216.000000	98.349751 
2215.000000	98.349302 
2214.000000	98.349263 
2213.000000	98.349400 
2212.000000	98.349457 
2211.000000	98.349450 
2210.000000	98.349504 
2209.000000	98.349561 
2208.000000	98.349467 
2207.000000	98.349241 
2206.000000	98.349034 
2205.000000	98.348866 
2204.000000	98.348659 
2203.000000	98.348586 
2202.000000	98.348984 
2201.000000	98.349600 
2200.000000	98.349399 
2199.000000	98.347579 
2198.000000	98.344447 
2197.000000	98.341021 
2196.000000	98.338239 
2195.000000	98.336724 
2194.000000	98.336585 
2193.000000	98.337202 
2192.000000	98.337829 
2191.000000	98.338622 
2190.000000	98.340383 
2189.000000	98.343096 
2188.000000	98.345378 
2187.000000	98.345587 
2186.000000	98.342977 
2185.000000	98.338185 
2184.000000	98.333466 
2183.000000	98.331961 
2182.000000	98.335285 
2181.000000	98.341115 
2180.000000	98.344058 
2179.000000	98.340331 
2178.000000	98.330723 
2177.000000	98.319952 
2176.000000	98.312917 
2175.000000	98.311416 
2174.000000	98.314047 
2173.000000	98.318167 
2172.000000	98.322242 
2171.000000	98.326097 
2170.000000	98.328893 
2169.000000	98.328202 
2168.000000	98.322393 
2167.000000	98.313553 
2166.000000	98.306499 
2165.000000	98.304259 
2164.000000	98.305488 
2163.000000	98.306526 
2162.000000	98.305440 
2161.000000	98.304237 
2160.000000	98.307724 
2159.000000	98.319382 
2158.000000	98.337043 
2157.000000	98.353197 
2156.000000	98.361861 
2155.000000	98.363682 
2154.000000	98.363648 
2153.000000	98.365592 
2152.000000	98.369255 
2151.000000	98.371618 
2150.000000	98.369851 
2149.000000	98.363853 
2148.000000	98.357329 
2147.000000	98.355507 
2146.000000	98.360549 
2145.000000	98.369778 
2144.000000	98.378956 
2143.000000	98.386315 
2142.000000	98.391952 
2141.000000	98.395035 
2140.000000	98.394377 
2139.000000	98.391312 
2138.000000	98.389205 
2137.000000	98.389657 
2136.000000	98.390998 
2135.000000	98.390524 
2134.000000	98.386920 
2133.000000	98.381100 
2132.000000	98.376086 
2131.000000	98.375163 
2130.000000	98.378981 
2129.000000	98.384652 
2128.000000	98.388625 
2127.000000	98.390337 
2126.000000	98.391852 
2125.000000	98.394548 
2124.000000	98.397648 
2123.000000	98.399777 
2122.000000	98.400365 
2121.000000	98.399394 
2120.000000	98.396909 
2119.000000	98.393241 
2118.000000	98.389128 
2117.000000	98.385591 
2116.000000	98.383957 
2115.000000	98.385091 
2114.000000	98.387927 
2113.000000	98.389459 
2112.000000	98.387947 
2111.000000	98.385298 
2110.000000	98.384464 
2109.000000	98.385455 
2108.000000	98.385968 
2107.000000	98.385227 
2106.000000	98.384421 
2105.000000	98.383616 
2104.000000	98.381401 
2103.000000	98.377996 
2102.000000	98.375306 
2101.000000	98.373053 
2100.000000	98.368457 
2099.000000	98.361306 
2098.000000	98.356416 
2097.000000	98.358630 
2096.000000	98.367719 
2095.000000	98.379521 
2094.000000	98.390213 
2093.000000	98.397910 
2092.000000	98.401585 
2091.000000	98.401427 
2090.000000	98.399915 
2089.000000	98.400287 
2088.000000	98.403327 
2087.000000	98.406761 
2086.000000	98.408226 
2085.000000	98.407950 
2084.000000	98.407978 
2083.000000	98.409043 
2082.000000	98.409180 
2081.000000	98.406165 
2080.000000	98.400643 
2079.000000	98.395249 
2078.000000	98.390615 
2077.000000	98.384417 
2076.000000	98.375656 
2075.000000	98.367881 
2074.000000	98.365323 
2073.000000	98.366912 
2072.000000	98.366988 
2071.000000	98.362223 
2070.000000	98.355353 
2069.000000	98.351121 
2068.000000	98.350716 
2067.000000	98.351732 
2066.000000	98.351748 
2065.000000	98.350046 
2064.000000	98.346802 
2063.000000	98.342799 
2062.000000	98.340178 
2061.000000	98.341863 
2060.000000	98.349384 
2059.000000	98.361369 
2058.000000	98.373587 
2057.000000	98.381154 
2056.000000	98.381671 
2055.000000	98.376508 
2054.000000	98.369968 
2053.000000	98.366262 
2052.000000	98.366409 
2051.000000	98.367723 
2050.000000	98.366285 
2049.000000	98.360598 
2048.000000	98.353149 
2047.000000	98.347849 
2046.000000	98.346108 
2045.000000	98.346112 
2044.000000	98.345545 
2043.000000	98.344037 
2042.000000	98.342838 
2041.000000	98.343305 
2040.000000	98.346361 
2039.000000	98.352464 
2038.000000	98.360868 
2037.000000	98.368983 
2036.000000	98.373811 
2035.000000	98.374433 
2034.000000	98.372674 
2033.000000	98.371432 
2032.000000	98.372085 
2031.000000	98.373351 
2030.000000	98.372637 
2029.000000	98.368991 
2028.000000	98.364704 
2027.000000	98.363313 
2026.000000	98.365992 
2025.000000	98.370964 
2024.000000	98.376414 
2023.000000	98.382675 
2022.000000	98.390615 
2021.000000	98.398638 
2020.000000	98.402800 
2019.000000	98.400118 
2018.000000	98.391095 
2017.000000	98.379806 
2016.000000	98.371517 
2015.000000	98.368758 
2014.000000	98.369507 
2013.000000	98.368991 
2012.000000	98.364379 
2011.000000	98.357892 
2010.000000	98.354537 
2009.000000	98.356687 
2008.000000	98.361912 
2007.000000	98.365818 
2006.000000	98.366663 
2005.000000	98.366377 
2004.000000	98.367672 
2003.000000	98.370998 
2002.000000	98.374493 
2001.000000	98.376090 
2000.000000	98.375233 
1999.000000	98.372346 
1998.000000	98.367542 
1997.000000	98.361155 
1996.000000	98.355030 
1995.000000	98.351680 
1994.000000	98.351790 
1993.000000	98.353291 
1992.000000	98.353141 
1991.000000	98.350284 
1990.000000	98.346275 
1989.000000	98.343415 
1988.000000	98.342632 
1987.000000	98.342885 
1986.000000	98.342255 
1985.000000	98.339865 
1984.000000	98.336693 
1983.000000	98.334343 
1982.000000	98.333316 
1981.000000	98.333059 
1980.000000	98.333390 
1979.000000	98.334672 
1978.000000	98.336426 
1977.000000	98.337147 
1976.000000	98.336002 
1975.000000	98.333910 
1974.000000	98.332581 
1973.000000	98.332848 
1972.000000	98.334307 
1971.000000	98.336199 
1970.000000	98.338005 
1969.000000	98.339239 
1968.000000	98.339468 
1967.000000	98.338694 
1966.000000	98.337544 
1965.000000	98.336919 
1964.000000	98.337428 
1963.000000	98.339149 
1962.000000	98.341646 
1961.000000	98.344118 
1960.000000	98.345698 
1959.000000	98.345922 
1958.000000	98.345061 
1957.000000	98.344091 
1956.000000	98.343862 
1955.000000	98.344149 
1954.000000	98.343842 
1953.000000	98.342358 
1952.000000	98.340503 
1951.000000	98.339570 
1950.000000	98.340095 
1949.000000	98.342080 
1948.000000	98.345555 
1947.000000	98.350032 
1946.000000	98.353789 
1945.000000	98.355057 
1944.000000	98.353841 
1943.000000	98.351815 
1942.000000	98.350300 
1941.000000	98.349104 
1940.000000	98.347941 
1939.000000	98.347442 
1938.000000	98.348266 
1937.000000	98.350243 
1936.000000	98.352679 
1935.000000	98.354831 
1934.000000	98.355816 
1933.000000	98.355202 
1932.000000	98.354065 
1931.000000	98.354381 
1930.000000	98.356841 
1929.000000	98.359772 
1928.000000	98.361480 
1927.000000	98.362185 
1926.000000	98.362751 
1925.000000	98.362707 
1924.000000	98.360873 
1923.000000	98.357596 
1922.000000	98.354175 
1921.000000	98.350875 
1920.000000	98.347391 
1919.000000	98.344274 
1918.000000	98.342331 
1917.000000	98.340869 
1916.000000	98.338923 
1915.000000	98.337781 
1914.000000	98.339122 
1913.000000	98.341880 
1912.000000	98.343055 
1911.000000	98.341830 
1910.000000	98.340690 
1909.000000	98.341806 
1908.000000	98.345008 
1907.000000	98.348456 
1906.000000	98.349824 
1905.000000	98.347145 
1904.000000	98.340717 
1903.000000	98.335213 
1902.000000	98.335484 
1901.000000	98.340440 
1900.000000	98.345158 
1899.000000	98.347358 
1898.000000	98.348328 
1897.000000	98.348413 
1896.000000	98.345407 
1895.000000	98.338946 
1894.000000	98.331971 
1893.000000	98.326697 
1892.000000	98.322917 
1891.000000	98.320404 
1890.000000	98.319536 
1889.000000	98.319190 
1888.000000	98.317599 
1887.000000	98.315594 
1886.000000	98.314492 
1885.000000	98.312205 
1884.000000	98.305580 
1883.000000	98.296295 
1882.000000	98.289689 
1881.000000	98.287472 
1880.000000	98.286795 
1879.000000	98.285664 
1878.000000	98.285512 
1877.000000	98.288430 
1876.000000	98.293922 
1875.000000	98.300003 
1874.000000	98.305728 
1873.000000	98.310828 
1872.000000	98.315298 
1871.000000	98.319757 
1870.000000	98.324228 
1869.000000	98.326986 
1868.000000	98.326814 
1867.000000	98.325900 
1866.000000	98.326152 
1865.000000	98.325159 
1864.000000	98.320381 
1863.000000	98.314683 
1862.000000	98.313725 
1861.000000	98.318819 
1860.000000	98.326316 
1859.000000	98.333119 
1858.000000	98.339186 
1857.000000	98.344664 
1856.000000	98.348880 
1855.000000	98.351870 
1854.000000	98.354065 
1853.000000	98.354484 
1852.000000	98.353314 
1851.000000	98.353551 
1850.000000	98.357292 
1849.000000	98.363023 
1848.000000	98.367368 
1847.000000	98.369167 
1846.000000	98.369427 
1845.000000	98.368916 
1844.000000	98.368053 
1843.000000	98.367917 
1842.000000	98.369491 
1841.000000	98.372245 
1840.000000	98.375199 
1839.000000	98.378008 
1838.000000	98.380555 
1837.000000	98.382055 
1836.000000	98.381932 
1835.000000	98.381161 
1834.000000	98.381328 
1833.000000	98.382699 
1832.000000	98.384212 
1831.000000	98.384632 
1830.000000	98.383867 
1829.000000	98.383179 
1828.000000	98.383647 
1827.000000	98.385370 
1826.000000	98.387717 
1825.000000	98.389838 
1824.000000	98.391125 
1823.000000	98.391779 
1822.000000	98.392702 
1821.000000	98.394155 
1820.000000	98.395309 
1819.000000	98.395480 
1818.000000	98.395592 
1817.000000	98.396897 
1816.000000	98.398680 
1815.000000	98.399693 
1814.000000	98.400204 
1813.000000	98.401489 
1812.000000	98.403499 
1811.000000	98.404516 
1810.000000	98.403991 
1809.000000	98.402656 
1808.000000	98.400705 
1807.000000	98.398334 
1806.000000	98.396606 
1805.000000	98.396240 
1804.000000	98.396336 
1803.000000	98.396150 
1802.000000	98.396267 
1801.000000	98.397655 
1800.000000	98.399561 
1799.000000	98.400220 
1798.000000	98.399719 
1797.000000	98.398779 
1796.000000	98.397276 
1795.000000	98.395567 
1794.000000	98.394769 
1793.000000	98.395525 
1792.000000	98.396793 
1791.000000	98.397720 
1790.000000	98.399899 
1789.000000	98.404144 
1788.000000	98.408573 
1787.000000	98.411015 
1786.000000	98.411651 
1785.000000	98.412175 
1784.000000	98.413210 
1783.000000	98.414618 
1782.000000	98.415653 
1781.000000	98.415965 
1780.000000	98.416187 
1779.000000	98.416944 
1778.000000	98.418746 
1777.000000	98.421161 
1776.000000	98.423252 
1775.000000	98.424368 
1774.000000	98.424416 
1773.000000	98.424441 
1772.000000	98.425584 
1771.000000	98.427187 
1770.000000	98.428395 
1769.000000	98.429389 
1768.000000	98.430558 
1767.000000	98.432055 
1766.000000	98.433696 
1765.000000	98.435274 
1764.000000	98.436606 
1763.000000	98.437549 
1762.000000	98.438207 
1761.000000	98.439099 
1760.000000	98.440543 
1759.000000	98.442300 
1758.000000	98.443779 
1757.000000	98.444426 
1756.000000	98.444669 
1755.000000	98.445082 
1754.000000	98.445545 
1753.000000	98.445808 
1752.000000	98.446410 
1751.000000	98.448204 
1750.000000	98.451180 
1749.000000	98.454417 
1748.000000	98.457014 
1747.000000	98.458775 
1746.000000	98.459313 
1745.000000	98.459015 
1744.000000	98.458932 
1743.000000	98.459072 
1742.000000	98.458914 
1741.000000	98.458898 
1740.000000	98.459616 
1739.000000	98.460712 
1738.000000	98.461522 
1737.000000	98.462055 
1736.000000	98.462094 
1735.000000	98.461101 
1734.000000	98.460024 
1733.000000	98.458544 
1732.000000	98.457559 
1731.000000	98.458920 
1730.000000	98.462247 
1729.000000	98.465309 
1728.000000	98.466642 
1727.000000	98.466241 
1726.000000	98.464247 
1725.000000	98.461782 
1724.000000	98.460211 
1723.000000	98.460129 
1722.000000	98.461934 
1721.000000	98.464669 
1720.000000	98.466333 
1719.000000	98.465466 
1718.000000	98.463565 
1717.000000	98.461707 
1716.000000	98.457438 
1715.000000	98.451644 
1714.000000	98.448366 
1713.000000	98.448412 
1712.000000	98.448998 
1711.000000	98.448508 
1710.000000	98.447390 
1709.000000	98.445473 
1708.000000	98.442246 
1707.000000	98.438699 
1706.000000	98.437009 
1705.000000	98.436910 
1704.000000	98.434853 
1703.000000	98.429676 
1702.000000	98.422787 
1701.000000	98.417047 
1700.000000	98.414461 
1699.000000	98.412048 
1698.000000	98.410369 
1697.000000	98.409961 
1696.000000	98.408485 
1695.000000	98.405496 
1694.000000	98.403126 
1693.000000	98.402410 
1692.000000	98.401771 
1691.000000	98.399464 
1690.000000	98.395445 
1689.000000	98.390663 
1688.000000	98.386366 
1687.000000	98.382718 
1686.000000	98.379016 
1685.000000	98.375976 
1684.000000	98.374638 
1683.000000	98.373381 
1682.000000	98.371411 
1681.000000	98.368752 
1680.000000	98.366011 
1679.000000	98.363901 
1678.000000	98.362185 
1677.000000	98.360307 
1676.000000	98.358683 
1675.000000	98.357945 
1674.000000	98.356729 
1673.000000	98.354332 
1672.000000	98.351687 
1671.000000	98.349700 
1670.000000	98.348496 
1669.000000	98.346995 
1668.000000	98.344889 
1667.000000	98.342847 
1666.000000	98.340696 
1665.000000	98.338192 
1664.000000	98.336001 
1663.000000	98.335551 
1662.000000	98.336188 
1661.000000	98.335223 
1660.000000	98.332530 
1659.000000	98.329555 
1658.000000	98.326638 
1657.000000	98.323283 
1656.000000	98.319526 
1655.000000	98.315124 
1654.000000	98.311139 
1653.000000	98.311017 
1652.000000	98.308874 
1651.000000	98.304854 
1650.000000	98.302282 
1649.000000	98.300930 
1648.000000	98.300610 
1647.000000	98.302385 
1646.000000	98.303971 
1645.000000	98.302269 
1644.000000	98.298072 
1643.000000	98.293959 
1642.000000	98.291651 
1641.000000	98.291070 
1640.000000	98.292151 
1639.000000	98.293520 
1638.000000	98.293613 
1637.000000	98.291651 
1636.000000	98.289568 
1635.000000	98.288192 
1634.000000	98.286427 
1633.000000	98.285645 
1632.000000	98.285219 
1631.000000	98.284335 
1630.000000	98.283284 
1629.000000	98.282403 
1628.000000	98.281769 
1627.000000	98.281741 
1626.000000	98.281468 
1625.000000	98.280248 
1624.000000	98.280213 
1623.000000	98.283715 
1622.000000	98.287952 
1621.000000	98.288980 
1620.000000	98.288687 
1619.000000	98.290514 
1618.000000	98.295072 
1617.000000	98.299574 
1616.000000	98.301187 
1615.000000	98.301495 
1614.000000	98.302551 
1613.000000	98.302603 
1612.000000	98.300435 
1611.000000	98.298853 
1610.000000	98.300000 
1609.000000	98.303390 
1608.000000	98.309385 
1607.000000	98.318272 
1606.000000	98.326111 
1605.000000	98.329615 
1604.000000	98.332715 
1603.000000	98.339815 
1602.000000	98.349102 
1601.000000	98.356240 
1600.000000	98.360671 
1599.000000	98.364257 
1598.000000	98.367077 
1597.000000	98.369159 
1596.000000	98.372386 
1595.000000	98.377861 
1594.000000	98.383347 
1593.000000	98.386225 
1592.000000	98.387484 
1591.000000	98.389738 
1590.000000	98.393054 
1589.000000	98.396011 
1588.000000	98.399653 
1587.000000	98.405690 
1586.000000	98.412288 
1585.000000	98.414982 
1584.000000	98.414713 
1583.000000	98.417030 
1582.000000	98.423146 
1581.000000	98.429939 
1580.000000	98.436101 
1579.000000	98.441940 
1578.000000	98.445757 
1577.000000	98.447075 
1576.000000	98.448770 
1575.000000	98.451710 
1574.000000	98.454465 
1573.000000	98.457222 
1572.000000	98.461520 
1571.000000	98.467682 
1570.000000	98.472261 
1569.000000	98.469150 
1568.000000	98.461863 
1567.000000	98.458235 
1566.000000	98.458580 
1565.000000	98.459250 
1564.000000	98.460322 
1563.000000	98.461451 
1562.000000	98.460414 
1561.000000	98.453778 
1560.000000	98.452268 
1559.000000	98.465396 
1558.000000	98.466490 
1557.000000	98.451388 
1556.000000	98.439005 
1555.000000	98.432861 
1554.000000	98.428882 
1553.000000	98.425461 
1552.000000	98.423993 
1551.000000	98.421864 
1550.000000	98.416723 
1549.000000	98.410043 
1548.000000	98.404858 
1547.000000	98.401609 
1546.000000	98.396274 
1545.000000	98.386050 
1544.000000	98.374165 
1543.000000	98.364805 
1542.000000	98.359756 
1541.000000	98.358312 
1540.000000	98.353524 
1539.000000	98.338606 
1538.000000	98.317669 
1537.000000	98.297950 
1536.000000	98.281098 
1535.000000	98.268298 
1534.000000	98.260660 
1533.000000	98.255516 
1532.000000	98.247851 
1531.000000	98.236839 
1530.000000	98.224964 
1529.000000	98.212948 
1528.000000	98.199617 
1527.000000	98.185251 
1526.000000	98.171094 
1525.000000	98.157880 
1524.000000	98.146377 
1523.000000	98.136604 
1522.000000	98.126567 
1521.000000	98.111712 
1520.000000	98.090887 
1519.000000	98.069406 
1518.000000	98.050690 
1517.000000	98.034810 
1516.000000	98.021243 
1515.000000	98.010391 
1514.000000	98.002053 
1513.000000	97.994067 
1512.000000	97.982961 
1511.000000	97.966767 
1510.000000	97.947467 
1509.000000	97.928484 
1508.000000	97.913078 
1507.000000	97.902636 
1506.000000	97.892444 
1505.000000	97.876912 
1504.000000	97.858585 
1503.000000	97.839893 
1502.000000	97.821133 
1501.000000	97.803179 
1500.000000	97.787036 
1499.000000	97.771675 
1498.000000	97.754908 
1497.000000	97.737959 
1496.000000	97.723233 
1495.000000	97.712268 
1494.000000	97.706047 
1493.000000	97.703412 
1492.000000	97.700806 
1491.000000	97.694856 
1490.000000	97.684873 
1489.000000	97.671923 
1488.000000	97.655491 
1487.000000	97.635769 
1486.000000	97.616005 
1485.000000	97.596155 
1484.000000	97.576145 
1483.000000	97.558433 
1482.000000	97.544408 
1481.000000	97.533200 
1480.000000	97.522007 
1479.000000	97.510034 
1478.000000	97.498049 
1477.000000	97.486117 
1476.000000	97.472131 
1475.000000	97.456434 
1474.000000	97.442594 
1473.000000	97.433022 
1472.000000	97.425569 
1471.000000	97.416215 
1470.000000	97.405581 
1469.000000	97.394632 
1468.000000	97.381472 
1467.000000	97.366225 
1466.000000	97.353533 
1465.000000	97.347236 
1464.000000	97.345089 
1463.000000	97.339402 
1462.000000	97.327269 
1461.000000	97.312050 
1460.000000	97.298737 
1459.000000	97.289419 
1458.000000	97.282132 
1457.000000	97.274420 
1456.000000	97.263901 
1455.000000	97.251728 
1454.000000	97.239617 
1453.000000	97.228812 
1452.000000	97.222519 
1451.000000	97.222832 
1450.000000	97.229532 
1449.000000	97.241381 
1448.000000	97.253096 
1447.000000	97.258631 
1446.000000	97.256046 
1445.000000	97.249807 
1444.000000	97.246647 
1443.000000	97.246374 
1442.000000	97.245484 
1441.000000	97.242678 
1440.000000	97.238810 
1439.000000	97.232837 
1438.000000	97.225402 
1437.000000	97.224124 
1436.000000	97.233395 
1435.000000	97.245388 
1434.000000	97.253831 
1433.000000	97.260178 
1432.000000	97.266701 
1431.000000	97.273370 
1430.000000	97.279272 
1429.000000	97.285744 
1428.000000	97.292496 
1427.000000	97.298598 
1426.000000	97.304442 
1425.000000	97.312671 
1424.000000	97.325748 
1423.000000	97.337816 
1422.000000	97.342836 
1421.000000	97.343933 
1420.000000	97.348717 
1419.000000	97.355837 
1418.000000	97.356783 
1417.000000	97.354219 
1416.000000	97.356853 
1415.000000	97.365090 
1414.000000	97.372952 
1413.000000	97.377137 
1412.000000	97.380194 
1411.000000	97.384559 
1410.000000	97.390091 
1409.000000	97.397674 
1408.000000	97.407858 
1407.000000	97.419684 
1406.000000	97.432163 
1405.000000	97.446915 
1404.000000	97.466721 
1403.000000	97.488673 
1402.000000	97.508249 
1401.000000	97.526737 
1400.000000	97.548755 
1399.000000	97.573179 
1398.000000	97.591409 
1397.000000	97.598103 
1396.000000	97.596984 
1395.000000	97.598390 
1394.000000	97.610852 
1393.000000	97.635380 
1392.000000	97.667173 
1391.000000	97.698614 
1390.000000	97.723819 
1389.000000	97.741736 
1388.000000	97.754680 
1387.000000	97.765168 
1386.000000	97.775212 
1385.000000	97.787666 
1384.000000	97.805113 
1383.000000	97.826143 
1382.000000	97.846387 
1381.000000	97.863208 
1380.000000	97.877718 
1379.000000	97.893221 
1378.000000	97.912002 
1377.000000	97.933586 
1376.000000	97.955076 
1375.000000	97.973316 
1374.000000	97.987473 
1373.000000	98.000887 
1372.000000	98.017570 
1371.000000	98.038101 
1370.000000	98.059701 
1369.000000	98.079539 
1368.000000	98.097690 
1367.000000	98.114527 
1366.000000	98.129324 
1365.000000	98.142316 
1364.000000	98.154828 
1363.000000	98.167281 
1362.000000	98.179140 
1361.000000	98.191351 
1360.000000	98.206276 
1359.000000	98.224456 
1358.000000	98.243093 
1357.000000	98.259034 
1356.000000	98.272163 
1355.000000	98.284462 
1354.000000	98.297029 
1353.000000	98.310116 
1352.000000	98.322926 
1351.000000	98.335466 
1350.000000	98.347974 
1349.000000	98.358931 
1348.000000	98.367141 
1347.000000	98.373126 
1346.000000	98.379226 
1345.000000	98.387676 
1344.000000	98.398717 
1343.000000	98.410645 
1342.000000	98.421259 
1341.000000	98.428841 
1340.000000	98.432442 
1339.000000	98.432438 
1338.000000	98.430853 
1337.000000	98.430458 
1336.000000	98.432493 
1335.000000	98.435825 
1334.000000	98.438958 
1333.000000	98.441838 
1332.000000	98.444846 
1331.000000	98.447680 
1330.000000	98.449967 
1329.000000	98.452458 
1328.000000	98.456124 
1327.000000	98.460879 
1326.000000	98.465303 
1325.000000	98.467757 
1324.000000	98.467900 
1323.000000	98.466049 
1322.000000	98.462811 
1321.000000	98.459543 
1320.000000	98.457923 
1319.000000	98.458549 
1318.000000	98.460600 
1317.000000	98.462550 
1316.000000	98.462357 
1315.000000	98.458402 
1314.000000	98.452147 
1313.000000	98.448854 
1312.000000	98.452557 
1311.000000	98.460877 
1310.000000	98.467221 
1309.000000	98.468049 
1308.000000	98.465262 
1307.000000	98.462679 
1306.000000	98.462302 
1305.000000	98.464202 
1304.000000	98.467648 
1303.000000	98.470528 
1302.000000	98.470425 
1301.000000	98.467436 
1300.000000	98.464388 
1299.000000	98.463318 
1298.000000	98.463429 
1297.000000	98.463131 
1296.000000	98.462385 
1295.000000	98.462346 
1294.000000	98.463792 
1293.000000	98.466620 
1292.000000	98.469675 
1291.000000	98.470892 
1290.000000	98.469253 
1289.000000	98.466420 
1288.000000	98.464679 
1287.000000	98.463663 
1286.000000	98.461363 
1285.000000	98.458287 
1284.000000	98.457630 
1283.000000	98.460347 
1282.000000	98.463024 
1281.000000	98.462110 
1280.000000	98.458304 
1279.000000	98.455132 
1278.000000	98.454838 
1277.000000	98.457357 
1276.000000	98.461637 
1275.000000	98.466139 
1274.000000	98.468830 
1273.000000	98.468513 
1272.000000	98.465915 
1271.000000	98.462565 
1270.000000	98.459247 
1269.000000	98.456180 
1268.000000	98.453706 
1267.000000	98.451429 
1266.000000	98.447734 
1265.000000	98.441877 
1264.000000	98.435790 
1263.000000	98.432271 
1262.000000	98.431672 
1261.000000	98.431402 
1260.000000	98.429235 
1259.000000	98.426142 
1258.000000	98.424791 
1257.000000	98.425357 
1256.000000	98.424036 
1255.000000	98.417385 
1254.000000	98.407596 
1253.000000	98.400411 
1252.000000	98.396956 
1251.000000	98.391467 
1250.000000	98.379824 
1249.000000	98.366943 
1248.000000	98.361315 
1247.000000	98.363725 
1246.000000	98.366072 
1245.000000	98.361023 
1244.000000	98.348335 
1243.000000	98.332274 
1242.000000	98.317874 
1241.000000	98.309831 
1240.000000	98.309462 
1239.000000	98.310820 
1238.000000	98.304462 
1237.000000	98.287385 
1236.000000	98.265693 
1235.000000	98.245961 
1234.000000	98.227912 
1233.000000	98.207901 
1232.000000	98.185449 
1231.000000	98.162796 
1230.000000	98.140777 
1229.000000	98.118222 
1228.000000	98.093313 
1227.000000	98.063306 
1226.000000	98.025240 
1225.000000	97.979232 
1224.000000	97.929126 
1223.000000	97.877938 
1222.000000	97.824596 
1221.000000	97.766656 
1220.000000	97.703698 
1219.000000	97.636183 
1218.000000	97.563766 
1217.000000	97.487222 
1216.000000	97.409363 
1215.000000	97.331471 
1214.000000	97.251426 
1213.000000	97.168136 
1212.000000	97.084587 
1211.000000	97.002736 
1210.000000	96.918480 
1209.000000	96.826574 
1208.000000	96.728571 
1207.000000	96.631002 
1206.000000	96.536748 
1205.000000	96.442819 
1204.000000	96.346134 
1203.000000	96.247170 
1202.000000	96.148188 
1201.000000	96.051412 
1200.000000	95.958658 
1199.000000	95.869348 
1198.000000	95.779162 
1197.000000	95.684045 
1196.000000	95.585157 
1195.000000	95.487125 
1194.000000	95.392112 
1193.000000	95.298054 
1192.000000	95.201589 
1191.000000	95.099970 
1190.000000	94.991871 
1189.000000	94.879463 
1188.000000	94.767987 
1187.000000	94.659987 
1186.000000	94.551803 
1185.000000	94.439017 
1184.000000	94.322581 
1183.000000	94.205465 
1182.000000	94.086217 
1181.000000	93.960963 
1180.000000	93.829321 
1179.000000	93.692745 
1178.000000	93.549190 
1177.000000	93.395802 
1176.000000	93.235449 
1175.000000	93.074237 
1174.000000	92.913523 
1173.000000	92.750769 
1172.000000	92.587225 
1171.000000	92.427311 
1170.000000	92.270749 
1169.000000	92.113217 
1168.000000	91.955959 
1167.000000	91.808417 
1166.000000	91.681394 
1165.000000	91.584389 
1164.000000	91.528417 
1163.000000	91.521647 
1162.000000	91.559470 
1161.000000	91.624558 
1160.000000	91.696931 
1159.000000	91.758509 
1158.000000	91.791244 
1157.000000	91.781650 
1156.000000	91.728862 
1155.000000	91.641868 
1154.000000	91.528684 
1153.000000	91.394273 
1152.000000	91.247819 
1151.000000	91.102585 
1150.000000	90.965932 
1149.000000	90.836195 
1148.000000	90.710401 
1147.000000	90.587601 
1146.000000	90.464295 
1145.000000	90.335811 
1144.000000	90.204558 
1143.000000	90.079018 
1142.000000	89.962101 
1141.000000	89.847732 
1140.000000	89.730623 
1139.000000	89.611859 
1138.000000	89.493339 
1137.000000	89.374625 
1136.000000	89.257279 
1135.000000	89.144688 
1134.000000	89.035399 
1133.000000	88.923390 
1132.000000	88.806276 
1131.000000	88.686792 
1130.000000	88.566427 
1129.000000	88.445223 
1128.000000	88.326954 
1127.000000	88.214994 
1126.000000	88.103037 
1125.000000	87.980145 
1124.000000	87.846009 
1123.000000	87.711296 
1122.000000	87.581879 
1121.000000	87.453219 
1120.000000	87.321810 
1119.000000	87.190697 
1118.000000	87.061251 
1117.000000	86.930903 
1116.000000	86.801953 
1115.000000	86.681728 
1114.000000	86.571172 
1113.000000	86.463837 
1112.000000	86.357861 
1111.000000	86.257202 
1110.000000	86.159798 
1109.000000	86.057703 
1108.000000	85.950521 
1107.000000	85.846011 
1106.000000	85.745900 
1105.000000	85.643579 
1104.000000	85.537270 
1103.000000	85.432612 
1102.000000	85.330573 
1101.000000	85.226835 
1100.000000	85.124131 
1099.000000	85.031674 
1098.000000	84.950544 
1097.000000	84.872332 
1096.000000	84.793991 
1095.000000	84.719901 
1094.000000	84.648079 
1093.000000	84.569562 
1092.000000	84.484684 
1091.000000	84.405997 
1090.000000	84.341724 
1089.000000	84.288473 
1088.000000	84.241299 
1087.000000	84.197714 
1086.000000	84.151611 
1085.000000	84.098187 
1084.000000	84.045669 
1083.000000	84.007235 
1082.000000	83.980527 
1081.000000	83.950574 
1080.000000	83.913438 
1079.000000	83.880292 
1078.000000	83.856934 
1077.000000	83.836357 
1076.000000	83.813618 
1075.000000	83.790236 
1074.000000	83.760602 
1073.000000	83.710909 
1072.000000	83.634900 
1071.000000	83.535244 
1070.000000	83.407595 
1069.000000	83.240669 
1068.000000	83.036202 
1067.000000	82.813219 
1066.000000	82.588326 
1065.000000	82.366339 
1064.000000	82.152711 
1063.000000	81.955432 
1062.000000	81.767890 
1061.000000	81.568833 
1060.000000	81.349061 
1059.000000	81.124383 
1058.000000	80.915238 
1057.000000	80.726835 
1056.000000	80.554673 
1055.000000	80.394036 
1054.000000	80.236967 
1053.000000	80.073887 
1052.000000	79.905392 
1051.000000	79.740365 
1050.000000	79.578338 
1049.000000	79.408808 
1048.000000	79.230531 
1047.000000	79.053692 
1046.000000	78.881432 
1045.000000	78.707262 
1044.000000	78.531144 
1043.000000	78.360244 
1042.000000	78.192978 
1041.000000	78.020169 
1040.000000	77.843919 
1039.000000	77.677892 
1038.000000	77.527188 
1037.000000	77.385648 
1036.000000	77.254066 
1035.000000	77.141940 
1034.000000	77.049221 
1033.000000	76.965043 
1032.000000	76.885796 
1031.000000	76.815765 
1030.000000	76.750538 
1029.000000	76.681660 
1028.000000	76.618640 
1027.000000	76.583015 
1026.000000	76.577122 
1025.000000	76.579762 
1024.000000	76.575446 
1023.000000	76.566465 
1022.000000	76.553646 
1021.000000	76.529181 
1020.000000	76.494147 
1019.000000	76.461742 
1018.000000	76.437088 
1017.000000	76.412413 
1016.000000	76.385749 
1015.000000	76.364916 
1014.000000	76.349707 
1013.000000	76.330328 
1012.000000	76.307094 
1011.000000	76.292024 
1010.000000	76.287954 
1009.000000	76.285874 
1008.000000	76.285506 
1007.000000	76.298123 
1006.000000	76.326127 
1005.000000	76.360187 
1004.000000	76.399029 
1003.000000	76.450957 
1002.000000	76.512914 
1001.000000	76.569956 
1000.000000	76.619967 
999.000000	 76.678060 
998.000000	 76.751762 
997.000000	 76.831888 
996.000000	 76.912319 
995.000000	 76.999224 
994.000000	 77.095808 
993.000000	 77.196460 
992.000000	 77.300093 
991.000000	 77.411545 
990.000000	 77.527243 
989.000000	 77.638148 
988.000000	 77.749241 
987.000000	 77.876717 
986.000000	 78.023393 
985.000000	 78.176273 
984.000000	 78.330611 
983.000000	 78.495819 
982.000000	 78.674062 
981.000000	 78.853639 
980.000000	 79.028586 
979.000000	 79.206246 
978.000000	 79.390683 
977.000000	 79.576995 
976.000000	 79.766376 
975.000000	 79.968540 
974.000000	 80.183974 
973.000000	 80.400578 
972.000000	 80.612756 
971.000000	 80.828411 
970.000000	 81.053084 
969.000000	 81.282180 
968.000000	 81.511794 
967.000000	 81.742459 
966.000000	 81.970161 
965.000000	 82.188809 
964.000000	 82.403466 
963.000000	 82.626021 
962.000000	 82.856050 
961.000000	 83.080820 
960.000000	 83.295241 
959.000000	 83.506283 
958.000000	 83.716802 
957.000000	 83.921153 
956.000000	 84.118745 
955.000000	 84.316332 
954.000000	 84.514504 
953.000000	 84.706292 
952.000000	 84.890475 
951.000000	 85.071650 
950.000000	 85.246746 
949.000000	 85.407447 
948.000000	 85.557226 
947.000000	 85.709887 
946.000000	 85.868515 
945.000000	 86.021297 
944.000000	 86.161199 
943.000000	 86.294882 
942.000000	 86.429361 
941.000000	 86.564130 
940.000000	 86.699696 
939.000000	 86.839693 
938.000000	 86.981044 
937.000000	 87.115376 
936.000000	 87.243313 
935.000000	 87.374630 
934.000000	 87.511662 
933.000000	 87.645776 
932.000000	 87.773220 
931.000000	 87.901447 
930.000000	 88.036098 
929.000000	 88.173236 
928.000000	 88.307877 
927.000000	 88.439553 
926.000000	 88.566900 
925.000000	 88.686612 
924.000000	 88.799355 
923.000000	 88.907763 
922.000000	 89.009101 
921.000000	 89.099999 
920.000000	 89.186867 
919.000000	 89.279922 
918.000000	 89.377725 
917.000000	 89.469580 
916.000000	 89.552844 
915.000000	 89.636182 
914.000000	 89.726335 
913.000000	 89.823680 
912.000000	 89.930252 
911.000000	 90.049740 
910.000000	 90.179629 
909.000000	 90.315130 
908.000000	 90.459828 
907.000000	 90.620447 
906.000000	 90.793389 
905.000000	 90.969331 
904.000000	 91.148377 
903.000000	 91.336436 
902.000000	 91.529301 
901.000000	 91.715632 
900.000000	 91.894471 
899.000000	 92.075027 
898.000000	 92.260021 
897.000000	 92.443004 
896.000000	 92.620165 
895.000000	 92.790417 
894.000000	 92.946383 
893.000000	 93.081333 
892.000000	 93.203782 
891.000000	 93.329354 
890.000000	 93.457729 
889.000000	 93.572510 
888.000000	 93.663416 
887.000000	 93.733489 
886.000000	 93.785919 
885.000000	 93.820379 
884.000000	 93.842820 
883.000000	 93.862146 
882.000000	 93.876524 
881.000000	 93.880815 
880.000000	 93.888278 
879.000000	 93.924147 
878.000000	 93.994277 
877.000000	 94.081056 
876.000000	 94.174489 
875.000000	 94.285109 
874.000000	 94.419867 
873.000000	 94.569042 
872.000000	 94.726303 
871.000000	 94.899655 
870.000000	 95.090697 
869.000000	 95.281822 
868.000000	 95.456478 
867.000000	 95.617649 
866.000000	 95.775761 
865.000000	 95.931362 
864.000000	 96.080002 
863.000000	 96.222946 
862.000000	 96.362602 
861.000000	 96.495896 
860.000000	 96.621026 
859.000000	 96.743547 
858.000000	 96.868658 
857.000000	 96.993996 
856.000000	 97.115086 
855.000000	 97.230144 
854.000000	 97.334925 
853.000000	 97.421591 
852.000000	 97.488742 
851.000000	 97.546331 
850.000000	 97.606432 
849.000000	 97.674826 
848.000000	 97.752656 
847.000000	 97.836875 
846.000000	 97.916824 
845.000000	 97.980765 
844.000000	 98.029478 
843.000000	 98.074754 
842.000000	 98.122184 
841.000000	 98.164862 
840.000000	 98.195912 
839.000000	 98.216113 
838.000000	 98.226512 
837.000000	 98.225560 
836.000000	 98.218586 
835.000000	 98.219101 
834.000000	 98.233766 
833.000000	 98.254491 
832.000000	 98.271108 
831.000000	 98.283548 
830.000000	 98.296452 
829.000000	 98.310878 
828.000000	 98.328203 
827.000000	 98.354082 
826.000000	 98.390730 
825.000000	 98.431435 
824.000000	 98.468230 
823.000000	 98.497944 
822.000000	 98.517341 
821.000000	 98.521746 
820.000000	 98.511952 
819.000000	 98.493263 
818.000000	 98.464547 
817.000000	 98.415674 
816.000000	 98.337530 
815.000000	 98.227388 
814.000000	 98.083011 
813.000000	 97.898487 
812.000000	 97.666631 
811.000000	 97.377148 
810.000000	 97.011605 
809.000000	 96.551444 
808.000000	 95.996456 
807.000000	 95.368929 
806.000000	 94.697028 
805.000000	 94.002416 
804.000000	 93.306242 
803.000000	 92.633902 
802.000000	 92.007655 
801.000000	 91.446887 
800.000000	 90.979729 
799.000000	 90.637522 
798.000000	 90.429870 
797.000000	 90.339070 
796.000000	 90.342140 
795.000000	 90.420329 
794.000000	 90.545322 
793.000000	 90.680332 
792.000000	 90.803779 
791.000000	 90.914385 
790.000000	 91.007850 
789.000000	 91.066613 
788.000000	 91.076881 
787.000000	 91.036254 
786.000000	 90.938680 
785.000000	 90.771742 
784.000000	 90.538294 
783.000000	 90.264862 
782.000000	 89.981014 
781.000000	 89.706713 
780.000000	 89.466026 
779.000000	 89.292106 
778.000000	 89.206205 
777.000000	 89.207309 
776.000000	 89.289907 
775.000000	 89.452812 
774.000000	 89.681732 
773.000000	 89.943523 
772.000000	 90.209818 
771.000000	 90.471768 
770.000000	 90.725028 
769.000000	 90.958794 
768.000000	 91.168465 
767.000000	 91.361398 
766.000000	 91.540047 
765.000000	 91.695506 
764.000000	 91.827820 
763.000000	 91.956979 
762.000000	 92.101890 
761.000000	 92.260755 
760.000000	 92.421632 
759.000000	 92.579560 
758.000000	 92.734497 
757.000000	 92.886084 
756.000000	 93.040450 
755.000000	 93.209266 
754.000000	 93.390410 
753.000000	 93.559686 
752.000000	 93.692428 
751.000000	 93.787145 
750.000000	 93.863261 
749.000000	 93.944162 
748.000000	 94.045766 
747.000000	 94.169320 
746.000000	 94.298127 
745.000000	 94.411657 
744.000000	 94.509210 
743.000000	 94.610650 
742.000000	 94.730652 
741.000000	 94.864005 
740.000000	 94.999658 
739.000000	 95.134768 
738.000000	 95.268487 
737.000000	 95.394512 
736.000000	 95.507519 
735.000000	 95.607743 
734.000000	 95.695024 
733.000000	 95.767798 
732.000000	 95.830191 
731.000000	 95.889027 
730.000000	 95.941879 
729.000000	 95.980763 
728.000000	 96.007872 
727.000000	 96.036575 
726.000000	 96.078418 
725.000000	 96.138526 
724.000000	 96.221566 
723.000000	 96.328494 
722.000000	 96.446018 
721.000000	 96.552518 
720.000000	 96.637875 
719.000000	 96.707726 
718.000000	 96.768463 
717.000000	 96.822552 
716.000000	 96.878927 
715.000000	 96.948399 
714.000000	 97.024939 
713.000000	 97.090686 
712.000000	 97.144264 
711.000000	 97.206255 
710.000000	 97.290112 
709.000000	 97.385689 
708.000000	 97.475098 
707.000000	 97.548258 
706.000000	 97.597184 
705.000000	 97.610194 
704.000000	 97.581049 
703.000000	 97.514046 
702.000000	 97.407247 
701.000000	 97.240349 
700.000000	 96.991563 
699.000000	 96.658589 
698.000000	 96.265324 
697.000000	 95.861535 
696.000000	 95.517324 
695.000000	 95.301284 
694.000000	 95.243365 
693.000000	 95.322457 
692.000000	 95.493091 
691.000000	 95.712406 
690.000000	 95.947620 
689.000000	 96.175062 
688.000000	 96.382070 
687.000000	 96.564821 
686.000000	 96.717027 
685.000000	 96.834078 
684.000000	 96.929444 
683.000000	 97.024842 
682.000000	 97.123623 
681.000000	 97.211218 
680.000000	 97.283623 
679.000000	 97.352506 
678.000000	 97.422292 
677.000000	 97.489962 
676.000000	 97.561924 
675.000000	 97.651821 
674.000000	 97.751635 
673.000000	 97.823018 
672.000000	 97.836850 
671.000000	 97.793189 
670.000000	 97.711044 
669.000000	 97.615157 
668.000000	 97.628041 
667.000000	 97.842421 
666.000000	 98.080923 
665.000000	 98.208044 
664.000000	 98.268761 
663.000000	 98.311823 
662.000000	 98.356503 
661.000000	 98.394988 
660.000000	 98.422011 
659.000000	 98.446924 
658.000000	 98.478989 
657.000000	 98.513553 
656.000000	 98.534132 
655.000000	 98.529465 
654.000000	 98.500484 
653.000000	 98.454778 
652.000000	 98.409686 
651.000000	 98.395218 
650.000000	 98.427580 

