4000.000000	97.169096 
3999.000000	97.168530 
3998.000000	97.167920 
3997.000000	97.167393 
3996.000000	97.167054 
3995.000000	97.166930 
3994.000000	97.166946 
3993.000000	97.166920 
3992.000000	97.166686 
3991.000000	97.166204 
3990.000000	97.165599 
3989.000000	97.165061 
3988.000000	97.164630 
3987.000000	97.164201 
3986.000000	97.163734 
3985.000000	97.163344 
3984.000000	97.163115 
3983.000000	97.162952 
3982.000000	97.162758 
3981.000000	97.162607 
3980.000000	97.162549 
3979.000000	97.162341 
3978.000000	97.161660 
3977.000000	97.160540 
3976.000000	97.159463 
3975.000000	97.158855 
3974.000000	97.158672 
3973.000000	97.158535 
3972.000000	97.158048 
3971.000000	97.157032 
3970.000000	97.155609 
3969.000000	97.154156 
3968.000000	97.153048 
3967.000000	97.152364 
3966.000000	97.151887 
3965.000000	97.151326 
3964.000000	97.150509 
3963.000000	97.149430 
3962.000000	97.148224 
3961.000000	97.147098 
3960.000000	97.146168 
3959.000000	97.145420 
3958.000000	97.144800 
3957.000000	97.144322 
3956.000000	97.143928 
3955.000000	97.143380 
3954.000000	97.142457 
3953.000000	97.141172 
3952.000000	97.139749 
3951.000000	97.138394 
3950.000000	97.137165 
3949.000000	97.136037 
3948.000000	97.134990 
3947.000000	97.134060 
3946.000000	97.133282 
3945.000000	97.132585 
3944.000000	97.131790 
3943.000000	97.130792 
3942.000000	97.129694 
3941.000000	97.128681 
3940.000000	97.127817 
3939.000000	97.127042 
3938.000000	97.126309 
3937.000000	97.125699 
3936.000000	97.125266 
3935.000000	97.124839 
3934.000000	97.124144 
3933.000000	97.123082 
3932.000000	97.121832 
3931.000000	97.120651 
3930.000000	97.119667 
3929.000000	97.118953 
3928.000000	97.118560 
3927.000000	97.118371 
3926.000000	97.118013 
3925.000000	97.117229 
3924.000000	97.116202 
3923.000000	97.115261 
3922.000000	97.114429 
3921.000000	97.113554 
3920.000000	97.112665 
3919.000000	97.111953 
3918.000000	97.111385 
3917.000000	97.110718 
3916.000000	97.109878 
3915.000000	97.109060 
3914.000000	97.108392 
3913.000000	97.107809 
3912.000000	97.107199 
3911.000000	97.106549 
3910.000000	97.105825 
3909.000000	97.105027 
3908.000000	97.104213 
3907.000000	97.103429 
3906.000000	97.102591 
3905.000000	97.101576 
3904.000000	97.100428 
3903.000000	97.099311 
3902.000000	97.098329 
3901.000000	97.097471 
3900.000000	97.096689 
3899.000000	97.095955 
3898.000000	97.095243 
3897.000000	97.094523 
3896.000000	97.093781 
3895.000000	97.093024 
3894.000000	97.092258 
3893.000000	97.091484 
3892.000000	97.090697 
3891.000000	97.089897 
3890.000000	97.089094 
3889.000000	97.088304 
3888.000000	97.087538 
3887.000000	97.086790 
3886.000000	97.086049 
3885.000000	97.085309 
3884.000000	97.084568 
3883.000000	97.083822 
3882.000000	97.083077 
3881.000000	97.082344 
3880.000000	97.081644 
3879.000000	97.080983 
3878.000000	97.080351 
3877.000000	97.079734 
3876.000000	97.079119 
3875.000000	97.078508 
3874.000000	97.077910 
3873.000000	97.077330 
3872.000000	97.076768 
3871.000000	97.076215 
3870.000000	97.075678 
3869.000000	97.075176 
3868.000000	97.074723 
3867.000000	97.074310 
3866.000000	97.073918 
3865.000000	97.073543 
3864.000000	97.073188 
3863.000000	97.072850 
3862.000000	97.072511 
3861.000000	97.072160 
3860.000000	97.071793 
3859.000000	97.071405 
3858.000000	97.070991 
3857.000000	97.070554 
3856.000000	97.070109 
3855.000000	97.069666 
3854.000000	97.069233 
3853.000000	97.068815 
3852.000000	97.068423 
3851.000000	97.068068 
3850.000000	97.067745 
3849.000000	97.067452 
3848.000000	97.067233 
3847.000000	97.067137 
3846.000000	97.067055 
3845.000000	97.066791 
3844.000000	97.066246 
3843.000000	97.065486 
3842.000000	97.064694 
3841.000000	97.064019 
3840.000000	97.063382 
3839.000000	97.062773 
3838.000000	97.062357 
3837.000000	97.062166 
3836.000000	97.062080 
3835.000000	97.062068 
3834.000000	97.062221 
3833.000000	97.062491 
3832.000000	97.062706 
3831.000000	97.062828 
3830.000000	97.062875 
3829.000000	97.062860 
3828.000000	97.062767 
3827.000000	97.062533 
3826.000000	97.062128 
3825.000000	97.061703 
3824.000000	97.061275 
3823.000000	97.060649 
3822.000000	97.059774 
3821.000000	97.059053 
3820.000000	97.058820 
3819.000000	97.058886 
3818.000000	97.058926 
3817.000000	97.058798 
3816.000000	97.058771 
3815.000000	97.059089 
3814.000000	97.059534 
3813.000000	97.059712 
3812.000000	97.059566 
3811.000000	97.059382 
3810.000000	97.059464 
3809.000000	97.059728 
3808.000000	97.059778 
3807.000000	97.059436 
3806.000000	97.058954 
3805.000000	97.058646 
3804.000000	97.058492 
3803.000000	97.058279 
3802.000000	97.057967 
3801.000000	97.057874 
3800.000000	97.058077 
3799.000000	97.058226 
3798.000000	97.058170 
3797.000000	97.058197 
3796.000000	97.058639 
3795.000000	97.059409 
3794.000000	97.060006 
3793.000000	97.060066 
3792.000000	97.059689 
3791.000000	97.059332 
3790.000000	97.059214 
3789.000000	97.059100 
3788.000000	97.058721 
3787.000000	97.058132 
3786.000000	97.057515 
3785.000000	97.056898 
3784.000000	97.056245 
3783.000000	97.055608 
3782.000000	97.054862 
3781.000000	97.053759 
3780.000000	97.052469 
3779.000000	97.051821 
3778.000000	97.052321 
3777.000000	97.053455 
3776.000000	97.054039 
3775.000000	97.053519 
3774.000000	97.052396 
3773.000000	97.051530 
3772.000000	97.050895 
3771.000000	97.049788 
3770.000000	97.048195 
3769.000000	97.046898 
3768.000000	97.046058 
3767.000000	97.044977 
3766.000000	97.043160 
3765.000000	97.041048 
3764.000000	97.039595 
3763.000000	97.039010 
3762.000000	97.038473 
3761.000000	97.037323 
3760.000000	97.036005 
3759.000000	97.035299 
3758.000000	97.034712 
3757.000000	97.033404 
3756.000000	97.031555 
3755.000000	97.029699 
3754.000000	97.027696 
3753.000000	97.025184 
3752.000000	97.022966 
3751.000000	97.021969 
3750.000000	97.021097 
3749.000000	97.019160 
3748.000000	97.017352 
3747.000000	97.017061 
3746.000000	97.017264 
3745.000000	97.016103 
3744.000000	97.014761 
3743.000000	97.014733 
3742.000000	97.014857 
3741.000000	97.013811 
3740.000000	97.012139 
3739.000000	97.011542 
3738.000000	97.012103 
3737.000000	97.011814 
3736.000000	97.009943 
3735.000000	97.008632 
3734.000000	97.009579 
3733.000000	97.011523 
3732.000000	97.012324 
3731.000000	97.011644 
3730.000000	97.010234 
3729.000000	97.008417 
3728.000000	97.005895 
3727.000000	97.002920 
3726.000000	97.000838 
3725.000000	97.000398 
3724.000000	97.000734 
3723.000000	97.000783 
3722.000000	97.000739 
3721.000000	97.001139 
3720.000000	97.001483 
3719.000000	97.001014 
3718.000000	96.999308 
3717.000000	96.996735 
3716.000000	96.994211 
3715.000000	96.991604 
3714.000000	96.987798 
3713.000000	96.982787 
3712.000000	96.978788 
3711.000000	96.977552 
3710.000000	96.977742 
3709.000000	96.977153 
3708.000000	96.974922 
3707.000000	96.971483 
3706.000000	96.968269 
3705.000000	96.966709 
3704.000000	96.967001 
3703.000000	96.967593 
3702.000000	96.966019 
3701.000000	96.960816 
3700.000000	96.952833 
3699.000000	96.944595 
3698.000000	96.937392 
3697.000000	96.930620 
3696.000000	96.924351 
3695.000000	96.919059 
3694.000000	96.913975 
3693.000000	96.908998 
3692.000000	96.906593 
3691.000000	96.909063 
3690.000000	96.913571 
3689.000000	96.914512 
3688.000000	96.910308 
3687.000000	96.904253 
3686.000000	96.899291 
3685.000000	96.894550 
3684.000000	96.888644 
3683.000000	96.883276 
3682.000000	96.880057 
3681.000000	96.875615 
3680.000000	96.865914 
3679.000000	96.852585 
3678.000000	96.840432 
3677.000000	96.828104 
3676.000000	96.812795 
3675.000000	96.800146 
3674.000000	96.794721 
3673.000000	96.793317 
3672.000000	96.789515 
3671.000000	96.780362 
3670.000000	96.771244 
3669.000000	96.767212 
3668.000000	96.763784 
3667.000000	96.756060 
3666.000000	96.746027 
3665.000000	96.737765 
3664.000000	96.732354 
3663.000000	96.728061 
3662.000000	96.722487 
3661.000000	96.714469 
3660.000000	96.704659 
3659.000000	96.693156 
3658.000000	96.679015 
3657.000000	96.661362 
3656.000000	96.643193 
3655.000000	96.629227 
3654.000000	96.620296 
3653.000000	96.612710 
3652.000000	96.600931 
3651.000000	96.582848 
3650.000000	96.562695 
3649.000000	96.544844 
3648.000000	96.529522 
3647.000000	96.517962 
3646.000000	96.512469 
3645.000000	96.511856 
3644.000000	96.511599 
3643.000000	96.508188 
3642.000000	96.501158 
3641.000000	96.492078 
3640.000000	96.481764 
3639.000000	96.469861 
3638.000000	96.457390 
3637.000000	96.446339 
3636.000000	96.436910 
3635.000000	96.426826 
3634.000000	96.415947 
3633.000000	96.407835 
3632.000000	96.403764 
3631.000000	96.396964 
3630.000000	96.378644 
3629.000000	96.354315 
3628.000000	96.338677 
3627.000000	96.334447 
3626.000000	96.335023 
3625.000000	96.337104 
3624.000000	96.342298 
3623.000000	96.352440 
3622.000000	96.364556 
3621.000000	96.371059 
3620.000000	96.366425 
3619.000000	96.352457 
3618.000000	96.335452 
3617.000000	96.321790 
3616.000000	96.316166 
3615.000000	96.318991 
3614.000000	96.326998 
3613.000000	96.336905 
3612.000000	96.346589 
3611.000000	96.353200 
3610.000000	96.353722 
3609.000000	96.348952 
3608.000000	96.344699 
3607.000000	96.346346 
3606.000000	96.353753 
3605.000000	96.363843 
3604.000000	96.374812 
3603.000000	96.386084 
3602.000000	96.396271 
3601.000000	96.402655 
3600.000000	96.404164 
3599.000000	96.402281 
3598.000000	96.399212 
3597.000000	96.396175 
3596.000000	96.393660 
3595.000000	96.391154 
3594.000000	96.388779 
3593.000000	96.388030 
3592.000000	96.390589 
3591.000000	96.396483 
3590.000000	96.402528 
3589.000000	96.403942 
3588.000000	96.399384 
3587.000000	96.393337 
3586.000000	96.391288 
3585.000000	96.394602 
3584.000000	96.401161 
3583.000000	96.407803 
3582.000000	96.412358 
3581.000000	96.414226 
3580.000000	96.414154 
3579.000000	96.413184 
3578.000000	96.411737 
3577.000000	96.409748 
3576.000000	96.407466 
3575.000000	96.405720 
3574.000000	96.405208 
3573.000000	96.405996 
3572.000000	96.407557 
3571.000000	96.409294 
3570.000000	96.410606 
3569.000000	96.410795 
3568.000000	96.409710 
3567.000000	96.408364 
3566.000000	96.407910 
3565.000000	96.408423 
3564.000000	96.409257 
3563.000000	96.409781 
3562.000000	96.409747 
3561.000000	96.409290 
3560.000000	96.408686 
3559.000000	96.408155 
3558.000000	96.407791 
3557.000000	96.407604 
3556.000000	96.407540 
3555.000000	96.407570 
3554.000000	96.407763 
3553.000000	96.408287 
3552.000000	96.409166 
3551.000000	96.410009 
3550.000000	96.410223 
3549.000000	96.409607 
3548.000000	96.408586 
3547.000000	96.407664 
3546.000000	96.406687 
3545.000000	96.405029 
3544.000000	96.402562 
3543.000000	96.400110 
3542.000000	96.398780 
3541.000000	96.399041 
3540.000000	96.400641 
3539.000000	96.402763 
3538.000000	96.404330 
3537.000000	96.404676 
3536.000000	96.404050 
3535.000000	96.403241 
3534.000000	96.402765 
3533.000000	96.402490 
3532.000000	96.402190 
3531.000000	96.401933 
3530.000000	96.401653 
3529.000000	96.400773 
3528.000000	96.398695 
3527.000000	96.395566 
3526.000000	96.392260 
3525.000000	96.389754 
3524.000000	96.388728 
3523.000000	96.389463 
3522.000000	96.391500 
3521.000000	96.393611 
3520.000000	96.394649 
3519.000000	96.394376 
3518.000000	96.393480 
3517.000000	96.392704 
3516.000000	96.392154 
3515.000000	96.391548 
3514.000000	96.390970 
3513.000000	96.390854 
3512.000000	96.391173 
3511.000000	96.391209 
3510.000000	96.390419 
3509.000000	96.389215 
3508.000000	96.388526 
3507.000000	96.388679 
3506.000000	96.389016 
3505.000000	96.388562 
3504.000000	96.386931 
3503.000000	96.384478 
3502.000000	96.381791 
3501.000000	96.379271 
3500.000000	96.377169 
3499.000000	96.375694 
3498.000000	96.374897 
3497.000000	96.374724 
3496.000000	96.375156 
3495.000000	96.376152 
3494.000000	96.377542 
3493.000000	96.379076 
3492.000000	96.380354 
3491.000000	96.380770 
3490.000000	96.379957 
3489.000000	96.378240 
3488.000000	96.376365 
3487.000000	96.374743 
3486.000000	96.373328 
3485.000000	96.372259 
3484.000000	96.372065 
3483.000000	96.372902 
3482.000000	96.374103 
3481.000000	96.374940 
3480.000000	96.375462 
3479.000000	96.375956 
3478.000000	96.375854 
3477.000000	96.374032 
3476.000000	96.370343 
3475.000000	96.366406 
3474.000000	96.364371 
3473.000000	96.365059 
3472.000000	96.367462 
3471.000000	96.369703 
3470.000000	96.370548 
3469.000000	96.370132 
3468.000000	96.369559 
3467.000000	96.370034 
3466.000000	96.372051 
3465.000000	96.374956 
3464.000000	96.377122 
3463.000000	96.376896 
3462.000000	96.373802 
3461.000000	96.368974 
3460.000000	96.364340 
3459.000000	96.360956 
3458.000000	96.358218 
3457.000000	96.354695 
3456.000000	96.349745 
3455.000000	96.344299 
3454.000000	96.340186 
3453.000000	96.338542 
3452.000000	96.339208 
3451.000000	96.341222 
3450.000000	96.343381 
3449.000000	96.344505 
3448.000000	96.343681 
3447.000000	96.340826 
3446.000000	96.336869 
3445.000000	96.333122 
3444.000000	96.330388 
3443.000000	96.328696 
3442.000000	96.327619 
3441.000000	96.326632 
3440.000000	96.325378 
3439.000000	96.323848 
3438.000000	96.322344 
3437.000000	96.321110 
3436.000000	96.320066 
3435.000000	96.318972 
3434.000000	96.317748 
3433.000000	96.316393 
3432.000000	96.314845 
3431.000000	96.313130 
3430.000000	96.311529 
3429.000000	96.310337 
3428.000000	96.309423 
3427.000000	96.308348 
3426.000000	96.306994 
3425.000000	96.305759 
3424.000000	96.304935 
3423.000000	96.304205 
3422.000000	96.303066 
3421.000000	96.301482 
3420.000000	96.299817 
3419.000000	96.298404 
3418.000000	96.297322 
3417.000000	96.296484 
3416.000000	96.295788 
3415.000000	96.295183 
3414.000000	96.294606 
3413.000000	96.293939 
3412.000000	96.293094 
3411.000000	96.292086 
3410.000000	96.291029 
3409.000000	96.290072 
3408.000000	96.289299 
3407.000000	96.288677 
3406.000000	96.288078 
3405.000000	96.287395 
3404.000000	96.286637 
3403.000000	96.285873 
3402.000000	96.285141 
3401.000000	96.284423 
3400.000000	96.283700 
3399.000000	96.282969 
3398.000000	96.282226 
3397.000000	96.281476 
3396.000000	96.280749 
3395.000000	96.280087 
3394.000000	96.279505 
3393.000000	96.278996 
3392.000000	96.278546 
3391.000000	96.278131 
3390.000000	96.277715 
3389.000000	96.277274 
3388.000000	96.276837 
3387.000000	96.276473 
3386.000000	96.276234 
3385.000000	96.276101 
3384.000000	96.275975 
3383.000000	96.275745 
3382.000000	96.275355 
3381.000000	96.274864 
3380.000000	96.274449 
3379.000000	96.274258 
3378.000000	96.274315 
3377.000000	96.274522 
3376.000000	96.274761 
3375.000000	96.274916 
3374.000000	96.274881 
3373.000000	96.274660 
3372.000000	96.274475 
3371.000000	96.274612 
3370.000000	96.275118 
3369.000000	96.275699 
3368.000000	96.276011 
3367.000000	96.276028 
3366.000000	96.276055 
3365.000000	96.276424 
3364.000000	96.277217 
3363.000000	96.278255 
3362.000000	96.279250 
3361.000000	96.279969 
3360.000000	96.280334 
3359.000000	96.280429 
3358.000000	96.280426 
3357.000000	96.280473 
3356.000000	96.280627 
3355.000000	96.280843 
3354.000000	96.281050 
3353.000000	96.281275 
3352.000000	96.281694 
3351.000000	96.282511 
3350.000000	96.283760 
3349.000000	96.285258 
3348.000000	96.286758 
3347.000000	96.288136 
3346.000000	96.289371 
3345.000000	96.290395 
3344.000000	96.291109 
3343.000000	96.291501 
3342.000000	96.291724 
3341.000000	96.291974 
3340.000000	96.292249 
3339.000000	96.292376 
3338.000000	96.292314 
3337.000000	96.292307 
3336.000000	96.292654 
3335.000000	96.293357 
3334.000000	96.294094 
3333.000000	96.294544 
3332.000000	96.294675 
3331.000000	96.294723 
3330.000000	96.294966 
3329.000000	96.295517 
3328.000000	96.296308 
3327.000000	96.297162 
3326.000000	96.297915 
3325.000000	96.298500 
3324.000000	96.298966 
3323.000000	96.299394 
3322.000000	96.299830 
3321.000000	96.300273 
3320.000000	96.300706 
3319.000000	96.301132 
3318.000000	96.301564 
3317.000000	96.302001 
3316.000000	96.302441 
3315.000000	96.302877 
3314.000000	96.303306 
3313.000000	96.303729 
3312.000000	96.304155 
3311.000000	96.304592 
3310.000000	96.305047 
3309.000000	96.305518 
3308.000000	96.305994 
3307.000000	96.306464 
3306.000000	96.306920 
3305.000000	96.307365 
3304.000000	96.307813 
3303.000000	96.308279 
3302.000000	96.308771 
3301.000000	96.309284 
3300.000000	96.309808 
3299.000000	96.310335 
3298.000000	96.310861 
3297.000000	96.311394 
3296.000000	96.311940 
3295.000000	96.312500 
3294.000000	96.313075 
3293.000000	96.313664 
3292.000000	96.314261 
3291.000000	96.314873 
3290.000000	96.315504 
3289.000000	96.316141 
3288.000000	96.316753 
3287.000000	96.317300 
3286.000000	96.317746 
3285.000000	96.318079 
3284.000000	96.318359 
3283.000000	96.318721 
3282.000000	96.319302 
3281.000000	96.320121 
3280.000000	96.321015 
3279.000000	96.321713 
3278.000000	96.322071 
3277.000000	96.322271 
3276.000000	96.322687 
3275.000000	96.323451 
3274.000000	96.324295 
3273.000000	96.324977 
3272.000000	96.325690 
3271.000000	96.326799 
3270.000000	96.328304 
3269.000000	96.329835 
3268.000000	96.331102 
3267.000000	96.332128 
3266.000000	96.333070 
3265.000000	96.334058 
3264.000000	96.335172 
3263.000000	96.336371 
3262.000000	96.337509 
3261.000000	96.338610 
3260.000000	96.339860 
3259.000000	96.341092 
3258.000000	96.341607 
3257.000000	96.341000 
3256.000000	96.339904 
3255.000000	96.339459 
3254.000000	96.340163 
3253.000000	96.341627 
3252.000000	96.343262 
3251.000000	96.344719 
3250.000000	96.345802 
3249.000000	96.346451 
3248.000000	96.346873 
3247.000000	96.347441 
3246.000000	96.348307 
3245.000000	96.349331 
3244.000000	96.350360 
3243.000000	96.351388 
3242.000000	96.352479 
3241.000000	96.353649 
3240.000000	96.354850 
3239.000000	96.356029 
3238.000000	96.357163 
3237.000000	96.358270 
3236.000000	96.359368 
3235.000000	96.360453 
3234.000000	96.361530 
3233.000000	96.362603 
3232.000000	96.363678 
3231.000000	96.364763 
3230.000000	96.365868 
3229.000000	96.367002 
3228.000000	96.368168 
3227.000000	96.369366 
3226.000000	96.370590 
3225.000000	96.371835 
3224.000000	96.373100 
3223.000000	96.374383 
3222.000000	96.375688 
3221.000000	96.377007 
3220.000000	96.378331 
3219.000000	96.379651 
3218.000000	96.380969 
3217.000000	96.382303 
3216.000000	96.383672 
3215.000000	96.385085 
3214.000000	96.386539 
3213.000000	96.388011 
3212.000000	96.389483 
3211.000000	96.390954 
3210.000000	96.392440 
3209.000000	96.393963 
3208.000000	96.395528 
3207.000000	96.397124 
3206.000000	96.398737 
3205.000000	96.400357 
3204.000000	96.401984 
3203.000000	96.403630 
3202.000000	96.405301 
3201.000000	96.406990 
3200.000000	96.408671 
3199.000000	96.410316 
3198.000000	96.411916 
3197.000000	96.413486 
3196.000000	96.415053 
3195.000000	96.416642 
3194.000000	96.418266 
3193.000000	96.419928 
3192.000000	96.421618 
3191.000000	96.423329 
3190.000000	96.425055 
3189.000000	96.426791 
3188.000000	96.428535 
3187.000000	96.430281 
3186.000000	96.432029 
3185.000000	96.433780 
3184.000000	96.435537 
3183.000000	96.437300 
3182.000000	96.439067 
3181.000000	96.440839 
3180.000000	96.442617 
3179.000000	96.444406 
3178.000000	96.446212 
3177.000000	96.448042 
3176.000000	96.449893 
3175.000000	96.451752 
3174.000000	96.453605 
3173.000000	96.455445 
3172.000000	96.457276 
3171.000000	96.459106 
3170.000000	96.460940 
3169.000000	96.462773 
3168.000000	96.464593 
3167.000000	96.466389 
3166.000000	96.468157 
3165.000000	96.469911 
3164.000000	96.471664 
3163.000000	96.473423 
3162.000000	96.475186 
3161.000000	96.476947 
3160.000000	96.478707 
3159.000000	96.480474 
3158.000000	96.482262 
3157.000000	96.484086 
3156.000000	96.485954 
3155.000000	96.487856 
3154.000000	96.489776 
3153.000000	96.491698 
3152.000000	96.493613 
3151.000000	96.495525 
3150.000000	96.497436 
3149.000000	96.499351 
3148.000000	96.501270 
3147.000000	96.503193 
3146.000000	96.505122 
3145.000000	96.507054 
3144.000000	96.508986 
3143.000000	96.510910 
3142.000000	96.512818 
3141.000000	96.514708 
3140.000000	96.516585 
3139.000000	96.518454 
3138.000000	96.520315 
3137.000000	96.522169 
3136.000000	96.524019 
3135.000000	96.525869 
3134.000000	96.527726 
3133.000000	96.529598 
3132.000000	96.531491 
3131.000000	96.533399 
3130.000000	96.535311 
3129.000000	96.537219 
3128.000000	96.539126 
3127.000000	96.541044 
3126.000000	96.542986 
3125.000000	96.544953 
3124.000000	96.546946 
3123.000000	96.548953 
3122.000000	96.550956 
3121.000000	96.552956 
3120.000000	96.554985 
3119.000000	96.557069 
3118.000000	96.559180 
3117.000000	96.561241 
3116.000000	96.563195 
3115.000000	96.565044 
3114.000000	96.566843 
3113.000000	96.568657 
3112.000000	96.570524 
3111.000000	96.572422 
3110.000000	96.574298 
3109.000000	96.576124 
3108.000000	96.577919 
3107.000000	96.579717 
3106.000000	96.581539 
3105.000000	96.583385 
3104.000000	96.585200 
3103.000000	96.586888 
3102.000000	96.588387 
3101.000000	96.589736 
3100.000000	96.591011 
3099.000000	96.592236 
3098.000000	96.593502 
3097.000000	96.595116 
3096.000000	96.597343 
3095.000000	96.600007 
3094.000000	96.602529 
3093.000000	96.604441 
3092.000000	96.605768 
3091.000000	96.606803 
3090.000000	96.607818 
3089.000000	96.609011 
3088.000000	96.610500 
3087.000000	96.612285 
3086.000000	96.614233 
3085.000000	96.616172 
3084.000000	96.617964 
3083.000000	96.619475 
3082.000000	96.620703 
3081.000000	96.621852 
3080.000000	96.623141 
3079.000000	96.624557 
3078.000000	96.625929 
3077.000000	96.627207 
3076.000000	96.628513 
3075.000000	96.629914 
3074.000000	96.631302 
3073.000000	96.632556 
3072.000000	96.633706 
3071.000000	96.634843 
3070.000000	96.635992 
3069.000000	96.637128 
3068.000000	96.638250 
3067.000000	96.639378 
3066.000000	96.640512 
3065.000000	96.641649 
3064.000000	96.642792 
3063.000000	96.643942 
3062.000000	96.645085 
3061.000000	96.646217 
3060.000000	96.647348 
3059.000000	96.648490 
3058.000000	96.649641 
3057.000000	96.650790 
3056.000000	96.651922 
3055.000000	96.653025 
3054.000000	96.654089 
3053.000000	96.655119 
3052.000000	96.656130 
3051.000000	96.657140 
3050.000000	96.658156 
3049.000000	96.659167 
3048.000000	96.660152 
3047.000000	96.661096 
3046.000000	96.661986 
3045.000000	96.662835 
3044.000000	96.663673 
3043.000000	96.664542 
3042.000000	96.665464 
3041.000000	96.666405 
3040.000000	96.667290 
3039.000000	96.668077 
3038.000000	96.668815 
3037.000000	96.669583 
3036.000000	96.670366 
3035.000000	96.671035 
3034.000000	96.671489 
3033.000000	96.671780 
3032.000000	96.672091 
3031.000000	96.672554 
3030.000000	96.673157 
3029.000000	96.673782 
3028.000000	96.674307 
3027.000000	96.674642 
3026.000000	96.674724 
3025.000000	96.674579 
3024.000000	96.674410 
3023.000000	96.674477 
3022.000000	96.674863 
3021.000000	96.675508 
3020.000000	96.676491 
3019.000000	96.677984 
3018.000000	96.679769 
3017.000000	96.681080 
3016.000000	96.681275 
3015.000000	96.680452 
3014.000000	96.679330 
3013.000000	96.678599 
3012.000000	96.678489 
3011.000000	96.678767 
3010.000000	96.678881 
3009.000000	96.678313 
3008.000000	96.677032 
3007.000000	96.675565 
3006.000000	96.674500 
3005.000000	96.674119 
3004.000000	96.674495 
3003.000000	96.675684 
3002.000000	96.677643 
3001.000000	96.679967 
3000.000000	96.681836 
2999.000000	96.682382 
2998.000000	96.681259 
2997.000000	96.679131 
2996.000000	96.677428 
2995.000000	96.677115 
2994.000000	96.677896 
2993.000000	96.678787 
2992.000000	96.679274 
2991.000000	96.679476 
2990.000000	96.679390 
2989.000000	96.678748 
2988.000000	96.677694 
2987.000000	96.676897 
2986.000000	96.676838 
2985.000000	96.677547 
2984.000000	96.679069 
2983.000000	96.681593 
2982.000000	96.684951 
2981.000000	96.688493 
2980.000000	96.691561 
2979.000000	96.693738 
2978.000000	96.694729 
2977.000000	96.694592 
2976.000000	96.694185 
2975.000000	96.694695 
2974.000000	96.696469 
2973.000000	96.698751 
2972.000000	96.700666 
2971.000000	96.702032 
2970.000000	96.703007 
2969.000000	96.703573 
2968.000000	96.703787 
2967.000000	96.704139 
2966.000000	96.705129 
2965.000000	96.706686 
2964.000000	96.708334 
2963.000000	96.709755 
2962.000000	96.710889 
2961.000000	96.711717 
2960.000000	96.712375 
2959.000000	96.713405 
2958.000000	96.715465 
2957.000000	96.718658 
2956.000000	96.722205 
2955.000000	96.724897 
2954.000000	96.726059 
2953.000000	96.726018 
2952.000000	96.725916 
2951.000000	96.726763 
2950.000000	96.728477 
2949.000000	96.730020 
2948.000000	96.730511 
2947.000000	96.730035 
2946.000000	96.729385 
2945.000000	96.729213 
2944.000000	96.729618 
2943.000000	96.730387 
2942.000000	96.731223 
2941.000000	96.731842 
2940.000000	96.732157 
2939.000000	96.732461 
2938.000000	96.733218 
2937.000000	96.734534 
2936.000000	96.735964 
2935.000000	96.736950 
2934.000000	96.737340 
2933.000000	96.737356 
2932.000000	96.737217 
2931.000000	96.737016 
2930.000000	96.736884 
2929.000000	96.737082 
2928.000000	96.737801 
2927.000000	96.738875 
2926.000000	96.739777 
2925.000000	96.740029 
2924.000000	96.739683 
2923.000000	96.739345 
2922.000000	96.739608 
2921.000000	96.740497 
2920.000000	96.741567 
2919.000000	96.742430 
2918.000000	96.742991 
2917.000000	96.743177 
2916.000000	96.742798 
2915.000000	96.741845 
2914.000000	96.740713 
2913.000000	96.739905 
2912.000000	96.739594 
2911.000000	96.739606 
2910.000000	96.739716 
2909.000000	96.739927 
2908.000000	96.740406 
2907.000000	96.741178 
2906.000000	96.741969 
2905.000000	96.742386 
2904.000000	96.742243 
2903.000000	96.741829 
2902.000000	96.741724 
2901.000000	96.742222 
2900.000000	96.743131 
2899.000000	96.744035 
2898.000000	96.744773 
2897.000000	96.745483 
2896.000000	96.746268 
2895.000000	96.746993 
2894.000000	96.747505 
2893.000000	96.747960 
2892.000000	96.748735 
2891.000000	96.749972 
2890.000000	96.751357 
2889.000000	96.752438 
2888.000000	96.753113 
2887.000000	96.753645 
2886.000000	96.754284 
2885.000000	96.755022 
2884.000000	96.755809 
2883.000000	96.756758 
2882.000000	96.757947 
2881.000000	96.759168 
2880.000000	96.760109 
2879.000000	96.760778 
2878.000000	96.761560 
2877.000000	96.762773 
2876.000000	96.764375 
2875.000000	96.766027 
2874.000000	96.767431 
2873.000000	96.768520 
2872.000000	96.769411 
2871.000000	96.770303 
2870.000000	96.771338 
2869.000000	96.772522 
2868.000000	96.773735 
2867.000000	96.774872 
2866.000000	96.775944 
2865.000000	96.777020 
2864.000000	96.778133 
2863.000000	96.779299 
2862.000000	96.780575 
2861.000000	96.781997 
2860.000000	96.783508 
2859.000000	96.785022 
2858.000000	96.786549 
2857.000000	96.788176 
2856.000000	96.789925 
2855.000000	96.791660 
2854.000000	96.793160 
2853.000000	96.794290 
2852.000000	96.795087 
2851.000000	96.795705 
2850.000000	96.796314 
2849.000000	96.797014 
2848.000000	96.797877 
2847.000000	96.798978 
2846.000000	96.800342 
2845.000000	96.801868 
2844.000000	96.803366 
2843.000000	96.804691 
2842.000000	96.805830 
2841.000000	96.806854 
2840.000000	96.807833 
2839.000000	96.808808 
2838.000000	96.809799 
2837.000000	96.810804 
2836.000000	96.811815 
2835.000000	96.812854 
2834.000000	96.813979 
2833.000000	96.815202 
2832.000000	96.816457 
2831.000000	96.817652 
2830.000000	96.818741 
2829.000000	96.819749 
2828.000000	96.820724 
2827.000000	96.821722 
2826.000000	96.822763 
2825.000000	96.823839 
2824.000000	96.824914 
2823.000000	96.825941 
2822.000000	96.826896 
2821.000000	96.827789 
2820.000000	96.828642 
2819.000000	96.829476 
2818.000000	96.830304 
2817.000000	96.831144 
2816.000000	96.832009 
2815.000000	96.832907 
2814.000000	96.833828 
2813.000000	96.834746 
2812.000000	96.835633 
2811.000000	96.836478 
2810.000000	96.837308 
2809.000000	96.838177 
2808.000000	96.839122 
2807.000000	96.840134 
2806.000000	96.841176 
2805.000000	96.842214 
2804.000000	96.843212 
2803.000000	96.844110 
2802.000000	96.844895 
2801.000000	96.845665 
2800.000000	96.846546 
2799.000000	96.847538 
2798.000000	96.848495 
2797.000000	96.849286 
2796.000000	96.849917 
2795.000000	96.850516 
2794.000000	96.851203 
2793.000000	96.851965 
2792.000000	96.852634 
2791.000000	96.853060 
2790.000000	96.853332 
2789.000000	96.853741 
2788.000000	96.854434 
2787.000000	96.855238 
2786.000000	96.855914 
2785.000000	96.856452 
2784.000000	96.857100 
2783.000000	96.858147 
2782.000000	96.859667 
2781.000000	96.861425 
2780.000000	96.862962 
2779.000000	96.863963 
2778.000000	96.864552 
2777.000000	96.865101 
2776.000000	96.865798 
2775.000000	96.866509 
2774.000000	96.867086 
2773.000000	96.867573 
2772.000000	96.868068 
2771.000000	96.868577 
2770.000000	96.869135 
2769.000000	96.869873 
2768.000000	96.870833 
2767.000000	96.871835 
2766.000000	96.872673 
2765.000000	96.873361 
2764.000000	96.874053 
2763.000000	96.874775 
2762.000000	96.875392 
2761.000000	96.875836 
2760.000000	96.876201 
2759.000000	96.876615 
2758.000000	96.877121 
2757.000000	96.877682 
2756.000000	96.878246 
2755.000000	96.878764 
2754.000000	96.879214 
2753.000000	96.879616 
2752.000000	96.880022 
2751.000000	96.880482 
2750.000000	96.881025 
2749.000000	96.881652 
2748.000000	96.882304 
2747.000000	96.882858 
2746.000000	96.883250 
2745.000000	96.883515 
2744.000000	96.883791 
2743.000000	96.884161 
2742.000000	96.884580 
2741.000000	96.884937 
2740.000000	96.885203 
2739.000000	96.885463 
2738.000000	96.885790 
2737.000000	96.886140 
2736.000000	96.886433 
2735.000000	96.886673 
2734.000000	96.886940 
2733.000000	96.887304 
2732.000000	96.887785 
2731.000000	96.888371 
2730.000000	96.889033 
2729.000000	96.889735 
2728.000000	96.890439 
2727.000000	96.891082 
2726.000000	96.891574 
2725.000000	96.891885 
2724.000000	96.892097 
2723.000000	96.892313 
2722.000000	96.892541 
2721.000000	96.892740 
2720.000000	96.892941 
2719.000000	96.893252 
2718.000000	96.893714 
2717.000000	96.894213 
2716.000000	96.894612 
2715.000000	96.894982 
2714.000000	96.895571 
2713.000000	96.896475 
2712.000000	96.897429 
2711.000000	96.898029 
2710.000000	96.898181 
2709.000000	96.898256 
2708.000000	96.898759 
2707.000000	96.899829 
2706.000000	96.901107 
2705.000000	96.902107 
2704.000000	96.902581 
2703.000000	96.902524 
2702.000000	96.902046 
2701.000000	96.901434 
2700.000000	96.901290 
2699.000000	96.902180 
2698.000000	96.904012 
2697.000000	96.905843 
2696.000000	96.906584 
2695.000000	96.905899 
2694.000000	96.904405 
2693.000000	96.903047 
2692.000000	96.902301 
2691.000000	96.902065 
2690.000000	96.902218 
2689.000000	96.902943 
2688.000000	96.904252 
2687.000000	96.905434 
2686.000000	96.905504 
2685.000000	96.904315 
2684.000000	96.902922 
2683.000000	96.902556 
2682.000000	96.903437 
2681.000000	96.904856 
2680.000000	96.906109 
2679.000000	96.907014 
2678.000000	96.907657 
2677.000000	96.908057 
2676.000000	96.908071 
2675.000000	96.907367 
2674.000000	96.905576 
2673.000000	96.902760 
2672.000000	96.899636 
2671.000000	96.896965 
2670.000000	96.894811 
2669.000000	96.892811 
2668.000000	96.891077 
2667.000000	96.890254 
2666.000000	96.890534 
2665.000000	96.891090 
2664.000000	96.890888 
2663.000000	96.889814 
2662.000000	96.888576 
2661.000000	96.887530 
2660.000000	96.886046 
2659.000000	96.883307 
2658.000000	96.879533 
2657.000000	96.876105 
2656.000000	96.874297 
2655.000000	96.874082 
2654.000000	96.874314 
2653.000000	96.873995 
2652.000000	96.873185 
2651.000000	96.872562 
2650.000000	96.872510 
2649.000000	96.872865 
2648.000000	96.873232 
2647.000000	96.873099 
2646.000000	96.871807 
2645.000000	96.868961 
2644.000000	96.865103 
2643.000000	96.861674 
2642.000000	96.859891 
2641.000000	96.859829 
2640.000000	96.860713 
2639.000000	96.861845 
2638.000000	96.862996 
2637.000000	96.864022 
2636.000000	96.864565 
2635.000000	96.864379 
2634.000000	96.863685 
2633.000000	96.862943 
2632.000000	96.862280 
2631.000000	96.861354 
2630.000000	96.859816 
2629.000000	96.857747 
2628.000000	96.855596 
2627.000000	96.853823 
2626.000000	96.852720 
2625.000000	96.852471 
2624.000000	96.853140 
2623.000000	96.854458 
2622.000000	96.855692 
2621.000000	96.855917 
2620.000000	96.854588 
2619.000000	96.851900 
2618.000000	96.848764 
2617.000000	96.846257 
2616.000000	96.844838 
2615.000000	96.844160 
2614.000000	96.843654 
2613.000000	96.843257 
2612.000000	96.843380 
2611.000000	96.844189 
2610.000000	96.845226 
2609.000000	96.845799 
2608.000000	96.845624 
2607.000000	96.844956 
2606.000000	96.844281 
2605.000000	96.843890 
2604.000000	96.843626 
2603.000000	96.842987 
2602.000000	96.841660 
2601.000000	96.839999 
2600.000000	96.838772 
2599.000000	96.838313 
2598.000000	96.838203 
2597.000000	96.837907 
2596.000000	96.837494 
2595.000000	96.837337 
2594.000000	96.837344 
2593.000000	96.837030 
2592.000000	96.836369 
2591.000000	96.835976 
2590.000000	96.836212 
2589.000000	96.836589 
2588.000000	96.836377 
2587.000000	96.835556 
2586.000000	96.834813 
2585.000000	96.834717 
2584.000000	96.835164 
2583.000000	96.835577 
2582.000000	96.835479 
2581.000000	96.834914 
2580.000000	96.834434 
2579.000000	96.834618 
2578.000000	96.835507 
2577.000000	96.836492 
2576.000000	96.836906 
2575.000000	96.836611 
2574.000000	96.835936 
2573.000000	96.835181 
2572.000000	96.834281 
2571.000000	96.832994 
2570.000000	96.831282 
2569.000000	96.829518 
2568.000000	96.828252 
2567.000000	96.827735 
2566.000000	96.827720 
2565.000000	96.827803 
2564.000000	96.827962 
2563.000000	96.828452 
2562.000000	96.829212 
2561.000000	96.829802 
2560.000000	96.830042 
2559.000000	96.830282 
2558.000000	96.830814 
2557.000000	96.831339 
2556.000000	96.831382 
2555.000000	96.831003 
2554.000000	96.830649 
2553.000000	96.830341 
2552.000000	96.829573 
2551.000000	96.828250 
2550.000000	96.827227 
2549.000000	96.827367 
2548.000000	96.828330 
2547.000000	96.828843 
2546.000000	96.828276 
2545.000000	96.827281 
2544.000000	96.826663 
2543.000000	96.826128 
2542.000000	96.824861 
2541.000000	96.822980 
2540.000000	96.821659 
2539.000000	96.821708 
2538.000000	96.822646 
2537.000000	96.823363 
2536.000000	96.823485 
2535.000000	96.823576 
2534.000000	96.823999 
2533.000000	96.824133 
2532.000000	96.823136 
2531.000000	96.821124 
2530.000000	96.819183 
2529.000000	96.818134 
2528.000000	96.817571 
2527.000000	96.816473 
2526.000000	96.814552 
2525.000000	96.812676 
2524.000000	96.811920 
2523.000000	96.812545 
2522.000000	96.813965 
2521.000000	96.815288 
2520.000000	96.815833 
2519.000000	96.815400 
2518.000000	96.814312 
2517.000000	96.813117 
2516.000000	96.811998 
2515.000000	96.810713 
2514.000000	96.809311 
2513.000000	96.808536 
2512.000000	96.809042 
2511.000000	96.810567 
2510.000000	96.812323 
2509.000000	96.813961 
2508.000000	96.815531 
2507.000000	96.816695 
2506.000000	96.816859 
2505.000000	96.816211 
2504.000000	96.815820 
2503.000000	96.816336 
2502.000000	96.817095 
2501.000000	96.817035 
2500.000000	96.816063 
2499.000000	96.815062 
2498.000000	96.814750 
2497.000000	96.815008 
2496.000000	96.815395 
2495.000000	96.815804 
2494.000000	96.816398 
2493.000000	96.817161 
2492.000000	96.817898 
2491.000000	96.818599 
2490.000000	96.819466 
2489.000000	96.820463 
2488.000000	96.821086 
2487.000000	96.820894 
2486.000000	96.820088 
2485.000000	96.819402 
2484.000000	96.819333 
2483.000000	96.819704 
2482.000000	96.819990 
2481.000000	96.819939 
2480.000000	96.819784 
2479.000000	96.819856 
2478.000000	96.820272 
2477.000000	96.821037 
2476.000000	96.822098 
2475.000000	96.823099 
2474.000000	96.823445 
2473.000000	96.822899 
2472.000000	96.821868 
2471.000000	96.820897 
2470.000000	96.820113 
2469.000000	96.819480 
2468.000000	96.819258 
2467.000000	96.819706 
2466.000000	96.820455 
2465.000000	96.820639 
2464.000000	96.819835 
2463.000000	96.818556 
2462.000000	96.817822 
2461.000000	96.818383 
2460.000000	96.820363 
2459.000000	96.823204 
2458.000000	96.825787 
2457.000000	96.826968 
2456.000000	96.826219 
2455.000000	96.823842 
2454.000000	96.820763 
2453.000000	96.818043 
2452.000000	96.816399 
2451.000000	96.815994 
2450.000000	96.816604 
2449.000000	96.817926 
2448.000000	96.819546 
2447.000000	96.820652 
2446.000000	96.820290 
2445.000000	96.818201 
2444.000000	96.815205 
2443.000000	96.812584 
2442.000000	96.811332 
2441.000000	96.812005 
2440.000000	96.814589 
2439.000000	96.818336 
2438.000000	96.822240 
2437.000000	96.825955 
2436.000000	96.829658 
2435.000000	96.832904 
2434.000000	96.834594 
2433.000000	96.834474 
2432.000000	96.833825 
2431.000000	96.834067 
2430.000000	96.835340 
2429.000000	96.837026 
2428.000000	96.838848 
2427.000000	96.840618 
2426.000000	96.841640 
2425.000000	96.841300 
2424.000000	96.840056 
2423.000000	96.838836 
2422.000000	96.837661 
2421.000000	96.836373 
2420.000000	96.836339 
2419.000000	96.839461 
2418.000000	96.845228 
2417.000000	96.851035 
2416.000000	96.855289 
2415.000000	96.858239 
2414.000000	96.860498 
2413.000000	96.862143 
2412.000000	96.863227 
2411.000000	96.863991 
2410.000000	96.864499 
2409.000000	96.864967 
2408.000000	96.866182 
2407.000000	96.868676 
2406.000000	96.871654 
2405.000000	96.873621 
2404.000000	96.873994 
2403.000000	96.873436 
2402.000000	96.872924 
2401.000000	96.873250 
2400.000000	96.875059 
2399.000000	96.878385 
2398.000000	96.882334 
2397.000000	96.885998 
2396.000000	96.889343 
2395.000000	96.892450 
2394.000000	96.894466 
2393.000000	96.894539 
2392.000000	96.893424 
2391.000000	96.892807 
2390.000000	96.892961 
2389.000000	96.892296 
2388.000000	96.889348 
2387.000000	96.884154 
2386.000000	96.877685 
2385.000000	96.871264 
2384.000000	96.866752 
2383.000000	96.866077 
2382.000000	96.870441 
2381.000000	96.880640 
2380.000000	96.897683 
2379.000000	96.921441 
2378.000000	96.947792 
2377.000000	96.968760 
2376.000000	96.977714 
2375.000000	96.973792 
2374.000000	96.961008 
2373.000000	96.944575 
2372.000000	96.929186 
2371.000000	96.919389 
2370.000000	96.918232 
2369.000000	96.924221 
2368.000000	96.931149 
2367.000000	96.932922 
2366.000000	96.929062 
2365.000000	96.925005 
2364.000000	96.926486 
2363.000000	96.933241 
2362.000000	96.939967 
2361.000000	96.941924 
2360.000000	96.937675 
2359.000000	96.930238 
2358.000000	96.925232 
2357.000000	96.926750 
2356.000000	96.934182 
2355.000000	96.941991 
2354.000000	96.947465 
2353.000000	96.948882 
2352.000000	96.945290 
2351.000000	96.936707 
2350.000000	96.924196 
2349.000000	96.911978 
2348.000000	96.904420 
2347.000000	96.904085 
2346.000000	96.905746 
2345.000000	96.900896 
2344.000000	96.889598 
2343.000000	96.877312 
2342.000000	96.874650 
2341.000000	96.885761 
2340.000000	96.904969 
2339.000000	96.920077 
2338.000000	96.923555 
2337.000000	96.917908 
2336.000000	96.908331 
2335.000000	96.900029 
2334.000000	96.895181 
2333.000000	96.893872 
2332.000000	96.889128 
2331.000000	96.876960 
2330.000000	96.853923 
2329.000000	96.825684 
2328.000000	96.792734 
2327.000000	96.761549 
2326.000000	96.736301 
2325.000000	96.721086 
2324.000000	96.715536 
2323.000000	96.716136 
2322.000000	96.719927 
2321.000000	96.723240 
2320.000000	96.724366 
2319.000000	96.725657 
2318.000000	96.728400 
2317.000000	96.733611 
2316.000000	96.737614 
2315.000000	96.740856 
2314.000000	96.739758 
2313.000000	96.733645 
2312.000000	96.719907 
2311.000000	96.705146 
2310.000000	96.694163 
2309.000000	96.690192 
2308.000000	96.688780 
2307.000000	96.688763 
2306.000000	96.688600 
2305.000000	96.687453 
2304.000000	96.682099 
2303.000000	96.675018 
2302.000000	96.670722 
2301.000000	96.672971 
2300.000000	96.677905 
2299.000000	96.681438 
2298.000000	96.680070 
2297.000000	96.675496 
2296.000000	96.669888 
2295.000000	96.668286 
2294.000000	96.673100 
2293.000000	96.683251 
2292.000000	96.693107 
2291.000000	96.699175 
2290.000000	96.702653 
2289.000000	96.706778 
2288.000000	96.712263 
2287.000000	96.716974 
2286.000000	96.719317 
2285.000000	96.719543 
2284.000000	96.719761 
2283.000000	96.721982 
2282.000000	96.726890 
2281.000000	96.732325 
2280.000000	96.734810 
2279.000000	96.732240 
2278.000000	96.726020 
2277.000000	96.719944 
2276.000000	96.717131 
2275.000000	96.718278 
2274.000000	96.721969 
2273.000000	96.726398 
2272.000000	96.730285 
2271.000000	96.732986 
2270.000000	96.733812 
2269.000000	96.732392 
2268.000000	96.729616 
2267.000000	96.727443 
2266.000000	96.726897 
2265.000000	96.726962 
2264.000000	96.725965 
2263.000000	96.723659 
2262.000000	96.721116 
2261.000000	96.719176 
2260.000000	96.717913 
2259.000000	96.716992 
2258.000000	96.715985 
2257.000000	96.714436 
2256.000000	96.712603 
2255.000000	96.711655 
2254.000000	96.712392 
2253.000000	96.714018 
2252.000000	96.714711 
2251.000000	96.713386 
2250.000000	96.710085 
2249.000000	96.705303 
2248.000000	96.699849 
2247.000000	96.695136 
2246.000000	96.692378 
2245.000000	96.691353 
2244.000000	96.690482 
2243.000000	96.688521 
2242.000000	96.685805 
2241.000000	96.683511 
2240.000000	96.682277 
2239.000000	96.681879 
2238.000000	96.681661 
2237.000000	96.680933 
2236.000000	96.679287 
2235.000000	96.676815 
2234.000000	96.674020 
2233.000000	96.671415 
2232.000000	96.669128 
2231.000000	96.666996 
2230.000000	96.664879 
2229.000000	96.662755 
2228.000000	96.660673 
2227.000000	96.658681 
2226.000000	96.656784 
2225.000000	96.654914 
2224.000000	96.652984 
2223.000000	96.650999 
2222.000000	96.649040 
2221.000000	96.647150 
2220.000000	96.645289 
2219.000000	96.643416 
2218.000000	96.641536 
2217.000000	96.639671 
2216.000000	96.637837 
2215.000000	96.636043 
2214.000000	96.634281 
2213.000000	96.632533 
2212.000000	96.630788 
2211.000000	96.629051 
2210.000000	96.627331 
2209.000000	96.625630 
2208.000000	96.623938 
2207.000000	96.622246 
2206.000000	96.620539 
2205.000000	96.618774 
2204.000000	96.616873 
2203.000000	96.615116 
2202.000000	96.614419 
2201.000000	96.615096 
2200.000000	96.615293 
2199.000000	96.612547 
2198.000000	96.606925 
2197.000000	96.601271 
2196.000000	96.597922 
2195.000000	96.596452 
2194.000000	96.595129 
2193.000000	96.593491 
2192.000000	96.592357 
2191.000000	96.591725 
2190.000000	96.590133 
2189.000000	96.586688 
2188.000000	96.582764 
2187.000000	96.580337 
2186.000000	96.579020 
2185.000000	96.576719 
2184.000000	96.574056 
2183.000000	96.575694 
2182.000000	96.584607 
2181.000000	96.596141 
2180.000000	96.601264 
2179.000000	96.596429 
2178.000000	96.586999 
2177.000000	96.580809 
2176.000000	96.580644 
2175.000000	96.584587 
2174.000000	96.590605 
2173.000000	96.597649 
2172.000000	96.603875 
2171.000000	96.606996 
2170.000000	96.606006 
2169.000000	96.600774 
2168.000000	96.591051 
2167.000000	96.578168 
2166.000000	96.566520 
2165.000000	96.559887 
2164.000000	96.556420 
2163.000000	96.551249 
2162.000000	96.545313 
2161.000000	96.547540 
2160.000000	96.565431 
2159.000000	96.595964 
2158.000000	96.627328 
2157.000000	96.649347 
2156.000000	96.660104 
2155.000000	96.663843 
2154.000000	96.666980 
2153.000000	96.675124 
2152.000000	96.689353 
2151.000000	96.703968 
2150.000000	96.710529 
2149.000000	96.706378 
2148.000000	96.698502 
2147.000000	96.697148 
2146.000000	96.705795 
2145.000000	96.719286 
2144.000000	96.731048 
2143.000000	96.739563 
2142.000000	96.746824 
2141.000000	96.753635 
2140.000000	96.759426 
2139.000000	96.765477 
2138.000000	96.774839 
2137.000000	96.788092 
2136.000000	96.801153 
2135.000000	96.808720 
2134.000000	96.809137 
2133.000000	96.805604 
2132.000000	96.803291 
2131.000000	96.805285 
2130.000000	96.810837 
2129.000000	96.816815 
2128.000000	96.820748 
2127.000000	96.822713 
2126.000000	96.824492 
2125.000000	96.827306 
2124.000000	96.830519 
2123.000000	96.832215 
2122.000000	96.830761 
2121.000000	96.826117 
2120.000000	96.820094 
2119.000000	96.815391 
2118.000000	96.814021 
2117.000000	96.816196 
2116.000000	96.820152 
2115.000000	96.823106 
2114.000000	96.823072 
2113.000000	96.820566 
2112.000000	96.818324 
2111.000000	96.818631 
2110.000000	96.821113 
2109.000000	96.823674 
2108.000000	96.825253 
2107.000000	96.826533 
2106.000000	96.828132 
2105.000000	96.829811 
2104.000000	96.831707 
2103.000000	96.834350 
2102.000000	96.836703 
2101.000000	96.836106 
2100.000000	96.831704 
2099.000000	96.826972 
2098.000000	96.827084 
2097.000000	96.833936 
2096.000000	96.844767 
2095.000000	96.854669 
2094.000000	96.860165 
2093.000000	96.860572 
2092.000000	96.857474 
2091.000000	96.853828 
2090.000000	96.852389 
2089.000000	96.853943 
2088.000000	96.856797 
2087.000000	96.858110 
2086.000000	96.856060 
2085.000000	96.851211 
2084.000000	96.846251 
2083.000000	96.843904 
2082.000000	96.844763 
2081.000000	96.847481 
2080.000000	96.851015 
2079.000000	96.855686 
2078.000000	96.861225 
2077.000000	96.865254 
2076.000000	96.865640 
2075.000000	96.863553 
2074.000000	96.861898 
2073.000000	96.860956 
2072.000000	96.858188 
2071.000000	96.852378 
2070.000000	96.845281 
2069.000000	96.839053 
2068.000000	96.834381 
2067.000000	96.831436 
2066.000000	96.830241 
2065.000000	96.829046 
2064.000000	96.824658 
2063.000000	96.816237 
2062.000000	96.807471 
2061.000000	96.803232 
2060.000000	96.804683 
2059.000000	96.809287 
2058.000000	96.813924 
2057.000000	96.816868 
2056.000000	96.817289 
2055.000000	96.814631 
2054.000000	96.809240 
2053.000000	96.802698 
2052.000000	96.796733 
2051.000000	96.792083 
2050.000000	96.788548 
2049.000000	96.785664 
2048.000000	96.783084 
2047.000000	96.780647 
2046.000000	96.778422 
2045.000000	96.776678 
2044.000000	96.775618 
2043.000000	96.775021 
2042.000000	96.774244 
2041.000000	96.772729 
2040.000000	96.770696 
2039.000000	96.769147 
2038.000000	96.768804 
2037.000000	96.769120 
2036.000000	96.768778 
2035.000000	96.767290 
2034.000000	96.765586 
2033.000000	96.764954 
2032.000000	96.765679 
2031.000000	96.766746 
2030.000000	96.766642 
2029.000000	96.764613 
2028.000000	96.761313 
2027.000000	96.758309 
2026.000000	96.756501 
2025.000000	96.755506 
2024.000000	96.754780 
2023.000000	96.754885 
2022.000000	96.756833 
2021.000000	96.760362 
2020.000000	96.763493 
2019.000000	96.764347 
2018.000000	96.762714 
2017.000000	96.759824 
2016.000000	96.757057 
2015.000000	96.755175 
2014.000000	96.754317 
2013.000000	96.753934 
2012.000000	96.753259 
2011.000000	96.752403 
2010.000000	96.752408 
2009.000000	96.753675 
2008.000000	96.755132 
2007.000000	96.755647 
2006.000000	96.755498 
2005.000000	96.755590 
2004.000000	96.756103 
2003.000000	96.756972 
2002.000000	96.758934 
2001.000000	96.762549 
2000.000000	96.766401 
1999.000000	96.767742 
1998.000000	96.765276 
1997.000000	96.760268 
1996.000000	96.755247 
1995.000000	96.752143 
1994.000000	96.751606 
1993.000000	96.752942 
1992.000000	96.754129 
1991.000000	96.753471 
1990.000000	96.751805 
1989.000000	96.751821 
1988.000000	96.754623 
1987.000000	96.757982 
1986.000000	96.758783 
1985.000000	96.756749 
1984.000000	96.754438 
1983.000000	96.753842 
1982.000000	96.754397 
1981.000000	96.754849 
1980.000000	96.755810 
1979.000000	96.759009 
1978.000000	96.764364 
1977.000000	96.769248 
1976.000000	96.771058 
1975.000000	96.769711 
1974.000000	96.767469 
1973.000000	96.767121 
1972.000000	96.770104 
1971.000000	96.775899 
1970.000000	96.782524 
1969.000000	96.787776 
1968.000000	96.790512 
1967.000000	96.791179 
1966.000000	96.791543 
1965.000000	96.793595 
1964.000000	96.798416 
1963.000000	96.805918 
1962.000000	96.815056 
1961.000000	96.823949 
1960.000000	96.830368 
1959.000000	96.833065 
1958.000000	96.833142 
1957.000000	96.833793 
1956.000000	96.837451 
1955.000000	96.843386 
1954.000000	96.848591 
1953.000000	96.851032 
1952.000000	96.851302 
1951.000000	96.851342 
1950.000000	96.852627 
1949.000000	96.855848 
1948.000000	96.861238 
1947.000000	96.868111 
1946.000000	96.874456 
1945.000000	96.878036 
1944.000000	96.877952 
1943.000000	96.875088 
1942.000000	96.871807 
1941.000000	96.870571 
1940.000000	96.872353 
1939.000000	96.876009 
1938.000000	96.879374 
1937.000000	96.881722 
1936.000000	96.884704 
1935.000000	96.889946 
1934.000000	96.896643 
1933.000000	96.902775 
1932.000000	96.907892 
1931.000000	96.913228 
1930.000000	96.919345 
1929.000000	96.924761 
1928.000000	96.927738 
1927.000000	96.927774 
1926.000000	96.925455 
1925.000000	96.922113 
1924.000000	96.919300 
1923.000000	96.918252 
1922.000000	96.919118 
1921.000000	96.921184 
1920.000000	96.924021 
1919.000000	96.927016 
1918.000000	96.928263 
1917.000000	96.925861 
1916.000000	96.920790 
1915.000000	96.916616 
1914.000000	96.915584 
1913.000000	96.917000 
1912.000000	96.919087 
1911.000000	96.921441 
1910.000000	96.924549 
1909.000000	96.927861 
1908.000000	96.930375 
1907.000000	96.931699 
1906.000000	96.931761 
1905.000000	96.930424 
1904.000000	96.928237 
1903.000000	96.927160 
1902.000000	96.928396 
1901.000000	96.930403 
1900.000000	96.931056 
1899.000000	96.930418 
1898.000000	96.929941 
1897.000000	96.930090 
1896.000000	96.929969 
1895.000000	96.929115 
1894.000000	96.927967 
1893.000000	96.926865 
1892.000000	96.925878 
1891.000000	96.925290 
1890.000000	96.925366 
1889.000000	96.925818 
1888.000000	96.926207 
1887.000000	96.926645 
1886.000000	96.927338 
1885.000000	96.928037 
1884.000000	96.928368 
1883.000000	96.928431 
1882.000000	96.928720 
1881.000000	96.929490 
1880.000000	96.930446 
1879.000000	96.931074 
1878.000000	96.931182 
1877.000000	96.931099 
1876.000000	96.931397 
1875.000000	96.932387 
1874.000000	96.933936 
1873.000000	96.935551 
1872.000000	96.936793 
1871.000000	96.937526 
1870.000000	96.937825 
1869.000000	96.937912 
1868.000000	96.938171 
1867.000000	96.938925 
1866.000000	96.939947 
1865.000000	96.940455 
1864.000000	96.940136 
1863.000000	96.939911 
1862.000000	96.940910 
1861.000000	96.942944 
1860.000000	96.944813 
1859.000000	96.946176 
1858.000000	96.947953 
1857.000000	96.950720 
1856.000000	96.953974 
1855.000000	96.956859 
1854.000000	96.958864 
1853.000000	96.959794 
1852.000000	96.960350 
1851.000000	96.961960 
1850.000000	96.965068 
1849.000000	96.968449 
1848.000000	96.970590 
1847.000000	96.971639 
1846.000000	96.972879 
1845.000000	96.974731 
1844.000000	96.976458 
1843.000000	96.977928 
1842.000000	96.980145 
1841.000000	96.983628 
1840.000000	96.987992 
1839.000000	96.992506 
1838.000000	96.996422 
1837.000000	96.998760 
1836.000000	96.998911 
1835.000000	96.998077 
1834.000000	96.998114 
1833.000000	96.999150 
1832.000000	97.000077 
1831.000000	97.000091 
1830.000000	96.999484 
1829.000000	96.999284 
1828.000000	96.999927 
1827.000000	97.001589 
1826.000000	97.004440 
1825.000000	97.008259 
1824.000000	97.011938 
1823.000000	97.014499 
1822.000000	97.016476 
1821.000000	97.018689 
1820.000000	97.020870 
1819.000000	97.022348 
1818.000000	97.023785 
1817.000000	97.025861 
1816.000000	97.027199 
1815.000000	97.027019 
1814.000000	97.026693 
1813.000000	97.027584 
1812.000000	97.028452 
1811.000000	97.027136 
1810.000000	97.025224 
1809.000000	97.025552 
1808.000000	97.027173 
1807.000000	97.027890 
1806.000000	97.028627 
1805.000000	97.031608 
1804.000000	97.035805 
1803.000000	97.037975 
1802.000000	97.036387 
1801.000000	97.032597 
1800.000000	97.028735 
1799.000000	97.025404 
1798.000000	97.023311 
1797.000000	97.022333 
1796.000000	97.021135 
1795.000000	97.019842 
1794.000000	97.020438 
1793.000000	97.024079 
1792.000000	97.028459 
1791.000000	97.030408 
1790.000000	97.030921 
1789.000000	97.032706 
1788.000000	97.036077 
1787.000000	97.039360 
1786.000000	97.041457 
1785.000000	97.042829 
1784.000000	97.044273 
1783.000000	97.046530 
1782.000000	97.049106 
1781.000000	97.050868 
1780.000000	97.051706 
1779.000000	97.052660 
1778.000000	97.055093 
1777.000000	97.058756 
1776.000000	97.062205 
1775.000000	97.064386 
1774.000000	97.065284 
1773.000000	97.065967 
1772.000000	97.067561 
1771.000000	97.069798 
1770.000000	97.072014 
1769.000000	97.074034 
1768.000000	97.075791 
1767.000000	97.077341 
1766.000000	97.078923 
1765.000000	97.080765 
1764.000000	97.082770 
1763.000000	97.084621 
1762.000000	97.086211 
1761.000000	97.087789 
1760.000000	97.089584 
1759.000000	97.091565 
1758.000000	97.093555 
1757.000000	97.095378 
1756.000000	97.097088 
1755.000000	97.098792 
1754.000000	97.100435 
1753.000000	97.101916 
1752.000000	97.103299 
1751.000000	97.104840 
1750.000000	97.106683 
1749.000000	97.108566 
1748.000000	97.110049 
1747.000000	97.111005 
1746.000000	97.111574 
1745.000000	97.112197 
1744.000000	97.113301 
1743.000000	97.114637 
1742.000000	97.115619 
1741.000000	97.116452 
1740.000000	97.117823 
1739.000000	97.119618 
1738.000000	97.121003 
1737.000000	97.121773 
1736.000000	97.122108 
1735.000000	97.121558 
1734.000000	97.120173 
1733.000000	97.118987 
1732.000000	97.119497 
1731.000000	97.122384 
1730.000000	97.126359 
1729.000000	97.128832 
1728.000000	97.128859 
1727.000000	97.127649 
1726.000000	97.126301 
1725.000000	97.125472 
1724.000000	97.125460 
1723.000000	97.126145 
1722.000000	97.127434 
1721.000000	97.128765 
1720.000000	97.129307 
1719.000000	97.128323 
1718.000000	97.126439 
1717.000000	97.124754 
1716.000000	97.121799 
1715.000000	97.117281 
1714.000000	97.113524 
1713.000000	97.111441 
1712.000000	97.109700 
1711.000000	97.107736 
1710.000000	97.105964 
1709.000000	97.104134 
1708.000000	97.101925 
1707.000000	97.100074 
1706.000000	97.099489 
1705.000000	97.099059 
1704.000000	97.096331 
1703.000000	97.091244 
1702.000000	97.085599 
1701.000000	97.081505 
1700.000000	97.079382 
1699.000000	97.076637 
1698.000000	97.073573 
1697.000000	97.071144 
1696.000000	97.068566 
1695.000000	97.065534 
1694.000000	97.062651 
1693.000000	97.060222 
1692.000000	97.057831 
1691.000000	97.054978 
1690.000000	97.051562 
1689.000000	97.047796 
1688.000000	97.044156 
1687.000000	97.040943 
1686.000000	97.038142 
1685.000000	97.035577 
1684.000000	97.032788 
1683.000000	97.029565 
1682.000000	97.026189 
1681.000000	97.022850 
1680.000000	97.019619 
1679.000000	97.016486 
1678.000000	97.013384 
1677.000000	97.010266 
1676.000000	97.007180 
1675.000000	97.004210 
1674.000000	97.001145 
1673.000000	96.997800 
1672.000000	96.994417 
1671.000000	96.991410 
1670.000000	96.988906 
1669.000000	96.986484 
1668.000000	96.984102 
1667.000000	96.982119 
1666.000000	96.980166 
1665.000000	96.977741 
1664.000000	96.975075 
1663.000000	96.973076 
1662.000000	96.971378 
1661.000000	96.968325 
1660.000000	96.964500 
1659.000000	96.961853 
1658.000000	96.960470 
1657.000000	96.958869 
1656.000000	96.956335 
1655.000000	96.953165 
1654.000000	96.950241 
1653.000000	96.949602 
1652.000000	96.945917 
1651.000000	96.939087 
1650.000000	96.932870 
1649.000000	96.929387 
1648.000000	96.928668 
1647.000000	96.930226 
1646.000000	96.931534 
1645.000000	96.929828 
1644.000000	96.925686 
1643.000000	96.922029 
1642.000000	96.920909 
1641.000000	96.921468 
1640.000000	96.922538 
1639.000000	96.922991 
1638.000000	96.922463 
1637.000000	96.921002 
1636.000000	96.919967 
1635.000000	96.920763 
1634.000000	96.921794 
1633.000000	96.921946 
1632.000000	96.920884 
1631.000000	96.920102 
1630.000000	96.920833 
1629.000000	96.921811 
1628.000000	96.921137 
1627.000000	96.920348 
1626.000000	96.922033 
1625.000000	96.926668 
1624.000000	96.933540 
1623.000000	96.941298 
1622.000000	96.946926 
1621.000000	96.948070 
1620.000000	96.946837 
1619.000000	96.946724 
1618.000000	96.949075 
1617.000000	96.951665 
1616.000000	96.951928 
1615.000000	96.951458 
1614.000000	96.952256 
1613.000000	96.952943 
1612.000000	96.952241 
1611.000000	96.952036 
1610.000000	96.954147 
1609.000000	96.958051 
1608.000000	96.963561 
1607.000000	96.971327 
1606.000000	96.979457 
1605.000000	96.985542 
1604.000000	96.991000 
1603.000000	96.997165 
1602.000000	97.002131 
1601.000000	97.004380 
1600.000000	97.006205 
1599.000000	97.010404 
1598.000000	97.015886 
1597.000000	97.020178 
1596.000000	97.023523 
1595.000000	97.028090 
1594.000000	97.034145 
1593.000000	97.039679 
1592.000000	97.043863 
1591.000000	97.047852 
1590.000000	97.052017 
1589.000000	97.055298 
1588.000000	97.058074 
1587.000000	97.062188 
1586.000000	97.067718 
1585.000000	97.071971 
1584.000000	97.074802 
1583.000000	97.078818 
1582.000000	97.083387 
1581.000000	97.085401 
1580.000000	97.084917 
1579.000000	97.085069 
1578.000000	97.087923 
1577.000000	97.094509 
1576.000000	97.103902 
1575.000000	97.111148 
1574.000000	97.112533 
1573.000000	97.110337 
1572.000000	97.109555 
1571.000000	97.113117 
1570.000000	97.118412 
1569.000000	97.118730 
1568.000000	97.115577 
1567.000000	97.115025 
1566.000000	97.116942 
1565.000000	97.117649 
1564.000000	97.117506 
1563.000000	97.116995 
1562.000000	97.115508 
1561.000000	97.108808 
1560.000000	97.105682 
1559.000000	97.114588 
1558.000000	97.119770 
1557.000000	97.115143 
1556.000000	97.110328 
1555.000000	97.108330 
1554.000000	97.106124 
1553.000000	97.102803 
1552.000000	97.100359 
1551.000000	97.096513 
1550.000000	97.088971 
1549.000000	97.080427 
1548.000000	97.075514 
1547.000000	97.074719 
1546.000000	97.072747 
1545.000000	97.065200 
1544.000000	97.054728 
1543.000000	97.046258 
1542.000000	97.041945 
1541.000000	97.040587 
1540.000000	97.035383 
1539.000000	97.023707 
1538.000000	97.009846 
1537.000000	96.996963 
1536.000000	96.985768 
1535.000000	96.977494 
1534.000000	96.972169 
1533.000000	96.967421 
1532.000000	96.960186 
1531.000000	96.950170 
1530.000000	96.939807 
1529.000000	96.930277 
1528.000000	96.920158 
1527.000000	96.908628 
1526.000000	96.896578 
1525.000000	96.885542 
1524.000000	96.876530 
1523.000000	96.869136 
1522.000000	96.861313 
1521.000000	96.850322 
1520.000000	96.836182 
1519.000000	96.822030 
1518.000000	96.809626 
1517.000000	96.798499 
1516.000000	96.787886 
1515.000000	96.778312 
1514.000000	96.770245 
1513.000000	96.762873 
1512.000000	96.754320 
1511.000000	96.743101 
1510.000000	96.729861 
1509.000000	96.715952 
1508.000000	96.702877 
1507.000000	96.691975 
1506.000000	96.683566 
1505.000000	96.674988 
1504.000000	96.664669 
1503.000000	96.653020 
1502.000000	96.640699 
1501.000000	96.628457 
1500.000000	96.617095 
1499.000000	96.606512 
1498.000000	96.595575 
1497.000000	96.584027 
1496.000000	96.572555 
1495.000000	96.562029 
1494.000000	96.553506 
1493.000000	96.547548 
1492.000000	96.543011 
1491.000000	96.536986 
1490.000000	96.527237 
1489.000000	96.515104 
1488.000000	96.502737 
1487.000000	96.490748 
1486.000000	96.479699 
1485.000000	96.467743 
1484.000000	96.453734 
1483.000000	96.439844 
1482.000000	96.428550 
1481.000000	96.420553 
1480.000000	96.413975 
1479.000000	96.407220 
1478.000000	96.399980 
1477.000000	96.392054 
1476.000000	96.381650 
1475.000000	96.367568 
1474.000000	96.351465 
1473.000000	96.337773 
1472.000000	96.330248 
1471.000000	96.326535 
1470.000000	96.322571 
1469.000000	96.316597 
1468.000000	96.307457 
1467.000000	96.295091 
1466.000000	96.282273 
1465.000000	96.272598 
1464.000000	96.267331 
1463.000000	96.262819 
1462.000000	96.256470 
1461.000000	96.250032 
1460.000000	96.245794 
1459.000000	96.241234 
1458.000000	96.228237 
1457.000000	96.207151 
1456.000000	96.191091 
1455.000000	96.184556 
1454.000000	96.181849 
1453.000000	96.180814 
1452.000000	96.182523 
1451.000000	96.186742 
1450.000000	96.192358 
1449.000000	96.199743 
1448.000000	96.207296 
1447.000000	96.211647 
1446.000000	96.210779 
1445.000000	96.207264 
1444.000000	96.206128 
1443.000000	96.207054 
1442.000000	96.207222 
1441.000000	96.206400 
1440.000000	96.206786 
1439.000000	96.207300 
1438.000000	96.204150 
1437.000000	96.198351 
1436.000000	96.196039 
1435.000000	96.197364 
1434.000000	96.199183 
1433.000000	96.202737 
1432.000000	96.210335 
1431.000000	96.220989 
1430.000000	96.230437 
1429.000000	96.236866 
1428.000000	96.241312 
1427.000000	96.246379 
1426.000000	96.253651 
1425.000000	96.263672 
1424.000000	96.278018 
1423.000000	96.293525 
1422.000000	96.305295 
1421.000000	96.313298 
1420.000000	96.320711 
1419.000000	96.326154 
1418.000000	96.326765 
1417.000000	96.328939 
1416.000000	96.340748 
1415.000000	96.360686 
1414.000000	96.380176 
1413.000000	96.393554 
1412.000000	96.403049 
1411.000000	96.412439 
1410.000000	96.422166 
1409.000000	96.432624 
1408.000000	96.444323 
1407.000000	96.456468 
1406.000000	96.467475 
1405.000000	96.477798 
1404.000000	96.490291 
1403.000000	96.503474 
1402.000000	96.513855 
1401.000000	96.523210 
1400.000000	96.537187 
1399.000000	96.557430 
1398.000000	96.578420 
1397.000000	96.595369 
1396.000000	96.609124 
1395.000000	96.622755 
1394.000000	96.636167 
1393.000000	96.648300 
1392.000000	96.661311 
1391.000000	96.676788 
1390.000000	96.693469 
1389.000000	96.708970 
1388.000000	96.721647 
1387.000000	96.731807 
1386.000000	96.741794 
1385.000000	96.754676 
1384.000000	96.772008 
1383.000000	96.791145 
1382.000000	96.807072 
1381.000000	96.817267 
1380.000000	96.823165 
1379.000000	96.828736 
1378.000000	96.837573 
1377.000000	96.850393 
1376.000000	96.864668 
1375.000000	96.876929 
1374.000000	96.885775 
1373.000000	96.893521 
1372.000000	96.902973 
1371.000000	96.914687 
1370.000000	96.927354 
1369.000000	96.939575 
1368.000000	96.952251 
1367.000000	96.966079 
1366.000000	96.979540 
1365.000000	96.990750 
1364.000000	96.998602 
1363.000000	97.003092 
1362.000000	97.006067 
1361.000000	97.010352 
1360.000000	97.017697 
1359.000000	97.028087 
1358.000000	97.039613 
1357.000000	97.049350 
1356.000000	97.055379 
1355.000000	97.058021 
1354.000000	97.059525 
1353.000000	97.063390 
1352.000000	97.071327 
1351.000000	97.083287 
1350.000000	97.097630 
1349.000000	97.110229 
1348.000000	97.117600 
1347.000000	97.119684 
1346.000000	97.119948 
1345.000000	97.122427 
1344.000000	97.128695 
1343.000000	97.137438 
1342.000000	97.145894 
1341.000000	97.151323 
1340.000000	97.152657 
1339.000000	97.151784 
1338.000000	97.151729 
1337.000000	97.153620 
1336.000000	97.156155 
1335.000000	97.157619 
1334.000000	97.158161 
1333.000000	97.159776 
1332.000000	97.163729 
1331.000000	97.169082 
1330.000000	97.173574 
1329.000000	97.175745 
1328.000000	97.175763 
1327.000000	97.174990 
1326.000000	97.174175 
1325.000000	97.172491 
1324.000000	97.169476 
1323.000000	97.165818 
1322.000000	97.162532 
1321.000000	97.160496 
1320.000000	97.160654 
1319.000000	97.163334 
1318.000000	97.167192 
1317.000000	97.169871 
1316.000000	97.169789 
1315.000000	97.167097 
1314.000000	97.163493 
1313.000000	97.161701 
1312.000000	97.163677 
1311.000000	97.168458 
1310.000000	97.172410 
1309.000000	97.172931 
1308.000000	97.171018 
1307.000000	97.169918 
1306.000000	97.171313 
1305.000000	97.173924 
1304.000000	97.175919 
1303.000000	97.176276 
1302.000000	97.174404 
1301.000000	97.170404 
1300.000000	97.166284 
1299.000000	97.165125 
1298.000000	97.167995 
1297.000000	97.172325 
1296.000000	97.174234 
1295.000000	97.172336 
1294.000000	97.168644 
1293.000000	97.166382 
1292.000000	97.167369 
1291.000000	97.171046 
1290.000000	97.175237 
1289.000000	97.177520 
1288.000000	97.176342 
1287.000000	97.171773 
1286.000000	97.165694 
1285.000000	97.161043 
1284.000000	97.159934 
1283.000000	97.161577 
1282.000000	97.162614 
1281.000000	97.160350 
1280.000000	97.155904 
1279.000000	97.153376 
1278.000000	97.155521 
1277.000000	97.160904 
1276.000000	97.165751 
1275.000000	97.168326 
1274.000000	97.170321 
1273.000000	97.173821 
1272.000000	97.177959 
1271.000000	97.179629 
1270.000000	97.177340 
1269.000000	97.172960 
1268.000000	97.169234 
1267.000000	97.166405 
1266.000000	97.162460 
1265.000000	97.156709 
1264.000000	97.151386 
1263.000000	97.148965 
1262.000000	97.149348 
1261.000000	97.150733 
1260.000000	97.152849 
1259.000000	97.157675 
1258.000000	97.166278 
1257.000000	97.175969 
1256.000000	97.181618 
1255.000000	97.180549 
1254.000000	97.175893 
1253.000000	97.173337 
1252.000000	97.173926 
1251.000000	97.172389 
1250.000000	97.164312 
1249.000000	97.152665 
1248.000000	97.144116 
1247.000000	97.139918 
1246.000000	97.134656 
1245.000000	97.124663 
1244.000000	97.113155 
1243.000000	97.105183 
1242.000000	97.101308 
1241.000000	97.098905 
1240.000000	97.096396 
1239.000000	97.092795 
1238.000000	97.085640 
1237.000000	97.073033 
1236.000000	97.056377 
1235.000000	97.038274 
1234.000000	97.019181 
1233.000000	96.998941 
1232.000000	96.979651 
1231.000000	96.963050 
1230.000000	96.946164 
1229.000000	96.923727 
1228.000000	96.894442 
1227.000000	96.861353 
1226.000000	96.826457 
1225.000000	96.788653 
1224.000000	96.747194 
1223.000000	96.703032 
1222.000000	96.655597 
1221.000000	96.601806 
1220.000000	96.540075 
1219.000000	96.472682 
1218.000000	96.402578 
1217.000000	96.330214 
1216.000000	96.254718 
1215.000000	96.175797 
1214.000000	96.093382 
1213.000000	96.008069 
1212.000000	95.922853 
1211.000000	95.841148 
1210.000000	95.761767 
1209.000000	95.679220 
1208.000000	95.590784 
1207.000000	95.500255 
1206.000000	95.412831 
1205.000000	95.329053 
1204.000000	95.245938 
1203.000000	95.161374 
1202.000000	95.075072 
1201.000000	94.987300 
1200.000000	94.898996 
1199.000000	94.811703 
1198.000000	94.725805 
1197.000000	94.640381 
1196.000000	94.555383 
1195.000000	94.471723 
1194.000000	94.388493 
1193.000000	94.302527 
1192.000000	94.211929 
1191.000000	94.118082 
1190.000000	94.023410 
1189.000000	93.929136 
1188.000000	93.835581 
1187.000000	93.742302 
1186.000000	93.647495 
1185.000000	93.549385 
1184.000000	93.448091 
1183.000000	93.344072 
1182.000000	93.235812 
1181.000000	93.121966 
1180.000000	93.004508 
1179.000000	92.885808 
1178.000000	92.763620 
1177.000000	92.633873 
1176.000000	92.497810 
1175.000000	92.361029 
1174.000000	92.225517 
1173.000000	92.088549 
1172.000000	91.950013 
1171.000000	91.814178 
1170.000000	91.682696 
1169.000000	91.552602 
1168.000000	91.423828 
1167.000000	91.303107 
1166.000000	91.198528 
1165.000000	91.116346 
1164.000000	91.064720 
1163.000000	91.052659 
1162.000000	91.080419 
1161.000000	91.134757 
1160.000000	91.195778 
1159.000000	91.244919 
1158.000000	91.267030 
1157.000000	91.252495 
1156.000000	91.200986 
1155.000000	91.119562 
1154.000000	91.015802 
1153.000000	90.896329 
1152.000000	90.771219 
1151.000000	90.652012 
1150.000000	90.542295 
1149.000000	90.436431 
1148.000000	90.330073 
1147.000000	90.225434 
1146.000000	90.123840 
1145.000000	90.020739 
1144.000000	89.912524 
1143.000000	89.802107 
1142.000000	89.693249 
1141.000000	89.584788 
1140.000000	89.474823 
1139.000000	89.365659 
1138.000000	89.260363 
1137.000000	89.158328 
1136.000000	89.057179 
1135.000000	88.954940 
1134.000000	88.848405 
1133.000000	88.734494 
1132.000000	88.615380 
1131.000000	88.497286 
1130.000000	88.382437 
1129.000000	88.267473 
1128.000000	88.150821 
1127.000000	88.034896 
1126.000000	87.919521 
1125.000000	87.800576 
1124.000000	87.677640 
1123.000000	87.555981 
1122.000000	87.438414 
1121.000000	87.322162 
1120.000000	87.205903 
1119.000000	87.092175 
1118.000000	86.980560 
1117.000000	86.867051 
1116.000000	86.752927 
1115.000000	86.645779 
1114.000000	86.548728 
1113.000000	86.456752 
1112.000000	86.365856 
1111.000000	86.276889 
1110.000000	86.188201 
1109.000000	86.094721 
1108.000000	85.996652 
1107.000000	85.899392 
1106.000000	85.803341 
1105.000000	85.703831 
1104.000000	85.602609 
1103.000000	85.508429 
1102.000000	85.423008 
1101.000000	85.338414 
1100.000000	85.250272 
1099.000000	85.163452 
1098.000000	85.082179 
1097.000000	85.004100 
1096.000000	84.927866 
1095.000000	84.855747 
1094.000000	84.786403 
1093.000000	84.715411 
1092.000000	84.645284 
1091.000000	84.584347 
1090.000000	84.533895 
1089.000000	84.487309 
1088.000000	84.443005 
1087.000000	84.406147 
1086.000000	84.376066 
1085.000000	84.344556 
1084.000000	84.308551 
1083.000000	84.272286 
1082.000000	84.235853 
1081.000000	84.195143 
1080.000000	84.154822 
1079.000000	84.126804 
1078.000000	84.111754 
1077.000000	84.094863 
1076.000000	84.063201 
1075.000000	84.014920 
1074.000000	83.950099 
1073.000000	83.866805 
1072.000000	83.768767 
1071.000000	83.662579 
1070.000000	83.543367 
1069.000000	83.396851 
1068.000000	83.219520 
1067.000000	83.024040 
1066.000000	82.821963 
1065.000000	82.615140 
1064.000000	82.407759 
1063.000000	82.209834 
1062.000000	82.021587 
1061.000000	81.829922 
1060.000000	81.628746 
1059.000000	81.429386 
1058.000000	81.243269 
1057.000000	81.066913 
1056.000000	80.891385 
1055.000000	80.713993 
1054.000000	80.533144 
1053.000000	80.343420 
1052.000000	80.143822 
1051.000000	79.940952 
1050.000000	79.737697 
1049.000000	79.529928 
1048.000000	79.318832 
1047.000000	79.112884 
1046.000000	78.913815 
1045.000000	78.713990 
1044.000000	78.509712 
1043.000000	78.304361 
1042.000000	78.097920 
1041.000000	77.887388 
1040.000000	77.678533 
1039.000000	77.482508 
1038.000000	77.299725 
1037.000000	77.122262 
1036.000000	76.952574 
1035.000000	76.802717 
1034.000000	76.674376 
1033.000000	76.557892 
1032.000000	76.452283 
1031.000000	76.367131 
1030.000000	76.302433 
1029.000000	76.246013 
1028.000000	76.193660 
1027.000000	76.152434 
1026.000000	76.121200 
1025.000000	76.088109 
1024.000000	76.051255 
1023.000000	76.021754 
1022.000000	76.001653 
1021.000000	75.978102 
1020.000000	75.944388 
1019.000000	75.908577 
1018.000000	75.876733 
1017.000000	75.845389 
1016.000000	75.814518 
1015.000000	75.790094 
1014.000000	75.769982 
1013.000000	75.745011 
1012.000000	75.717317 
1011.000000	75.699884 
1010.000000	75.695414 
1009.000000	75.694072 
1008.000000	75.694591 
1007.000000	75.708307 
1006.000000	75.739268 
1005.000000	75.779692 
1004.000000	75.828048 
1003.000000	75.891526 
1002.000000	75.966613 
1001.000000	76.037452 
1000.000000	76.099068 
999.000000	 76.164095 
998.000000	 76.241644 
997.000000	 76.327282 
996.000000	 76.417778 
995.000000	 76.517592 
994.000000	 76.626150 
993.000000	 76.735770 
992.000000	 76.846197 
991.000000	 76.964655 
990.000000	 77.089031 
989.000000	 77.208709 
988.000000	 77.324840 
987.000000	 77.451820 
986.000000	 77.595875 
985.000000	 77.750083 
984.000000	 77.912407 
983.000000	 78.089095 
982.000000	 78.276909 
981.000000	 78.462121 
980.000000	 78.642499 
979.000000	 78.831627 
978.000000	 79.036137 
977.000000	 79.246945 
976.000000	 79.458228 
975.000000	 79.676774 
974.000000	 79.905775 
973.000000	 80.136525 
972.000000	 80.363617 
971.000000	 80.593352 
970.000000	 80.830117 
969.000000	 81.068095 
968.000000	 81.302441 
967.000000	 81.535792 
966.000000	 81.768887 
965.000000	 81.997533 
964.000000	 82.222997 
963.000000	 82.452173 
962.000000	 82.683108 
961.000000	 82.903649 
960.000000	 83.109384 
959.000000	 83.310514 
958.000000	 83.516019 
957.000000	 83.722258 
956.000000	 83.921898 
955.000000	 84.113207 
954.000000	 84.296295 
953.000000	 84.470299 
952.000000	 84.637854 
951.000000	 84.802923 
950.000000	 84.961845 
949.000000	 85.106621 
948.000000	 85.238759 
947.000000	 85.369181 
946.000000	 85.502447 
945.000000	 85.631853 
944.000000	 85.752290 
943.000000	 85.866640 
942.000000	 85.977325 
941.000000	 86.083126 
940.000000	 86.187531 
939.000000	 86.298877 
938.000000	 86.418235 
937.000000	 86.537339 
936.000000	 86.651768 
935.000000	 86.766238 
934.000000	 86.883987 
933.000000	 87.000972 
932.000000	 87.113951 
931.000000	 87.224821 
930.000000	 87.333913 
929.000000	 87.438147 
928.000000	 87.538901 
927.000000	 87.643076 
926.000000	 87.753065 
925.000000	 87.862752 
924.000000	 87.965005 
923.000000	 88.056261 
922.000000	 88.134295 
921.000000	 88.200459 
920.000000	 88.264200 
919.000000	 88.335876 
918.000000	 88.414009 
917.000000	 88.488077 
916.000000	 88.554150 
915.000000	 88.619230 
914.000000	 88.690949 
913.000000	 88.773038 
912.000000	 88.870370 
911.000000	 88.987198 
910.000000	 89.119459 
909.000000	 89.259234 
908.000000	 89.407208 
907.000000	 89.570057 
906.000000	 89.746023 
905.000000	 89.924999 
904.000000	 90.103316 
903.000000	 90.286398 
902.000000	 90.475745 
901.000000	 90.665089 
900.000000	 90.851134 
899.000000	 91.037062 
898.000000	 91.223286 
897.000000	 91.404495 
896.000000	 91.577493 
895.000000	 91.743163 
894.000000	 91.900120 
893.000000	 92.045502 
892.000000	 92.182256 
891.000000	 92.316223 
890.000000	 92.445252 
889.000000	 92.560060 
888.000000	 92.656163 
887.000000	 92.736552 
886.000000	 92.803392 
885.000000	 92.856456 
884.000000	 92.899332 
883.000000	 92.937377 
882.000000	 92.970238 
881.000000	 92.997425 
880.000000	 93.030381 
879.000000	 93.085473 
878.000000	 93.163823 
877.000000	 93.251810 
876.000000	 93.343335 
875.000000	 93.447188 
874.000000	 93.570033 
873.000000	 93.707893 
872.000000	 93.858599 
871.000000	 94.026967 
870.000000	 94.210718 
869.000000	 94.393902 
868.000000	 94.561452 
867.000000	 94.711364 
866.000000	 94.848682 
865.000000	 94.977637 
864.000000	 95.104397 
863.000000	 95.237510 
862.000000	 95.377954 
861.000000	 95.514830 
860.000000	 95.636697 
859.000000	 95.742845 
858.000000	 95.840508 
857.000000	 95.936095 
856.000000	 96.031680 
855.000000	 96.124835 
854.000000	 96.209430 
853.000000	 96.281458 
852.000000	 96.345455 
851.000000	 96.410187 
850.000000	 96.477872 
849.000000	 96.543882 
848.000000	 96.606327 
847.000000	 96.667462 
846.000000	 96.725411 
845.000000	 96.773871 
844.000000	 96.811919 
843.000000	 96.845434 
842.000000	 96.876653 
841.000000	 96.901030 
840.000000	 96.916697 
839.000000	 96.927715 
838.000000	 96.934728 
837.000000	 96.932166 
836.000000	 96.920169 
835.000000	 96.910976 
834.000000	 96.916420 
833.000000	 96.934525 
832.000000	 96.954398 
831.000000	 96.969487 
830.000000	 96.980584 
829.000000	 96.990084 
828.000000	 96.999312 
827.000000	 97.009793 
826.000000	 97.023622 
825.000000	 97.044348 
824.000000	 97.077345 
823.000000	 97.123446 
822.000000	 97.172253 
821.000000	 97.209463 
820.000000	 97.230655 
819.000000	 97.240009 
818.000000	 97.235871 
817.000000	 97.206154 
816.000000	 97.140205 
815.000000	 97.038789 
814.000000	 96.909370 
813.000000	 96.755684 
812.000000	 96.573185 
811.000000	 96.348400 
810.000000	 96.060133 
809.000000	 95.689102 
808.000000	 95.233538 
807.000000	 94.713438 
806.000000	 94.156354 
805.000000	 93.582875 
804.000000	 93.009080 
803.000000	 92.455258 
802.000000	 91.944554 
801.000000	 91.498282 
800.000000	 91.137690 
799.000000	 90.882226 
798.000000	 90.738347 
797.000000	 90.694453 
796.000000	 90.729118 
795.000000	 90.817648 
794.000000	 90.932176 
793.000000	 91.047877 
792.000000	 91.152703 
791.000000	 91.244216 
790.000000	 91.317880 
789.000000	 91.365615 
788.000000	 91.381200 
787.000000	 91.356167 
786.000000	 91.274533 
785.000000	 91.125252 
784.000000	 90.919462 
783.000000	 90.684776 
782.000000	 90.445681 
781.000000	 90.222476 
780.000000	 90.043518 
779.000000	 89.936788 
778.000000	 89.907113 
777.000000	 89.940286 
776.000000	 90.030841 
775.000000	 90.184335 
774.000000	 90.389011 
773.000000	 90.609017 
772.000000	 90.815141 
771.000000	 91.004323 
770.000000	 91.181942 
769.000000	 91.344365 
768.000000	 91.488344 
767.000000	 91.619618 
766.000000	 91.740377 
765.000000	 91.842681 
764.000000	 91.925807 
763.000000	 92.007253 
762.000000	 92.104725 
761.000000	 92.217551 
760.000000	 92.335664 
759.000000	 92.455774 
758.000000	 92.578305 
757.000000	 92.699497 
756.000000	 92.818630 
755.000000	 92.944111 
754.000000	 93.079456 
753.000000	 93.209185 
752.000000	 93.311326 
751.000000	 93.382555 
750.000000	 93.443441 
749.000000	 93.519929 
748.000000	 93.622704 
747.000000	 93.740008 
746.000000	 93.847123 
745.000000	 93.928502 
744.000000	 93.994561 
743.000000	 94.072098 
742.000000	 94.175576 
741.000000	 94.294308 
740.000000	 94.410120 
739.000000	 94.518169 
738.000000	 94.625273 
737.000000	 94.735634 
736.000000	 94.844838 
735.000000	 94.944033 
734.000000	 95.025455 
733.000000	 95.087532 
732.000000	 95.137467 
731.000000	 95.185211 
730.000000	 95.232488 
729.000000	 95.270918 
728.000000	 95.295543 
727.000000	 95.314082 
726.000000	 95.338494 
725.000000	 95.376386 
724.000000	 95.431344 
723.000000	 95.501080 
722.000000	 95.573392 
721.000000	 95.635453 
720.000000	 95.691132 
719.000000	 95.755460 
718.000000	 95.828843 
717.000000	 95.893893 
716.000000	 95.940510 
715.000000	 95.979677 
714.000000	 96.026131 
713.000000	 96.078584 
712.000000	 96.128819 
711.000000	 96.178253 
710.000000	 96.231260 
709.000000	 96.284655 
708.000000	 96.328075 
707.000000	 96.356384 
706.000000	 96.370073 
705.000000	 96.367732 
704.000000	 96.347169 
703.000000	 96.304022 
702.000000	 96.225531 
701.000000	 96.092665 
700.000000	 95.894210 
699.000000	 95.639733 
698.000000	 95.354159 
697.000000	 95.071377 
696.000000	 94.837102 
695.000000	 94.696360 
694.000000	 94.668607 
693.000000	 94.736313 
692.000000	 94.862676 
691.000000	 95.020228 
690.000000	 95.194322 
689.000000	 95.371572 
688.000000	 95.536705 
687.000000	 95.676519 
686.000000	 95.785710 
685.000000	 95.869040 
684.000000	 95.939526 
683.000000	 96.012385 
682.000000	 96.092476 
681.000000	 96.172176 
680.000000	 96.242309 
679.000000	 96.305053 
678.000000	 96.366253 
677.000000	 96.424390 
676.000000	 96.485389 
675.000000	 96.555753 
674.000000	 96.625317 
673.000000	 96.679551 
672.000000	 96.728640 
671.000000	 96.823275 
670.000000	 97.018189 
669.000000	 97.316633 
668.000000	 97.526931 
667.000000	 97.452694 
666.000000	 97.243970 
665.000000	 97.097138 
664.000000	 97.028818 
663.000000	 97.022024 
662.000000	 97.059600 
661.000000	 97.112278 
660.000000	 97.155562 
659.000000	 97.189276 
658.000000	 97.219586 
657.000000	 97.232556 
656.000000	 97.217416 
655.000000	 97.181313 
654.000000	 97.136286 
653.000000	 97.092576 
652.000000	 97.070730 
651.000000	 97.093857 
650.000000	 97.152086 

