4000.000000	97.159882 
3999.000000	97.158619 
3998.000000	97.157129 
3997.000000	97.155844 
3996.000000	97.155073 
3995.000000	97.154805 
3994.000000	97.154732 
3993.000000	97.154517 
3992.000000	97.154021 
3991.000000	97.153285 
3990.000000	97.152396 
3989.000000	97.151353 
3988.000000	97.150055 
3987.000000	97.148547 
3986.000000	97.147225 
3985.000000	97.146544 
3984.000000	97.146499 
3983.000000	97.146589 
3982.000000	97.146432 
3981.000000	97.146162 
3980.000000	97.146012 
3979.000000	97.145830 
3978.000000	97.145344 
3977.000000	97.144757 
3976.000000	97.144618 
3975.000000	97.145014 
3974.000000	97.145269 
3973.000000	97.144629 
3972.000000	97.142924 
3971.000000	97.140546 
3970.000000	97.138086 
3969.000000	97.136185 
3968.000000	97.135313 
3967.000000	97.135471 
3966.000000	97.136139 
3965.000000	97.136549 
3964.000000	97.136095 
3963.000000	97.134631 
3962.000000	97.132570 
3961.000000	97.130666 
3960.000000	97.129398 
3959.000000	97.128693 
3958.000000	97.128292 
3957.000000	97.128292 
3956.000000	97.128850 
3955.000000	97.129582 
3954.000000	97.129712 
3953.000000	97.128693 
3952.000000	97.126577 
3951.000000	97.123768 
3950.000000	97.120743 
3949.000000	97.117950 
3948.000000	97.115774 
3947.000000	97.114557 
3946.000000	97.114425 
3945.000000	97.114979 
3944.000000	97.115357 
3943.000000	97.115106 
3942.000000	97.114752 
3941.000000	97.115010 
3940.000000	97.115772 
3939.000000	97.116298 
3938.000000	97.116163 
3937.000000	97.115863 
3936.000000	97.115939 
3935.000000	97.115884 
3934.000000	97.114667 
3933.000000	97.112152 
3932.000000	97.109638 
3931.000000	97.108381 
3930.000000	97.108544 
3929.000000	97.109844 
3928.000000	97.112044 
3927.000000	97.114454 
3926.000000	97.115542 
3925.000000	97.114496 
3924.000000	97.112525 
3923.000000	97.111278 
3922.000000	97.110693 
3921.000000	97.109767 
3920.000000	97.108325 
3919.000000	97.107068 
3918.000000	97.106131 
3917.000000	97.105131 
3916.000000	97.104260 
3915.000000	97.104184 
3914.000000	97.104847 
3913.000000	97.105574 
3912.000000	97.105941 
3911.000000	97.106167 
3910.000000	97.106296 
3909.000000	97.106194 
3908.000000	97.105791 
3907.000000	97.105126 
3906.000000	97.104011 
3905.000000	97.102136 
3904.000000	97.099781 
3903.000000	97.097789 
3902.000000	97.096752 
3901.000000	97.096562 
3900.000000	97.096741 
3899.000000	97.096976 
3898.000000	97.097168 
3897.000000	97.097189 
3896.000000	97.096961 
3895.000000	97.096572 
3894.000000	97.096129 
3893.000000	97.095669 
3892.000000	97.095195 
3891.000000	97.094735 
3890.000000	97.094286 
3889.000000	97.093841 
3888.000000	97.093401 
3887.000000	97.092959 
3886.000000	97.092511 
3885.000000	97.092065 
3884.000000	97.091630 
3883.000000	97.091207 
3882.000000	97.090794 
3881.000000	97.090399 
3880.000000	97.090037 
3879.000000	97.089716 
3878.000000	97.089430 
3877.000000	97.089160 
3876.000000	97.088891 
3875.000000	97.088619 
3874.000000	97.088350 
3873.000000	97.088093 
3872.000000	97.087844 
3871.000000	97.087596 
3870.000000	97.087353 
3869.000000	97.087134 
3868.000000	97.086952 
3867.000000	97.086797 
3866.000000	97.086650 
3865.000000	97.086511 
3864.000000	97.086392 
3863.000000	97.086296 
3862.000000	97.086212 
3861.000000	97.086127 
3860.000000	97.086035 
3859.000000	97.085930 
3858.000000	97.085803 
3857.000000	97.085652 
3856.000000	97.085490 
3855.000000	97.085329 
3854.000000	97.085182 
3853.000000	97.085059 
3852.000000	97.084965 
3851.000000	97.084901 
3850.000000	97.084864 
3849.000000	97.084854 
3848.000000	97.084865 
3847.000000	97.084887 
3846.000000	97.084908 
3845.000000	97.084920 
3844.000000	97.084923 
3843.000000	97.084926 
3842.000000	97.084940 
3841.000000	97.084978 
3840.000000	97.085039 
3839.000000	97.085115 
3838.000000	97.085193 
3837.000000	97.085265 
3836.000000	97.085332 
3835.000000	97.085398 
3834.000000	97.085468 
3833.000000	97.085538 
3832.000000	97.085606 
3831.000000	97.085664 
3830.000000	97.085710 
3829.000000	97.085741 
3828.000000	97.085758 
3827.000000	97.085754 
3826.000000	97.085726 
3825.000000	97.085679 
3824.000000	97.085626 
3823.000000	97.085571 
3822.000000	97.085510 
3821.000000	97.085442 
3820.000000	97.085376 
3819.000000	97.085321 
3818.000000	97.085271 
3817.000000	97.085211 
3816.000000	97.085140 
3815.000000	97.085065 
3814.000000	97.084983 
3813.000000	97.084878 
3812.000000	97.084738 
3811.000000	97.084566 
3810.000000	97.084373 
3809.000000	97.084165 
3808.000000	97.083935 
3807.000000	97.083678 
3806.000000	97.083401 
3805.000000	97.083119 
3804.000000	97.082839 
3803.000000	97.082559 
3802.000000	97.082278 
3801.000000	97.081998 
3800.000000	97.081712 
3799.000000	97.081403 
3798.000000	97.081057 
3797.000000	97.080673 
3796.000000	97.080265 
3795.000000	97.079835 
3794.000000	97.079372 
3793.000000	97.078867 
3792.000000	97.078321 
3791.000000	97.077740 
3790.000000	97.077126 
3789.000000	97.076483 
3788.000000	97.075819 
3787.000000	97.075139 
3786.000000	97.074442 
3785.000000	97.073734 
3784.000000	97.073019 
3783.000000	97.072298 
3782.000000	97.071559 
3781.000000	97.070789 
3780.000000	97.069989 
3779.000000	97.069167 
3778.000000	97.068316 
3777.000000	97.067428 
3776.000000	97.066504 
3775.000000	97.065560 
3774.000000	97.064616 
3773.000000	97.063679 
3772.000000	97.062748 
3771.000000	97.061825 
3770.000000	97.060917 
3769.000000	97.060024 
3768.000000	97.059147 
3767.000000	97.058281 
3766.000000	97.057395 
3765.000000	97.056463 
3764.000000	97.055526 
3763.000000	97.054655 
3762.000000	97.053817 
3761.000000	97.052898 
3760.000000	97.051885 
3759.000000	97.050918 
3758.000000	97.049969 
3757.000000	97.048866 
3756.000000	97.047624 
3755.000000	97.046361 
3754.000000	97.045007 
3753.000000	97.043427 
3752.000000	97.041985 
3751.000000	97.041099 
3750.000000	97.040220 
3749.000000	97.038706 
3748.000000	97.037242 
3747.000000	97.036793 
3746.000000	97.036715 
3745.000000	97.035302 
3744.000000	97.033294 
3743.000000	97.032583 
3742.000000	97.032513 
3741.000000	97.031196 
3740.000000	97.028467 
3739.000000	97.026491 
3738.000000	97.026383 
3737.000000	97.026095 
3736.000000	97.024100 
3735.000000	97.022830 
3734.000000	97.024782 
3733.000000	97.027782 
3732.000000	97.028378 
3731.000000	97.026593 
3730.000000	97.024596 
3729.000000	97.023242 
3728.000000	97.021230 
3727.000000	97.017732 
3726.000000	97.014575 
3725.000000	97.013459 
3724.000000	97.013399 
3723.000000	97.013042 
3722.000000	97.013099 
3721.000000	97.014357 
3720.000000	97.015491 
3719.000000	97.014985 
3718.000000	97.012012 
3717.000000	97.007452 
3716.000000	97.003635 
3715.000000	97.000994 
3714.000000	96.997405 
3713.000000	96.991500 
3712.000000	96.985474 
3711.000000	96.982389 
3710.000000	96.981973 
3709.000000	96.982507 
3708.000000	96.982080 
3707.000000	96.979174 
3706.000000	96.974217 
3705.000000	96.968894 
3704.000000	96.963954 
3703.000000	96.957960 
3702.000000	96.948599 
3701.000000	96.935302 
3700.000000	96.920524 
3699.000000	96.907931 
3698.000000	96.898555 
3697.000000	96.891183 
3696.000000	96.886574 
3695.000000	96.885241 
3694.000000	96.884142 
3693.000000	96.880862 
3692.000000	96.878196 
3691.000000	96.880754 
3690.000000	96.886933 
3689.000000	96.891013 
3688.000000	96.890808 
3687.000000	96.888428 
3686.000000	96.884588 
3685.000000	96.876473 
3684.000000	96.863527 
3683.000000	96.851306 
3682.000000	96.844550 
3681.000000	96.838750 
3680.000000	96.827377 
3679.000000	96.813089 
3678.000000	96.804099 
3677.000000	96.797502 
3676.000000	96.783198 
3675.000000	96.763562 
3674.000000	96.747638 
3673.000000	96.737112 
3672.000000	96.726373 
3671.000000	96.711244 
3670.000000	96.697388 
3669.000000	96.690898 
3668.000000	96.686336 
3667.000000	96.677007 
3666.000000	96.664360 
3665.000000	96.652982 
3664.000000	96.644209 
3663.000000	96.635356 
3662.000000	96.622464 
3661.000000	96.604227 
3660.000000	96.583558 
3659.000000	96.563422 
3658.000000	96.543264 
3657.000000	96.519375 
3656.000000	96.492879 
3655.000000	96.471009 
3654.000000	96.458703 
3653.000000	96.453309 
3652.000000	96.446143 
3651.000000	96.430087 
3650.000000	96.406563 
3649.000000	96.381705 
3648.000000	96.359211 
3647.000000	96.341706 
3646.000000	96.331177 
3645.000000	96.326072 
3644.000000	96.321618 
3643.000000	96.314109 
3642.000000	96.303307 
3641.000000	96.291473 
3640.000000	96.279439 
3639.000000	96.265761 
3638.000000	96.250592 
3637.000000	96.236124 
3636.000000	96.222635 
3635.000000	96.206502 
3634.000000	96.186354 
3633.000000	96.166881 
3632.000000	96.152299 
3631.000000	96.137766 
3630.000000	96.113205 
3629.000000	96.081620 
3628.000000	96.057961 
3627.000000	96.046586 
3626.000000	96.040877 
3625.000000	96.037061 
3624.000000	96.037447 
3623.000000	96.045023 
3622.000000	96.056467 
3621.000000	96.061855 
3620.000000	96.053656 
3619.000000	96.034601 
3618.000000	96.013904 
3617.000000	95.999851 
3616.000000	95.997086 
3615.000000	96.004748 
3614.000000	96.018032 
3613.000000	96.032222 
3612.000000	96.043908 
3611.000000	96.049517 
3610.000000	96.046598 
3609.000000	96.037867 
3608.000000	96.031110 
3607.000000	96.032476 
3606.000000	96.041601 
3605.000000	96.055336 
3604.000000	96.071881 
3603.000000	96.089755 
3602.000000	96.105928 
3601.000000	96.116240 
3600.000000	96.119396 
3599.000000	96.117247 
3598.000000	96.112612 
3597.000000	96.108173 
3596.000000	96.106298 
3595.000000	96.106434 
3594.000000	96.106697 
3593.000000	96.106844 
3592.000000	96.108718 
3591.000000	96.113657 
3590.000000	96.119028 
3589.000000	96.119525 
3588.000000	96.113511 
3587.000000	96.106039 
3586.000000	96.102563 
3585.000000	96.103874 
3584.000000	96.108557 
3583.000000	96.115544 
3582.000000	96.123878 
3581.000000	96.131162 
3580.000000	96.134695 
3579.000000	96.133692 
3578.000000	96.129988 
3577.000000	96.126266 
3576.000000	96.123869 
3575.000000	96.122506 
3574.000000	96.121510 
3573.000000	96.121031 
3572.000000	96.121289 
3571.000000	96.121649 
3570.000000	96.120173 
3569.000000	96.114626 
3568.000000	96.105383 
3567.000000	96.096935 
3566.000000	96.093521 
3565.000000	96.094979 
3564.000000	96.098437 
3563.000000	96.101311 
3562.000000	96.102607 
3561.000000	96.102554 
3560.000000	96.101691 
3559.000000	96.100483 
3558.000000	96.099317 
3557.000000	96.098587 
3556.000000	96.098404 
3555.000000	96.098327 
3554.000000	96.097563 
3553.000000	96.095889 
3552.000000	96.094152 
3551.000000	96.093360 
3550.000000	96.093489 
3549.000000	96.093534 
3548.000000	96.092575 
3547.000000	96.090460 
3546.000000	96.087568 
3545.000000	96.084487 
3544.000000	96.082015 
3543.000000	96.080891 
3542.000000	96.081096 
3541.000000	96.081850 
3540.000000	96.082436 
3539.000000	96.082760 
3538.000000	96.083155 
3537.000000	96.083966 
3536.000000	96.085336 
3535.000000	96.086851 
3534.000000	96.087677 
3533.000000	96.087283 
3532.000000	96.086166 
3531.000000	96.085479 
3530.000000	96.085676 
3529.000000	96.085845 
3528.000000	96.084707 
3527.000000	96.082022 
3526.000000	96.078801 
3525.000000	96.076420 
3524.000000	96.075722 
3523.000000	96.076812 
3522.000000	96.079002 
3521.000000	96.081213 
3520.000000	96.082738 
3519.000000	96.083552 
3518.000000	96.084020 
3517.000000	96.084329 
3516.000000	96.084396 
3515.000000	96.084286 
3514.000000	96.084510 
3513.000000	96.085534 
3512.000000	96.087013 
3511.000000	96.087859 
3510.000000	96.087275 
3509.000000	96.085546 
3508.000000	96.083821 
3507.000000	96.083102 
3506.000000	96.083476 
3505.000000	96.084203 
3504.000000	96.084420 
3503.000000	96.083834 
3502.000000	96.082840 
3501.000000	96.082174 
3500.000000	96.082509 
3499.000000	96.084179 
3498.000000	96.086924 
3497.000000	96.089754 
3496.000000	96.091360 
3495.000000	96.091038 
3494.000000	96.089280 
3493.000000	96.087385 
3492.000000	96.086138 
3491.000000	96.085186 
3490.000000	96.083947 
3489.000000	96.082681 
3488.000000	96.082150 
3487.000000	96.082343 
3486.000000	96.082183 
3485.000000	96.080801 
3484.000000	96.078647 
3483.000000	96.076974 
3482.000000	96.076510 
3481.000000	96.076948 
3480.000000	96.077545 
3479.000000	96.077766 
3478.000000	96.077316 
3477.000000	96.075979 
3476.000000	96.073650 
3475.000000	96.070441 
3474.000000	96.066726 
3473.000000	96.063159 
3472.000000	96.060503 
3471.000000	96.059211 
3470.000000	96.059104 
3469.000000	96.059459 
3468.000000	96.059455 
3467.000000	96.058642 
3466.000000	96.057069 
3465.000000	96.054938 
3464.000000	96.052260 
3463.000000	96.048919 
3462.000000	96.045037 
3461.000000	96.041172 
3460.000000	96.037985 
3459.000000	96.035616 
3458.000000	96.033581 
3457.000000	96.031313 
3456.000000	96.028797 
3455.000000	96.026545 
3454.000000	96.024969 
3453.000000	96.023922 
3452.000000	96.022937 
3451.000000	96.021686 
3450.000000	96.020031 
3449.000000	96.017795 
3448.000000	96.014805 
3447.000000	96.011215 
3446.000000	96.007581 
3445.000000	96.004507 
3444.000000	96.002233 
3443.000000	96.000620 
3442.000000	95.999320 
3441.000000	95.997928 
3440.000000	95.996144 
3439.000000	95.993891 
3438.000000	95.991337 
3437.000000	95.988797 
3436.000000	95.986542 
3435.000000	95.984665 
3434.000000	95.983072 
3433.000000	95.981534 
3432.000000	95.979825 
3431.000000	95.977867 
3430.000000	95.975762 
3429.000000	95.973674 
3428.000000	95.971664 
3427.000000	95.969683 
3426.000000	95.967740 
3425.000000	95.965985 
3424.000000	95.964520 
3423.000000	95.963209 
3422.000000	95.961758 
3421.000000	95.960040 
3420.000000	95.958271 
3419.000000	95.956810 
3418.000000	95.955783 
3417.000000	95.954961 
3416.000000	95.953994 
3415.000000	95.952752 
3414.000000	95.951336 
3413.000000	95.949873 
3412.000000	95.948378 
3411.000000	95.946835 
3410.000000	95.945361 
3409.000000	95.944238 
3408.000000	95.943704 
3407.000000	95.943631 
3406.000000	95.943464 
3405.000000	95.942679 
3404.000000	95.941328 
3403.000000	95.939968 
3402.000000	95.939023 
3401.000000	95.938384 
3400.000000	95.937725 
3399.000000	95.936982 
3398.000000	95.936368 
3397.000000	95.936067 
3396.000000	95.936007 
3395.000000	95.935877 
3394.000000	95.935295 
3393.000000	95.934055 
3392.000000	95.932316 
3391.000000	95.930540 
3390.000000	95.929253 
3389.000000	95.928886 
3388.000000	95.929691 
3387.000000	95.931544 
3386.000000	95.933752 
3385.000000	95.935217 
3384.000000	95.935089 
3383.000000	95.933438 
3382.000000	95.931410 
3381.000000	95.930414 
3380.000000	95.930799 
3379.000000	95.931465 
3378.000000	95.931175 
3377.000000	95.930370 
3376.000000	95.930894 
3375.000000	95.933699 
3374.000000	95.937620 
3373.000000	95.940696 
3372.000000	95.942365 
3371.000000	95.943670 
3370.000000	95.945614 
3369.000000	95.948066 
3368.000000	95.950261 
3367.000000	95.951674 
3366.000000	95.952138 
3365.000000	95.951606 
3364.000000	95.950282 
3363.000000	95.948803 
3362.000000	95.947974 
3361.000000	95.948287 
3360.000000	95.949761 
3359.000000	95.952004 
3358.000000	95.954313 
3357.000000	95.955975 
3356.000000	95.956811 
3355.000000	95.957392 
3354.000000	95.958513 
3353.000000	95.960462 
3352.000000	95.962907 
3351.000000	95.965426 
3350.000000	95.967871 
3349.000000	95.970200 
3348.000000	95.972234 
3347.000000	95.973841 
3346.000000	95.975216 
3345.000000	95.976719 
3344.000000	95.978389 
3343.000000	95.979831 
3342.000000	95.980741 
3341.000000	95.981395 
3340.000000	95.982351 
3339.000000	95.983756 
3338.000000	95.985281 
3337.000000	95.986627 
3336.000000	95.987822 
3335.000000	95.989026 
3334.000000	95.990288 
3333.000000	95.991565 
3332.000000	95.992860 
3331.000000	95.994221 
3330.000000	95.995645 
3329.000000	95.997062 
3328.000000	95.998414 
3327.000000	95.999708 
3326.000000	96.000979 
3325.000000	96.002246 
3324.000000	96.003510 
3323.000000	96.004767 
3322.000000	96.006019 
3321.000000	96.007277 
3320.000000	96.008561 
3319.000000	96.009895 
3318.000000	96.011287 
3317.000000	96.012717 
3316.000000	96.014144 
3315.000000	96.015527 
3314.000000	96.016849 
3313.000000	96.018129 
3312.000000	96.019403 
3311.000000	96.020704 
3310.000000	96.022045 
3309.000000	96.023416 
3308.000000	96.024783 
3307.000000	96.026106 
3306.000000	96.027372 
3305.000000	96.028595 
3304.000000	96.029814 
3303.000000	96.031082 
3302.000000	96.032434 
3301.000000	96.033870 
3300.000000	96.035345 
3299.000000	96.036788 
3298.000000	96.038160 
3297.000000	96.039490 
3296.000000	96.040873 
3295.000000	96.042381 
3294.000000	96.044014 
3293.000000	96.045703 
3292.000000	96.047363 
3291.000000	96.048942 
3290.000000	96.050420 
3289.000000	96.051808 
3288.000000	96.053143 
3287.000000	96.054485 
3286.000000	96.055870 
3285.000000	96.057293 
3284.000000	96.058727 
3283.000000	96.060199 
3282.000000	96.061785 
3281.000000	96.063524 
3280.000000	96.065335 
3279.000000	96.067061 
3278.000000	96.068622 
3277.000000	96.070088 
3276.000000	96.071622 
3275.000000	96.073326 
3274.000000	96.075160 
3273.000000	96.077004 
3272.000000	96.078790 
3271.000000	96.080516 
3270.000000	96.082179 
3269.000000	96.083745 
3268.000000	96.085204 
3267.000000	96.086624 
3266.000000	96.088130 
3265.000000	96.089812 
3264.000000	96.091671 
3263.000000	96.093586 
3262.000000	96.095382 
3261.000000	96.096979 
3260.000000	96.098445 
3259.000000	96.099927 
3258.000000	96.101505 
3257.000000	96.103154 
3256.000000	96.104814 
3255.000000	96.106430 
3254.000000	96.107963 
3253.000000	96.109417 
3252.000000	96.110895 
3251.000000	96.112563 
3250.000000	96.114486 
3249.000000	96.116550 
3248.000000	96.118522 
3247.000000	96.120287 
3246.000000	96.121918 
3245.000000	96.123582 
3244.000000	96.125357 
3243.000000	96.127171 
3242.000000	96.128933 
3241.000000	96.130637 
3240.000000	96.132305 
3239.000000	96.133911 
3238.000000	96.135447 
3237.000000	96.137047 
3236.000000	96.138920 
3235.000000	96.141130 
3234.000000	96.143511 
3233.000000	96.145821 
3232.000000	96.147932 
3231.000000	96.149869 
3230.000000	96.151737 
3229.000000	96.153635 
3228.000000	96.155605 
3227.000000	96.157637 
3226.000000	96.159710 
3225.000000	96.161801 
3224.000000	96.163882 
3223.000000	96.165916 
3222.000000	96.167894 
3221.000000	96.169844 
3220.000000	96.171787 
3219.000000	96.173725 
3218.000000	96.175680 
3217.000000	96.177702 
3216.000000	96.179826 
3215.000000	96.182083 
3214.000000	96.184516 
3213.000000	96.187129 
3212.000000	96.189798 
3211.000000	96.192303 
3210.000000	96.194542 
3209.000000	96.196636 
3208.000000	96.198787 
3207.000000	96.201040 
3206.000000	96.203278 
3205.000000	96.205432 
3204.000000	96.207632 
3203.000000	96.210061 
3202.000000	96.212749 
3201.000000	96.215554 
3200.000000	96.218267 
3199.000000	96.220792 
3198.000000	96.223186 
3197.000000	96.225568 
3196.000000	96.227967 
3195.000000	96.230309 
3194.000000	96.232558 
3193.000000	96.234840 
3192.000000	96.237348 
3191.000000	96.240134 
3190.000000	96.243055 
3189.000000	96.245898 
3188.000000	96.248551 
3187.000000	96.251022 
3186.000000	96.253395 
3185.000000	96.255803 
3184.000000	96.258356 
3183.000000	96.261097 
3182.000000	96.264002 
3181.000000	96.267004 
3180.000000	96.269968 
3179.000000	96.272735 
3178.000000	96.275254 
3177.000000	96.277692 
3176.000000	96.280302 
3175.000000	96.283158 
3174.000000	96.286136 
3173.000000	96.289083 
3172.000000	96.291910 
3171.000000	96.294516 
3170.000000	96.296827 
3169.000000	96.298963 
3168.000000	96.301238 
3167.000000	96.303866 
3166.000000	96.306756 
3165.000000	96.309630 
3164.000000	96.312242 
3163.000000	96.314482 
3162.000000	96.316385 
3161.000000	96.318150 
3160.000000	96.320039 
3159.000000	96.322206 
3158.000000	96.324696 
3157.000000	96.327558 
3156.000000	96.330791 
3155.000000	96.334176 
3154.000000	96.337387 
3153.000000	96.340341 
3152.000000	96.343203 
3151.000000	96.346010 
3150.000000	96.348477 
3149.000000	96.350352 
3148.000000	96.351800 
3147.000000	96.353331 
3146.000000	96.355381 
3145.000000	96.358035 
3144.000000	96.361070 
3143.000000	96.364131 
3142.000000	96.366969 
3141.000000	96.369593 
3140.000000	96.372222 
3139.000000	96.375066 
3138.000000	96.378146 
3137.000000	96.381266 
3136.000000	96.384074 
3135.000000	96.386247 
3134.000000	96.387774 
3133.000000	96.389105 
3132.000000	96.390834 
3131.000000	96.393087 
3130.000000	96.395484 
3129.000000	96.397728 
3128.000000	96.400056 
3127.000000	96.402894 
3126.000000	96.406300 
3125.000000	96.409900 
3124.000000	96.413246 
3123.000000	96.416114 
3122.000000	96.418492 
3121.000000	96.420583 
3120.000000	96.422783 
3119.000000	96.425413 
3118.000000	96.428399 
3117.000000	96.431308 
3116.000000	96.433766 
3115.000000	96.435807 
3114.000000	96.437803 
3113.000000	96.440120 
3112.000000	96.442858 
3111.000000	96.445868 
3110.000000	96.448920 
3109.000000	96.451831 
3108.000000	96.454528 
3107.000000	96.457041 
3106.000000	96.459444 
3105.000000	96.461734 
3104.000000	96.463785 
3103.000000	96.465498 
3102.000000	96.466990 
3101.000000	96.468564 
3100.000000	96.470464 
3099.000000	96.472706 
3098.000000	96.475180 
3097.000000	96.477833 
3096.000000	96.480621 
3095.000000	96.483376 
3094.000000	96.485955 
3093.000000	96.488396 
3092.000000	96.490802 
3091.000000	96.493111 
3090.000000	96.495158 
3089.000000	96.496958 
3088.000000	96.498748 
3087.000000	96.500740 
3086.000000	96.502965 
3085.000000	96.505304 
3084.000000	96.507554 
3083.000000	96.509571 
3082.000000	96.511368 
3081.000000	96.513081 
3080.000000	96.514867 
3079.000000	96.516766 
3078.000000	96.518702 
3077.000000	96.520624 
3076.000000	96.522612 
3075.000000	96.524734 
3074.000000	96.526868 
3073.000000	96.528820 
3072.000000	96.530605 
3071.000000	96.532442 
3070.000000	96.534450 
3069.000000	96.536526 
3068.000000	96.538523 
3067.000000	96.540392 
3066.000000	96.542111 
3065.000000	96.543646 
3064.000000	96.545049 
3063.000000	96.546428 
3062.000000	96.547786 
3061.000000	96.549037 
3060.000000	96.550224 
3059.000000	96.551555 
3058.000000	96.553205 
3057.000000	96.555193 
3056.000000	96.557430 
3055.000000	96.559663 
3054.000000	96.561417 
3053.000000	96.562321 
3052.000000	96.562639 
3051.000000	96.563308 
3050.000000	96.565071 
3049.000000	96.567759 
3048.000000	96.570440 
3047.000000	96.572300 
3046.000000	96.573182 
3045.000000	96.573470 
3044.000000	96.573874 
3043.000000	96.575208 
3042.000000	96.577925 
3041.000000	96.581548 
3040.000000	96.584742 
3039.000000	96.586404 
3038.000000	96.586572 
3037.000000	96.586155 
3036.000000	96.585887 
3035.000000	96.585700 
3034.000000	96.585248 
3033.000000	96.584659 
3032.000000	96.584413 
3031.000000	96.584618 
3030.000000	96.584870 
3029.000000	96.584853 
3028.000000	96.584636 
3027.000000	96.584240 
3026.000000	96.583396 
3025.000000	96.582131 
3024.000000	96.581230 
3023.000000	96.581515 
3022.000000	96.582863 
3021.000000	96.584558 
3020.000000	96.586446 
3019.000000	96.588929 
3018.000000	96.591697 
3017.000000	96.593361 
3016.000000	96.592859 
3015.000000	96.590644 
3014.000000	96.588234 
3013.000000	96.586914 
3012.000000	96.587116 
3011.000000	96.588493 
3010.000000	96.590009 
3009.000000	96.590395 
3008.000000	96.589011 
3007.000000	96.586324 
3006.000000	96.583377 
3005.000000	96.580904 
3004.000000	96.579157 
3003.000000	96.578212 
3002.000000	96.578122 
3001.000000	96.578891 
3000.000000	96.580347 
2999.000000	96.581855 
2998.000000	96.582323 
2997.000000	96.580996 
2996.000000	96.578440 
2995.000000	96.576361 
2994.000000	96.576068 
2993.000000	96.577263 
2992.000000	96.578342 
2991.000000	96.577695 
2990.000000	96.574834 
2989.000000	96.570803 
2988.000000	96.567648 
2987.000000	96.566961 
2986.000000	96.568752 
2985.000000	96.571845 
2984.000000	96.575297 
2983.000000	96.578959 
2982.000000	96.582725 
2981.000000	96.586062 
2980.000000	96.588541 
2979.000000	96.590093 
2978.000000	96.590429 
2977.000000	96.588967 
2976.000000	96.585951 
2975.000000	96.583070 
2974.000000	96.582268 
2973.000000	96.584218 
2972.000000	96.588276 
2971.000000	96.593339 
2970.000000	96.598204 
2969.000000	96.601703 
2968.000000	96.603371 
2967.000000	96.603865 
2966.000000	96.604254 
2965.000000	96.605097 
2964.000000	96.606522 
2963.000000	96.608730 
2962.000000	96.611748 
2961.000000	96.615022 
2960.000000	96.617975 
2959.000000	96.620810 
2958.000000	96.624172 
2957.000000	96.628157 
2956.000000	96.632122 
2955.000000	96.635272 
2954.000000	96.637054 
2953.000000	96.637399 
2952.000000	96.637228 
2951.000000	96.638339 
2950.000000	96.641907 
2949.000000	96.647237 
2948.000000	96.652593 
2947.000000	96.656982 
2946.000000	96.660365 
2945.000000	96.662507 
2944.000000	96.662905 
2943.000000	96.661980 
2942.000000	96.661081 
2941.000000	96.660904 
2940.000000	96.660930 
2939.000000	96.660833 
2938.000000	96.661447 
2937.000000	96.663513 
2936.000000	96.666140 
2935.000000	96.667508 
2934.000000	96.666896 
2933.000000	96.665266 
2932.000000	96.663986 
2931.000000	96.663593 
2930.000000	96.663834 
2929.000000	96.664361 
2928.000000	96.665097 
2927.000000	96.666120 
2926.000000	96.667440 
2925.000000	96.668975 
2924.000000	96.670760 
2923.000000	96.673018 
2922.000000	96.675756 
2921.000000	96.678310 
2920.000000	96.679778 
2919.000000	96.680075 
2918.000000	96.680159 
2917.000000	96.680820 
2916.000000	96.681564 
2915.000000	96.681328 
2914.000000	96.680228 
2913.000000	96.679837 
2912.000000	96.681337 
2911.000000	96.683876 
2910.000000	96.685305 
2909.000000	96.684581 
2908.000000	96.682892 
2907.000000	96.682249 
2906.000000	96.683215 
2905.000000	96.684536 
2904.000000	96.684681 
2903.000000	96.683687 
2902.000000	96.683119 
2901.000000	96.684303 
2900.000000	96.687188 
2899.000000	96.690684 
2898.000000	96.693924 
2897.000000	96.696873 
2896.000000	96.699764 
2895.000000	96.702350 
2894.000000	96.704190 
2893.000000	96.705477 
2892.000000	96.706962 
2891.000000	96.708963 
2890.000000	96.710928 
2889.000000	96.712321 
2888.000000	96.713460 
2887.000000	96.714980 
2886.000000	96.716810 
2885.000000	96.718319 
2884.000000	96.719413 
2883.000000	96.720774 
2882.000000	96.722840 
2881.000000	96.725174 
2880.000000	96.727191 
2879.000000	96.729081 
2878.000000	96.731462 
2877.000000	96.734415 
2876.000000	96.737331 
2875.000000	96.739659 
2874.000000	96.741422 
2873.000000	96.742976 
2872.000000	96.744613 
2871.000000	96.746453 
2870.000000	96.748493 
2869.000000	96.750616 
2868.000000	96.752647 
2867.000000	96.754498 
2866.000000	96.756232 
2865.000000	96.757973 
2864.000000	96.759859 
2863.000000	96.762040 
2862.000000	96.764566 
2861.000000	96.767275 
2860.000000	96.769862 
2859.000000	96.772154 
2858.000000	96.774221 
2857.000000	96.776234 
2856.000000	96.778338 
2855.000000	96.780550 
2854.000000	96.782769 
2853.000000	96.784863 
2852.000000	96.786785 
2851.000000	96.788598 
2850.000000	96.790424 
2849.000000	96.792332 
2848.000000	96.794295 
2847.000000	96.796233 
2846.000000	96.798085 
2845.000000	96.799858 
2844.000000	96.801600 
2843.000000	96.803364 
2842.000000	96.805185 
2841.000000	96.807058 
2840.000000	96.808911 
2839.000000	96.810644 
2838.000000	96.812220 
2837.000000	96.813707 
2836.000000	96.815226 
2835.000000	96.816845 
2834.000000	96.818549 
2833.000000	96.820280 
2832.000000	96.821988 
2831.000000	96.823632 
2830.000000	96.825179 
2829.000000	96.826625 
2828.000000	96.828011 
2827.000000	96.829417 
2826.000000	96.830925 
2825.000000	96.832561 
2824.000000	96.834212 
2823.000000	96.835648 
2822.000000	96.836713 
2821.000000	96.837478 
2820.000000	96.838195 
2819.000000	96.839093 
2818.000000	96.840224 
2817.000000	96.841528 
2816.000000	96.842968 
2815.000000	96.844505 
2814.000000	96.845992 
2813.000000	96.847184 
2812.000000	96.847922 
2811.000000	96.848251 
2810.000000	96.848396 
2809.000000	96.848701 
2808.000000	96.849503 
2807.000000	96.850974 
2806.000000	96.852964 
2805.000000	96.855041 
2804.000000	96.856853 
2803.000000	96.858339 
2802.000000	96.859670 
2801.000000	96.861053 
2800.000000	96.862573 
2799.000000	96.864130 
2798.000000	96.865461 
2797.000000	96.866339 
2796.000000	96.866833 
2795.000000	96.867338 
2794.000000	96.868198 
2793.000000	96.869336 
2792.000000	96.870397 
2791.000000	96.871179 
2790.000000	96.871790 
2789.000000	96.872388 
2788.000000	96.872962 
2787.000000	96.873453 
2786.000000	96.873943 
2785.000000	96.874621 
2784.000000	96.875620 
2783.000000	96.877012 
2782.000000	96.878848 
2781.000000	96.881081 
2780.000000	96.883514 
2779.000000	96.885879 
2778.000000	96.887914 
2777.000000	96.889344 
2776.000000	96.889965 
2775.000000	96.889919 
2774.000000	96.889749 
2773.000000	96.890008 
2772.000000	96.890862 
2771.000000	96.892158 
2770.000000	96.893728 
2769.000000	96.895425 
2768.000000	96.896973 
2767.000000	96.898069 
2766.000000	96.898727 
2765.000000	96.899353 
2764.000000	96.900334 
2763.000000	96.901632 
2762.000000	96.902878 
2761.000000	96.903780 
2760.000000	96.904385 
2759.000000	96.905005 
2758.000000	96.905884 
2757.000000	96.906894 
2756.000000	96.907605 
2755.000000	96.907787 
2754.000000	96.907718 
2753.000000	96.907930 
2752.000000	96.908599 
2751.000000	96.909436 
2750.000000	96.910151 
2749.000000	96.910820 
2748.000000	96.911634 
2747.000000	96.912487 
2746.000000	96.913070 
2745.000000	96.913301 
2744.000000	96.913465 
2743.000000	96.913914 
2742.000000	96.914718 
2741.000000	96.915694 
2740.000000	96.916608 
2739.000000	96.917350 
2738.000000	96.917917 
2737.000000	96.918353 
2736.000000	96.918733 
2735.000000	96.919149 
2734.000000	96.919695 
2733.000000	96.920437 
2732.000000	96.921380 
2731.000000	96.922436 
2730.000000	96.923480 
2729.000000	96.924427 
2728.000000	96.925239 
2727.000000	96.925872 
2726.000000	96.926300 
2725.000000	96.926614 
2724.000000	96.927024 
2723.000000	96.927655 
2722.000000	96.928422 
2721.000000	96.929124 
2720.000000	96.929676 
2719.000000	96.930167 
2718.000000	96.930710 
2717.000000	96.931286 
2716.000000	96.931772 
2715.000000	96.932131 
2714.000000	96.932530 
2713.000000	96.933205 
2712.000000	96.934168 
2711.000000	96.935104 
2710.000000	96.935747 
2709.000000	96.936297 
2708.000000	96.937210 
2707.000000	96.938545 
2706.000000	96.939813 
2705.000000	96.940586 
2704.000000	96.940937 
2703.000000	96.941060 
2702.000000	96.940852 
2701.000000	96.940351 
2700.000000	96.940338 
2699.000000	96.941788 
2698.000000	96.944580 
2697.000000	96.947249 
2696.000000	96.948375 
2695.000000	96.948045 
2694.000000	96.947705 
2693.000000	96.948703 
2692.000000	96.951065 
2691.000000	96.953575 
2690.000000	96.954792 
2689.000000	96.953936 
2688.000000	96.951168 
2687.000000	96.947473 
2686.000000	96.944338 
2685.000000	96.943156 
2684.000000	96.944235 
2683.000000	96.946280 
2682.000000	96.947518 
2681.000000	96.947580 
2680.000000	96.947737 
2679.000000	96.948996 
2678.000000	96.950691 
2677.000000	96.951619 
2676.000000	96.951914 
2675.000000	96.952688 
2674.000000	96.954118 
2673.000000	96.955084 
2672.000000	96.954790 
2671.000000	96.953605 
2670.000000	96.952038 
2669.000000	96.949943 
2668.000000	96.947214 
2667.000000	96.944394 
2666.000000	96.941901 
2665.000000	96.939304 
2664.000000	96.936114 
2663.000000	96.932791 
2662.000000	96.930263 
2661.000000	96.928724 
2660.000000	96.927546 
2659.000000	96.926095 
2658.000000	96.923990 
2657.000000	96.920865 
2656.000000	96.916669 
2655.000000	96.912145 
2654.000000	96.908215 
2653.000000	96.904846 
2652.000000	96.901343 
2651.000000	96.898000 
2650.000000	96.896554 
2649.000000	96.898298 
2648.000000	96.902198 
2647.000000	96.905294 
2646.000000	96.905044 
2645.000000	96.901124 
2644.000000	96.895379 
2643.000000	96.890548 
2642.000000	96.888504 
2641.000000	96.889192 
2640.000000	96.890986 
2639.000000	96.892167 
2638.000000	96.892193 
2637.000000	96.891591 
2636.000000	96.891133 
2635.000000	96.891447 
2634.000000	96.892927 
2633.000000	96.895308 
2632.000000	96.897443 
2631.000000	96.898091 
2630.000000	96.897062 
2629.000000	96.895274 
2628.000000	96.893745 
2627.000000	96.892887 
2626.000000	96.892756 
2625.000000	96.893431 
2624.000000	96.894830 
2623.000000	96.896461 
2622.000000	96.897686 
2621.000000	96.898119 
2620.000000	96.897649 
2619.000000	96.896355 
2618.000000	96.894689 
2617.000000	96.893509 
2616.000000	96.893458 
2615.000000	96.894342 
2614.000000	96.895365 
2613.000000	96.896047 
2612.000000	96.896680 
2611.000000	96.897808 
2610.000000	96.899492 
2609.000000	96.901220 
2608.000000	96.902356 
2607.000000	96.902641 
2606.000000	96.902361 
2605.000000	96.902071 
2604.000000	96.902029 
2603.000000	96.902045 
2602.000000	96.902034 
2601.000000	96.902453 
2600.000000	96.903743 
2599.000000	96.905466 
2598.000000	96.906524 
2597.000000	96.906376 
2596.000000	96.905518 
2595.000000	96.904596 
2594.000000	96.903566 
2593.000000	96.902348 
2592.000000	96.901787 
2591.000000	96.902921 
2590.000000	96.905359 
2589.000000	96.907290 
2588.000000	96.907608 
2587.000000	96.907283 
2586.000000	96.908092 
2585.000000	96.910622 
2584.000000	96.914018 
2583.000000	96.917160 
2582.000000	96.919418 
2581.000000	96.920523 
2580.000000	96.920637 
2579.000000	96.920626 
2578.000000	96.921539 
2577.000000	96.923378 
2576.000000	96.924784 
2575.000000	96.924396 
2574.000000	96.922236 
2573.000000	96.919327 
2572.000000	96.916323 
2571.000000	96.913125 
2570.000000	96.909889 
2569.000000	96.907691 
2568.000000	96.907575 
2567.000000	96.909273 
2566.000000	96.911381 
2565.000000	96.912838 
2564.000000	96.913812 
2563.000000	96.914934 
2562.000000	96.916212 
2561.000000	96.917160 
2560.000000	96.917782 
2559.000000	96.918859 
2558.000000	96.921045 
2557.000000	96.923968 
2556.000000	96.926470 
2555.000000	96.927629 
2554.000000	96.927366 
2553.000000	96.926195 
2552.000000	96.924766 
2551.000000	96.923706 
2550.000000	96.923443 
2549.000000	96.923772 
2548.000000	96.923770 
2547.000000	96.922657 
2546.000000	96.920791 
2545.000000	96.919485 
2544.000000	96.919503 
2543.000000	96.920129 
2542.000000	96.920015 
2541.000000	96.918828 
2540.000000	96.917599 
2539.000000	96.917432 
2538.000000	96.918361 
2537.000000	96.919684 
2536.000000	96.920946 
2535.000000	96.922164 
2534.000000	96.923210 
2533.000000	96.923598 
2532.000000	96.923093 
2531.000000	96.922191 
2530.000000	96.921762 
2529.000000	96.922113 
2528.000000	96.922766 
2527.000000	96.923107 
2526.000000	96.923094 
2525.000000	96.923124 
2524.000000	96.923427 
2523.000000	96.923864 
2522.000000	96.924230 
2521.000000	96.924516 
2520.000000	96.924849 
2519.000000	96.925312 
2518.000000	96.925888 
2517.000000	96.926425 
2516.000000	96.926638 
2515.000000	96.926323 
2514.000000	96.925703 
2513.000000	96.925388 
2512.000000	96.925753 
2511.000000	96.926627 
2510.000000	96.927648 
2509.000000	96.928740 
2508.000000	96.929963 
2507.000000	96.931098 
2506.000000	96.931851 
2505.000000	96.932361 
2504.000000	96.933114 
2503.000000	96.934286 
2502.000000	96.935446 
2501.000000	96.936096 
2500.000000	96.936253 
2499.000000	96.936324 
2498.000000	96.936617 
2497.000000	96.937110 
2496.000000	96.937688 
2495.000000	96.938319 
2494.000000	96.938995 
2493.000000	96.939634 
2492.000000	96.940154 
2491.000000	96.940575 
2490.000000	96.940986 
2489.000000	96.941411 
2488.000000	96.941776 
2487.000000	96.942017 
2486.000000	96.942197 
2485.000000	96.942470 
2484.000000	96.942955 
2483.000000	96.943650 
2482.000000	96.944412 
2481.000000	96.945041 
2480.000000	96.945407 
2479.000000	96.945498 
2478.000000	96.945401 
2477.000000	96.945250 
2476.000000	96.945197 
2475.000000	96.945381 
2474.000000	96.945839 
2473.000000	96.946392 
2472.000000	96.946694 
2471.000000	96.946500 
2470.000000	96.945904 
2469.000000	96.945373 
2468.000000	96.945406 
2467.000000	96.946166 
2466.000000	96.947320 
2465.000000	96.948237 
2464.000000	96.948485 
2463.000000	96.948208 
2462.000000	96.948158 
2461.000000	96.949136 
2460.000000	96.951196 
2459.000000	96.953407 
2458.000000	96.954645 
2457.000000	96.954518 
2456.000000	96.953331 
2455.000000	96.951563 
2454.000000	96.949768 
2453.000000	96.948683 
2452.000000	96.948743 
2451.000000	96.949500 
2450.000000	96.950112 
2449.000000	96.950412 
2448.000000	96.950839 
2447.000000	96.951387 
2446.000000	96.951424 
2445.000000	96.950718 
2444.000000	96.949895 
2443.000000	96.949740 
2442.000000	96.950697 
2441.000000	96.952979 
2440.000000	96.956426 
2439.000000	96.960190 
2438.000000	96.963340 
2437.000000	96.965922 
2436.000000	96.968602 
2435.000000	96.971290 
2434.000000	96.973141 
2433.000000	96.974065 
2432.000000	96.975193 
2431.000000	96.977460 
2430.000000	96.980696 
2429.000000	96.984369 
2428.000000	96.988100 
2427.000000	96.991037 
2426.000000	96.991833 
2425.000000	96.989877 
2424.000000	96.985984 
2423.000000	96.981476 
2422.000000	96.977442 
2421.000000	96.975137 
2420.000000	96.975720 
2419.000000	96.978913 
2418.000000	96.982703 
2417.000000	96.985467 
2416.000000	96.987609 
2415.000000	96.990171 
2414.000000	96.992858 
2413.000000	96.994583 
2412.000000	96.995334 
2411.000000	96.996070 
2410.000000	96.997264 
2409.000000	96.998793 
2408.000000	97.000795 
2407.000000	97.003503 
2406.000000	97.006460 
2405.000000	97.008728 
2404.000000	97.009646 
2403.000000	97.008930 
2402.000000	97.006738 
2401.000000	97.004462 
2400.000000	97.004499 
2399.000000	97.008021 
2398.000000	97.013480 
2397.000000	97.018273 
2396.000000	97.021264 
2395.000000	97.022653 
2394.000000	97.022277 
2393.000000	97.019831 
2392.000000	97.016471 
2391.000000	97.014339 
2390.000000	97.013955 
2389.000000	97.013516 
2388.000000	97.011187 
2387.000000	97.006858 
2386.000000	97.001366 
2385.000000	96.995408 
2384.000000	96.989980 
2383.000000	96.986887 
2382.000000	96.987937 
2381.000000	96.993848 
2380.000000	97.004120 
2379.000000	97.017220 
2378.000000	97.030325 
2377.000000	97.039608 
2376.000000	97.042141 
2375.000000	97.037710 
2374.000000	97.028451 
2373.000000	97.016984 
2372.000000	97.005620 
2371.000000	96.997167 
2370.000000	96.994216 
2369.000000	96.996238 
2368.000000	96.998558 
2367.000000	96.996831 
2366.000000	96.992448 
2365.000000	96.990744 
2364.000000	96.993331 
2363.000000	96.995264 
2362.000000	96.991043 
2361.000000	96.981299 
2360.000000	96.970567 
2359.000000	96.961291 
2358.000000	96.955152 
2357.000000	96.954804 
2356.000000	96.960095 
2355.000000	96.965935 
2354.000000	96.967241 
2353.000000	96.961224 
2352.000000	96.946446 
2351.000000	96.925121 
2350.000000	96.904941 
2349.000000	96.895231 
2348.000000	96.900973 
2347.000000	96.916710 
2346.000000	96.927346 
2345.000000	96.923302 
2344.000000	96.910792 
2343.000000	96.901997 
2342.000000	96.903000 
2341.000000	96.914053 
2340.000000	96.930611 
2339.000000	96.944245 
2338.000000	96.949368 
2337.000000	96.947119 
2336.000000	96.941745 
2335.000000	96.935859 
2334.000000	96.930876 
2333.000000	96.927184 
2332.000000	96.922030 
2331.000000	96.910668 
2330.000000	96.888926 
2329.000000	96.854651 
2328.000000	96.809794 
2327.000000	96.761111 
2326.000000	96.717862 
2325.000000	96.687753 
2324.000000	96.674500 
2323.000000	96.677931 
2322.000000	96.691241 
2321.000000	96.704365 
2320.000000	96.711075 
2319.000000	96.714920 
2318.000000	96.722471 
2317.000000	96.736209 
2316.000000	96.752243 
2315.000000	96.764273 
2314.000000	96.767273 
2313.000000	96.761185 
2312.000000	96.751554 
2311.000000	96.745044 
2310.000000	96.742521 
2309.000000	96.738585 
2308.000000	96.730369 
2307.000000	96.722752 
2306.000000	96.722425 
2305.000000	96.728621 
2304.000000	96.734847 
2303.000000	96.737532 
2302.000000	96.738837 
2301.000000	96.741307 
2300.000000	96.744071 
2299.000000	96.744573 
2298.000000	96.741414 
2297.000000	96.735374 
2296.000000	96.729188 
2295.000000	96.727455 
2294.000000	96.733600 
2293.000000	96.746295 
2292.000000	96.759239 
2291.000000	96.766715 
2290.000000	96.768203 
2289.000000	96.767338 
2288.000000	96.766976 
2287.000000	96.766814 
2286.000000	96.765792 
2285.000000	96.765315 
2284.000000	96.768700 
2283.000000	96.777285 
2282.000000	96.788615 
2281.000000	96.798847 
2280.000000	96.806182 
2279.000000	96.810763 
2278.000000	96.812764 
2277.000000	96.812412 
2276.000000	96.811318 
2275.000000	96.811837 
2274.000000	96.814818 
2273.000000	96.819007 
2272.000000	96.822944 
2271.000000	96.826356 
2270.000000	96.829309 
2269.000000	96.831598 
2268.000000	96.833638 
2267.000000	96.836636 
2266.000000	96.840808 
2265.000000	96.844666 
2264.000000	96.846594 
2263.000000	96.845842 
2262.000000	96.841813 
2261.000000	96.834387 
2260.000000	96.825898 
2259.000000	96.820457 
2258.000000	96.819844 
2257.000000	96.821986 
2256.000000	96.824766 
2255.000000	96.829235 
2254.000000	96.836852 
2253.000000	96.845364 
2252.000000	96.850335 
2251.000000	96.849887 
2250.000000	96.845452 
2249.000000	96.839020 
2248.000000	96.832365 
2247.000000	96.827903 
2246.000000	96.827338 
2245.000000	96.829060 
2244.000000	96.829090 
2243.000000	96.825519 
2242.000000	96.820486 
2241.000000	96.817545 
2240.000000	96.818526 
2239.000000	96.823025 
2238.000000	96.829350 
2237.000000	96.835778 
2236.000000	96.842085 
2235.000000	96.849402 
2234.000000	96.857383 
2233.000000	96.862793 
2232.000000	96.862926 
2231.000000	96.859236 
2230.000000	96.855326 
2229.000000	96.852074 
2228.000000	96.847978 
2227.000000	96.843638 
2226.000000	96.841650 
2225.000000	96.841685 
2224.000000	96.839897 
2223.000000	96.834682 
2222.000000	96.829525 
2221.000000	96.828146 
2220.000000	96.829224 
2219.000000	96.828932 
2218.000000	96.826268 
2217.000000	96.823531 
2216.000000	96.822611 
2215.000000	96.822784 
2214.000000	96.822044 
2213.000000	96.819356 
2212.000000	96.815406 
2211.000000	96.811807 
2210.000000	96.809626 
2209.000000	96.808572 
2208.000000	96.807634 
2207.000000	96.806409 
2206.000000	96.805564 
2205.000000	96.806089 
2204.000000	96.808260 
2203.000000	96.810893 
2202.000000	96.812304 
2201.000000	96.811700 
2200.000000	96.808979 
2199.000000	96.804327 
2198.000000	96.798530 
2197.000000	96.793067 
2196.000000	96.788936 
2195.000000	96.785536 
2194.000000	96.781769 
2193.000000	96.778404 
2192.000000	96.777987 
2191.000000	96.781624 
2190.000000	96.786933 
2189.000000	96.790472 
2188.000000	96.791504 
2187.000000	96.791352 
2186.000000	96.789561 
2185.000000	96.784026 
2184.000000	96.776512 
2183.000000	96.774770 
2182.000000	96.785052 
2181.000000	96.802986 
2180.000000	96.815421 
2179.000000	96.813602 
2178.000000	96.801529 
2177.000000	96.790671 
2176.000000	96.787767 
2175.000000	96.790006 
2174.000000	96.791461 
2173.000000	96.791189 
2172.000000	96.793355 
2171.000000	96.800653 
2170.000000	96.809808 
2169.000000	96.814435 
2168.000000	96.811747 
2167.000000	96.804750 
2166.000000	96.797056 
2165.000000	96.787271 
2164.000000	96.771517 
2163.000000	96.752454 
2162.000000	96.743006 
2161.000000	96.757685 
2160.000000	96.800182 
2159.000000	96.858702 
2158.000000	96.913150 
2157.000000	96.949707 
2156.000000	96.967484 
2155.000000	96.973744 
2154.000000	96.976591 
2153.000000	96.980614 
2152.000000	96.985503 
2151.000000	96.987166 
2150.000000	96.982013 
2149.000000	96.972042 
2148.000000	96.964623 
2147.000000	96.965146 
2146.000000	96.971037 
2145.000000	96.975679 
2144.000000	96.977699 
2143.000000	96.982610 
2142.000000	96.994227 
2141.000000	97.008281 
2140.000000	97.017490 
2139.000000	97.020735 
2138.000000	97.023482 
2137.000000	97.029856 
2136.000000	97.037778 
2135.000000	97.042391 
2134.000000	97.041596 
2133.000000	97.037430 
2132.000000	97.033513 
2131.000000	97.031810 
2130.000000	97.031368 
2129.000000	97.029756 
2128.000000	97.026091 
2127.000000	97.022515 
2126.000000	97.022040 
2125.000000	97.025108 
2124.000000	97.028944 
2123.000000	97.030062 
2122.000000	97.026444 
2121.000000	97.017442 
2120.000000	97.003081 
2119.000000	96.984676 
2118.000000	96.966045 
2117.000000	96.952151 
2116.000000	96.944777 
2115.000000	96.940391 
2114.000000	96.933290 
2113.000000	96.921913 
2112.000000	96.911553 
2111.000000	96.909151 
2110.000000	96.916111 
2109.000000	96.927430 
2108.000000	96.937010 
2107.000000	96.942278 
2106.000000	96.943913 
2105.000000	96.943914 
2104.000000	96.944716 
2103.000000	96.947477 
2102.000000	96.949571 
2101.000000	96.945925 
2100.000000	96.935241 
2099.000000	96.923763 
2098.000000	96.920473 
2097.000000	96.928776 
2096.000000	96.944171 
2095.000000	96.958653 
2094.000000	96.966663 
2093.000000	96.967149 
2092.000000	96.962247 
2091.000000	96.955468 
2090.000000	96.949943 
2089.000000	96.946947 
2088.000000	96.945661 
2087.000000	96.944186 
2086.000000	96.940855 
2085.000000	96.935327 
2084.000000	96.929056 
2083.000000	96.924256 
2082.000000	96.921985 
2081.000000	96.921641 
2080.000000	96.922524 
2079.000000	96.924831 
2078.000000	96.928127 
2077.000000	96.930141 
2076.000000	96.929073 
2075.000000	96.926367 
2074.000000	96.924798 
2073.000000	96.923865 
2072.000000	96.919902 
2071.000000	96.911581 
2070.000000	96.902493 
2069.000000	96.896988 
2068.000000	96.895490 
2067.000000	96.895284 
2066.000000	96.894268 
2065.000000	96.892279 
2064.000000	96.889551 
2063.000000	96.886230 
2062.000000	96.883534 
2061.000000	96.883272 
2060.000000	96.885290 
2059.000000	96.886782 
2058.000000	96.885163 
2057.000000	96.880974 
2056.000000	96.876842 
2055.000000	96.874096 
2054.000000	96.871606 
2053.000000	96.867812 
2052.000000	96.862783 
2051.000000	96.857903 
2050.000000	96.854369 
2049.000000	96.852552 
2048.000000	96.852199 
2047.000000	96.852876 
2046.000000	96.854239 
2045.000000	96.855948 
2044.000000	96.857335 
2043.000000	96.857356 
2042.000000	96.855299 
2041.000000	96.851817 
2040.000000	96.848979 
2039.000000	96.848739 
2038.000000	96.851444 
2037.000000	96.855679 
2036.000000	96.859320 
2035.000000	96.860966 
2034.000000	96.860947 
2033.000000	96.861402 
2032.000000	96.864572 
2031.000000	96.870120 
2030.000000	96.874442 
2029.000000	96.873936 
2028.000000	96.868745 
2027.000000	96.862773 
2026.000000	96.859703 
2025.000000	96.860021 
2024.000000	96.862555 
2023.000000	96.867278 
2022.000000	96.875008 
2021.000000	96.884541 
2020.000000	96.891855 
2019.000000	96.892957 
2018.000000	96.886829 
2017.000000	96.876261 
2016.000000	96.866321 
2015.000000	96.861141 
2014.000000	96.860891 
2013.000000	96.861461 
2012.000000	96.858923 
2011.000000	96.855172 
2010.000000	96.856843 
2009.000000	96.867510 
2008.000000	96.882678 
2007.000000	96.894228 
2006.000000	96.898582 
2005.000000	96.898027 
2004.000000	96.896181 
2003.000000	96.895065 
2002.000000	96.895980 
2001.000000	96.899157 
2000.000000	96.901597 
1999.000000	96.897783 
1998.000000	96.884502 
1997.000000	96.865152 
1996.000000	96.847920 
1995.000000	96.838990 
1994.000000	96.838282 
1993.000000	96.841230 
1992.000000	96.843420 
1991.000000	96.843612 
1990.000000	96.842741 
1989.000000	96.841214 
1988.000000	96.838228 
1987.000000	96.833391 
1986.000000	96.827916 
1985.000000	96.823094 
1984.000000	96.817672 
1983.000000	96.808074 
1982.000000	96.792896 
1981.000000	96.777270 
1980.000000	96.771201 
1979.000000	96.781741 
1978.000000	96.806461 
1977.000000	96.834391 
1976.000000	96.854425 
1975.000000	96.863290 
1974.000000	96.865340 
1973.000000	96.867424 
1972.000000	96.873630 
1971.000000	96.882689 
1970.000000	96.889554 
1969.000000	96.889902 
1968.000000	96.883677 
1967.000000	96.875125 
1966.000000	96.869919 
1965.000000	96.871723 
1964.000000	96.880819 
1963.000000	96.895088 
1962.000000	96.911781 
1961.000000	96.928028 
1960.000000	96.939883 
1959.000000	96.943037 
1958.000000	96.936930 
1957.000000	96.927834 
1956.000000	96.924579 
1955.000000	96.929847 
1954.000000	96.937970 
1953.000000	96.942050 
1952.000000	96.941037 
1951.000000	96.938712 
1950.000000	96.938444 
1949.000000	96.940907 
1948.000000	96.945520 
1947.000000	96.951163 
1946.000000	96.955473 
1945.000000	96.955876 
1944.000000	96.952123 
1943.000000	96.947020 
1942.000000	96.944020 
1941.000000	96.943957 
1940.000000	96.944823 
1939.000000	96.944460 
1938.000000	96.943080 
1937.000000	96.943375 
1936.000000	96.947469 
1935.000000	96.953738 
1934.000000	96.958306 
1933.000000	96.960419 
1932.000000	96.963851 
1931.000000	96.971501 
1930.000000	96.980934 
1929.000000	96.986916 
1928.000000	96.987827 
1927.000000	96.986114 
1926.000000	96.983771 
1925.000000	96.980425 
1924.000000	96.975719 
1923.000000	96.971441 
1922.000000	96.969364 
1921.000000	96.968899 
1920.000000	96.968492 
1919.000000	96.967160 
1918.000000	96.964410 
1917.000000	96.960596 
1916.000000	96.957744 
1915.000000	96.958088 
1914.000000	96.960794 
1913.000000	96.962272 
1912.000000	96.960552 
1911.000000	96.957702 
1910.000000	96.956619 
1909.000000	96.957258 
1908.000000	96.958014 
1907.000000	96.958185 
1906.000000	96.957376 
1905.000000	96.954242 
1904.000000	96.947990 
1903.000000	96.941010 
1902.000000	96.936979 
1901.000000	96.936536 
1900.000000	96.937336 
1899.000000	96.937270 
1898.000000	96.936170 
1897.000000	96.934725 
1896.000000	96.933116 
1895.000000	96.931306 
1894.000000	96.929235 
1893.000000	96.926542 
1892.000000	96.923181 
1891.000000	96.920090 
1890.000000	96.918408 
1889.000000	96.918258 
1888.000000	96.918995 
1887.000000	96.920402 
1886.000000	96.922250 
1885.000000	96.923281 
1884.000000	96.922252 
1883.000000	96.919863 
1882.000000	96.918455 
1881.000000	96.919430 
1880.000000	96.921909 
1879.000000	96.923636 
1878.000000	96.923001 
1877.000000	96.920471 
1876.000000	96.918196 
1875.000000	96.918146 
1874.000000	96.920643 
1873.000000	96.924383 
1872.000000	96.927697 
1871.000000	96.929632 
1870.000000	96.929852 
1869.000000	96.928740 
1868.000000	96.927870 
1867.000000	96.929057 
1866.000000	96.932298 
1865.000000	96.935701 
1864.000000	96.938055 
1863.000000	96.940332 
1862.000000	96.943696 
1861.000000	96.947231 
1860.000000	96.949265 
1859.000000	96.950243 
1858.000000	96.952285 
1857.000000	96.956196 
1856.000000	96.960804 
1855.000000	96.964699 
1854.000000	96.967313 
1853.000000	96.968642 
1852.000000	96.969992 
1851.000000	96.973531 
1850.000000	96.979561 
1849.000000	96.985817 
1848.000000	96.990218 
1847.000000	96.993626 
1846.000000	96.998000 
1845.000000	97.002849 
1844.000000	97.005774 
1843.000000	97.006412 
1842.000000	97.006849 
1841.000000	97.008283 
1840.000000	97.010881 
1839.000000	97.015248 
1838.000000	97.021708 
1837.000000	97.028086 
1836.000000	97.031011 
1835.000000	97.030326 
1834.000000	97.029271 
1833.000000	97.030308 
1832.000000	97.033182 
1831.000000	97.036028 
1830.000000	97.037456 
1829.000000	97.037888 
1828.000000	97.038378 
1827.000000	97.039281 
1826.000000	97.039955 
1825.000000	97.039950 
1824.000000	97.039572 
1823.000000	97.039517 
1822.000000	97.040517 
1821.000000	97.042653 
1820.000000	97.045653 
1819.000000	97.049712 
1818.000000	97.055565 
1817.000000	97.062024 
1816.000000	97.065363 
1815.000000	97.064472 
1814.000000	97.062415 
1813.000000	97.062403 
1812.000000	97.063618 
1811.000000	97.062604 
1810.000000	97.059173 
1809.000000	97.055706 
1808.000000	97.052961 
1807.000000	97.051236 
1806.000000	97.052197 
1805.000000	97.056090 
1804.000000	97.058935 
1803.000000	97.056403 
1802.000000	97.048359 
1801.000000	97.039412 
1800.000000	97.033624 
1799.000000	97.031063 
1798.000000	97.030742 
1797.000000	97.030872 
1796.000000	97.029423 
1795.000000	97.027501 
1794.000000	97.028713 
1793.000000	97.034542 
1792.000000	97.040784 
1791.000000	97.042912 
1790.000000	97.043408 
1789.000000	97.046568 
1788.000000	97.052328 
1787.000000	97.057621 
1786.000000	97.060594 
1785.000000	97.061946 
1784.000000	97.062934 
1783.000000	97.065111 
1782.000000	97.068523 
1781.000000	97.072058 
1780.000000	97.075432 
1779.000000	97.079350 
1778.000000	97.085306 
1777.000000	97.092333 
1776.000000	97.097494 
1775.000000	97.099104 
1774.000000	97.097998 
1773.000000	97.097529 
1772.000000	97.099911 
1771.000000	97.102585 
1770.000000	97.103583 
1769.000000	97.104253 
1768.000000	97.106090 
1767.000000	97.109250 
1766.000000	97.112954 
1765.000000	97.117015 
1764.000000	97.121244 
1763.000000	97.124398 
1762.000000	97.125477 
1761.000000	97.125941 
1760.000000	97.127628 
1759.000000	97.130295 
1758.000000	97.132748 
1757.000000	97.134609 
1756.000000	97.137279 
1755.000000	97.140743 
1754.000000	97.142887 
1753.000000	97.142225 
1752.000000	97.139800 
1751.000000	97.138688 
1750.000000	97.140544 
1749.000000	97.143942 
1748.000000	97.146714 
1747.000000	97.148391 
1746.000000	97.149062 
1745.000000	97.149273 
1744.000000	97.149827 
1743.000000	97.150464 
1742.000000	97.150537 
1741.000000	97.150837 
1740.000000	97.152700 
1739.000000	97.155717 
1738.000000	97.158065 
1737.000000	97.158934 
1736.000000	97.158526 
1735.000000	97.157254 
1734.000000	97.156150 
1733.000000	97.154776 
1732.000000	97.153842 
1731.000000	97.155264 
1730.000000	97.158708 
1729.000000	97.161444 
1728.000000	97.162064 
1727.000000	97.161601 
1726.000000	97.160804 
1725.000000	97.159797 
1724.000000	97.158303 
1723.000000	97.156379 
1722.000000	97.155227 
1721.000000	97.155122 
1720.000000	97.154960 
1719.000000	97.153488 
1718.000000	97.151492 
1717.000000	97.150191 
1716.000000	97.147698 
1715.000000	97.143667 
1714.000000	97.140353 
1713.000000	97.138000 
1712.000000	97.134874 
1711.000000	97.131185 
1710.000000	97.128333 
1709.000000	97.125819 
1708.000000	97.122396 
1707.000000	97.118806 
1706.000000	97.116899 
1705.000000	97.115751 
1704.000000	97.111867 
1703.000000	97.104650 
1702.000000	97.096401 
1701.000000	97.090742 
1700.000000	97.088729 
1699.000000	97.086351 
1698.000000	97.083861 
1697.000000	97.082482 
1696.000000	97.080673 
1695.000000	97.077489 
1694.000000	97.073794 
1693.000000	97.070322 
1692.000000	97.066592 
1691.000000	97.062083 
1690.000000	97.057044 
1689.000000	97.051986 
1688.000000	97.047446 
1687.000000	97.043632 
1686.000000	97.040605 
1685.000000	97.038488 
1684.000000	97.036148 
1683.000000	97.032417 
1682.000000	97.028054 
1681.000000	97.023698 
1680.000000	97.019612 
1679.000000	97.015923 
1678.000000	97.012486 
1677.000000	97.009094 
1676.000000	97.005830 
1675.000000	97.002793 
1674.000000	96.999265 
1673.000000	96.994941 
1672.000000	96.990428 
1671.000000	96.986429 
1670.000000	96.983208 
1669.000000	96.980316 
1668.000000	96.977843 
1667.000000	96.976169 
1666.000000	96.974642 
1665.000000	96.972678 
1664.000000	96.970709 
1663.000000	96.969547 
1662.000000	96.968141 
1661.000000	96.964552 
1660.000000	96.959912 
1659.000000	96.956722 
1658.000000	96.955167 
1657.000000	96.953232 
1656.000000	96.949028 
1655.000000	96.941880 
1654.000000	96.934327 
1653.000000	96.932220 
1652.000000	96.931100 
1651.000000	96.929113 
1650.000000	96.927671 
1649.000000	96.927273 
1648.000000	96.927209 
1647.000000	96.926678 
1646.000000	96.924139 
1645.000000	96.919316 
1644.000000	96.913558 
1643.000000	96.908520 
1642.000000	96.905588 
1641.000000	96.904661 
1640.000000	96.905386 
1639.000000	96.905879 
1638.000000	96.904190 
1637.000000	96.900244 
1636.000000	96.897355 
1635.000000	96.898352 
1634.000000	96.901625 
1633.000000	96.904713 
1632.000000	96.905078 
1631.000000	96.902935 
1630.000000	96.900772 
1629.000000	96.900844 
1628.000000	96.903395 
1627.000000	96.907149 
1626.000000	96.909525 
1625.000000	96.909172 
1624.000000	96.908656 
1623.000000	96.911302 
1622.000000	96.915272 
1621.000000	96.916133 
1620.000000	96.914266 
1619.000000	96.913217 
1618.000000	96.915772 
1617.000000	96.921169 
1616.000000	96.926089 
1615.000000	96.930245 
1614.000000	96.934732 
1613.000000	96.937987 
1612.000000	96.938940 
1611.000000	96.939778 
1610.000000	96.942527 
1609.000000	96.947268 
1608.000000	96.954558 
1607.000000	96.964360 
1606.000000	96.973105 
1605.000000	96.978268 
1604.000000	96.983224 
1603.000000	96.990735 
1602.000000	96.998063 
1601.000000	97.002097 
1600.000000	97.004874 
1599.000000	97.009915 
1598.000000	97.016408 
1597.000000	97.021831 
1596.000000	97.026799 
1595.000000	97.033817 
1594.000000	97.042670 
1593.000000	97.050622 
1592.000000	97.056756 
1591.000000	97.062304 
1590.000000	97.067247 
1589.000000	97.070432 
1588.000000	97.073156 
1587.000000	97.078093 
1586.000000	97.084895 
1585.000000	97.090049 
1584.000000	97.093834 
1583.000000	97.099883 
1582.000000	97.107469 
1581.000000	97.112635 
1580.000000	97.115073 
1579.000000	97.118013 
1578.000000	97.123624 
1577.000000	97.133187 
1576.000000	97.145237 
1575.000000	97.153749 
1574.000000	97.155730 
1573.000000	97.154378 
1572.000000	97.154660 
1571.000000	97.159448 
1570.000000	97.165454 
1569.000000	97.164592 
1568.000000	97.158879 
1567.000000	97.156065 
1566.000000	97.157004 
1565.000000	97.158691 
1564.000000	97.161244 
1563.000000	97.163191 
1562.000000	97.161565 
1561.000000	97.151784 
1560.000000	97.146802 
1559.000000	97.155799 
1558.000000	97.156842 
1557.000000	97.149009 
1556.000000	97.145354 
1555.000000	97.144894 
1554.000000	97.141959 
1553.000000	97.136097 
1552.000000	97.131337 
1551.000000	97.125813 
1550.000000	97.116186 
1549.000000	97.104418 
1548.000000	97.095851 
1547.000000	97.091904 
1546.000000	97.087274 
1545.000000	97.077030 
1544.000000	97.063557 
1543.000000	97.052109 
1542.000000	97.045814 
1541.000000	97.044206 
1540.000000	97.038256 
1539.000000	97.021999 
1538.000000	97.001311 
1537.000000	96.982124 
1536.000000	96.965915 
1535.000000	96.954610 
1534.000000	96.948358 
1533.000000	96.942430 
1532.000000	96.931773 
1531.000000	96.916952 
1530.000000	96.901572 
1529.000000	96.887250 
1528.000000	96.872838 
1527.000000	96.857819 
1526.000000	96.843160 
1525.000000	96.830402 
1524.000000	96.820867 
1523.000000	96.814062 
1522.000000	96.805784 
1521.000000	96.789782 
1520.000000	96.766719 
1519.000000	96.744163 
1518.000000	96.725884 
1517.000000	96.710299 
1516.000000	96.695030 
1515.000000	96.680793 
1514.000000	96.669049 
1513.000000	96.658994 
1512.000000	96.647865 
1511.000000	96.633106 
1510.000000	96.615079 
1509.000000	96.595088 
1508.000000	96.575014 
1507.000000	96.556534 
1506.000000	96.540315 
1505.000000	96.524379 
1504.000000	96.508147 
1503.000000	96.491987 
1502.000000	96.476137 
1501.000000	96.461014 
1500.000000	96.447318 
1499.000000	96.434402 
1498.000000	96.419862 
1497.000000	96.402505 
1496.000000	96.383383 
1495.000000	96.365531 
1494.000000	96.351899 
1493.000000	96.342917 
1492.000000	96.336310 
1491.000000	96.328459 
1490.000000	96.316607 
1489.000000	96.300850 
1488.000000	96.282168 
1487.000000	96.261926 
1486.000000	96.242836 
1485.000000	96.224449 
1484.000000	96.206026 
1483.000000	96.189311 
1482.000000	96.175242 
1481.000000	96.162711 
1480.000000	96.149381 
1479.000000	96.135002 
1478.000000	96.120792 
1477.000000	96.107192 
1476.000000	96.092426 
1475.000000	96.075127 
1474.000000	96.056215 
1473.000000	96.038127 
1472.000000	96.023083 
1471.000000	96.010710 
1470.000000	96.000088 
1469.000000	95.989954 
1468.000000	95.978115 
1467.000000	95.964072 
1466.000000	95.951047 
1465.000000	95.942307 
1464.000000	95.936891 
1463.000000	95.929006 
1462.000000	95.915779 
1461.000000	95.900320 
1460.000000	95.887489 
1459.000000	95.877643 
1458.000000	95.863701 
1457.000000	95.842040 
1456.000000	95.821310 
1455.000000	95.807644 
1454.000000	95.797158 
1453.000000	95.787379 
1452.000000	95.780662 
1451.000000	95.779618 
1450.000000	95.784215 
1449.000000	95.792083 
1448.000000	95.797744 
1447.000000	95.797153 
1446.000000	95.790985 
1445.000000	95.783670 
1444.000000	95.779456 
1443.000000	95.776499 
1442.000000	95.771690 
1441.000000	95.765718 
1440.000000	95.761355 
1439.000000	95.757270 
1438.000000	95.749613 
1437.000000	95.740414 
1436.000000	95.737089 
1435.000000	95.740184 
1434.000000	95.744961 
1433.000000	95.749522 
1432.000000	95.753773 
1431.000000	95.757207 
1430.000000	95.759309 
1429.000000	95.762362 
1428.000000	95.768314 
1427.000000	95.777308 
1426.000000	95.787595 
1425.000000	95.797533 
1424.000000	95.808376 
1423.000000	95.818836 
1422.000000	95.827271 
1421.000000	95.836477 
1420.000000	95.850273 
1419.000000	95.863064 
1418.000000	95.866062 
1417.000000	95.865949 
1416.000000	95.875143 
1415.000000	95.894445 
1414.000000	95.914893 
1413.000000	95.929466 
1412.000000	95.939887 
1411.000000	95.950410 
1410.000000	95.962261 
1409.000000	95.976727 
1408.000000	95.995050 
1407.000000	96.016371 
1406.000000	96.037671 
1405.000000	96.057093 
1404.000000	96.075898 
1403.000000	96.092869 
1402.000000	96.106788 
1401.000000	96.122433 
1400.000000	96.146782 
1399.000000	96.179170 
1398.000000	96.210425 
1397.000000	96.235551 
1396.000000	96.258012 
1395.000000	96.282387 
1394.000000	96.307636 
1393.000000	96.332007 
1392.000000	96.358433 
1391.000000	96.388086 
1390.000000	96.417409 
1389.000000	96.441896 
1388.000000	96.459588 
1387.000000	96.472090 
1386.000000	96.483480 
1385.000000	96.498401 
1384.000000	96.519775 
1383.000000	96.545853 
1382.000000	96.571877 
1381.000000	96.594672 
1380.000000	96.613821 
1379.000000	96.630919 
1378.000000	96.648388 
1377.000000	96.667730 
1376.000000	96.687624 
1375.000000	96.704742 
1374.000000	96.717489 
1373.000000	96.729495 
1372.000000	96.745592 
1371.000000	96.766648 
1370.000000	96.789126 
1369.000000	96.808259 
1368.000000	96.823285 
1367.000000	96.836615 
1366.000000	96.850796 
1365.000000	96.867332 
1364.000000	96.884973 
1363.000000	96.899570 
1362.000000	96.908460 
1361.000000	96.914302 
1360.000000	96.922457 
1359.000000	96.935882 
1358.000000	96.952899 
1357.000000	96.969162 
1356.000000	96.981555 
1355.000000	96.990182 
1354.000000	96.997464 
1353.000000	97.006445 
1352.000000	97.017331 
1351.000000	97.028831 
1350.000000	97.040022 
1349.000000	97.049582 
1348.000000	97.057178 
1347.000000	97.063953 
1346.000000	97.071765 
1345.000000	97.081462 
1344.000000	97.092524 
1343.000000	97.104416 
1342.000000	97.116712 
1341.000000	97.127205 
1340.000000	97.132138 
1339.000000	97.130525 
1338.000000	97.126286 
1337.000000	97.124406 
1336.000000	97.126205 
1335.000000	97.129815 
1334.000000	97.134085 
1333.000000	97.139819 
1332.000000	97.146969 
1331.000000	97.153371 
1330.000000	97.156774 
1329.000000	97.157145 
1328.000000	97.156314 
1327.000000	97.156778 
1326.000000	97.159859 
1325.000000	97.164090 
1324.000000	97.166653 
1323.000000	97.165631 
1322.000000	97.161725 
1321.000000	97.157775 
1320.000000	97.156065 
1319.000000	97.156123 
1318.000000	97.155857 
1317.000000	97.154524 
1316.000000	97.153110 
1315.000000	97.152251 
1314.000000	97.151494 
1313.000000	97.150944 
1312.000000	97.151581 
1311.000000	97.153442 
1310.000000	97.154983 
1309.000000	97.155466 
1308.000000	97.156315 
1307.000000	97.159464 
1306.000000	97.164634 
1305.000000	97.169320 
1304.000000	97.171629 
1303.000000	97.171226 
1302.000000	97.168564 
1301.000000	97.164415 
1300.000000	97.160127 
1299.000000	97.157002 
1298.000000	97.155129 
1297.000000	97.153538 
1296.000000	97.151820 
1295.000000	97.151203 
1294.000000	97.153262 
1293.000000	97.158043 
1292.000000	97.163758 
1291.000000	97.168080 
1290.000000	97.169625 
1289.000000	97.168172 
1288.000000	97.163986 
1287.000000	97.157652 
1286.000000	97.150622 
1285.000000	97.145323 
1284.000000	97.143847 
1283.000000	97.145889 
1282.000000	97.148428 
1281.000000	97.148048 
1280.000000	97.144140 
1279.000000	97.139845 
1278.000000	97.139542 
1277.000000	97.144902 
1276.000000	97.153153 
1275.000000	97.159625 
1274.000000	97.161976 
1273.000000	97.161717 
1272.000000	97.161804 
1271.000000	97.163463 
1270.000000	97.165671 
1269.000000	97.166842 
1268.000000	97.166123 
1267.000000	97.163152 
1266.000000	97.157926 
1265.000000	97.151908 
1264.000000	97.148170 
1263.000000	97.148963 
1262.000000	97.153193 
1261.000000	97.157109 
1260.000000	97.158295 
1259.000000	97.158394 
1258.000000	97.160825 
1257.000000	97.166088 
1256.000000	97.170481 
1255.000000	97.170443 
1254.000000	97.167319 
1253.000000	97.165622 
1252.000000	97.166349 
1251.000000	97.164800 
1250.000000	97.156632 
1249.000000	97.143908 
1248.000000	97.132828 
1247.000000	97.126439 
1246.000000	97.122284 
1245.000000	97.117104 
1244.000000	97.110657 
1243.000000	97.104184 
1242.000000	97.098001 
1241.000000	97.092174 
1240.000000	97.087389 
1239.000000	97.083197 
1238.000000	97.076814 
1237.000000	97.065586 
1236.000000	97.049901 
1235.000000	97.032341 
1234.000000	97.014621 
1233.000000	96.996534 
1232.000000	96.977176 
1231.000000	96.955735 
1230.000000	96.931462 
1229.000000	96.903946 
1228.000000	96.873031 
1227.000000	96.837847 
1226.000000	96.796725 
1225.000000	96.748837 
1224.000000	96.695083 
1223.000000	96.636418 
1222.000000	96.572235 
1221.000000	96.501666 
1220.000000	96.425831 
1219.000000	96.347181 
1218.000000	96.266631 
1217.000000	96.182679 
1216.000000	96.093090 
1215.000000	95.996452 
1214.000000	95.893147 
1213.000000	95.786779 
1212.000000	95.683561 
1211.000000	95.587115 
1210.000000	95.493920 
1209.000000	95.396777 
1208.000000	95.292912 
1207.000000	95.185949 
1206.000000	95.080012 
1205.000000	94.975191 
1204.000000	94.869647 
1203.000000	94.762994 
1202.000000	94.656094 
1201.000000	94.549514 
1200.000000	94.443327 
1199.000000	94.337121 
1198.000000	94.230001 
1197.000000	94.122315 
1196.000000	94.016660 
1195.000000	93.914860 
1194.000000	93.814616 
1193.000000	93.711701 
1192.000000	93.604675 
1191.000000	93.494666 
1190.000000	93.381922 
1189.000000	93.266221 
1188.000000	93.149421 
1187.000000	93.033129 
1186.000000	92.914573 
1185.000000	92.789478 
1184.000000	92.658542 
1183.000000	92.526324 
1182.000000	92.394156 
1181.000000	92.259134 
1180.000000	92.119798 
1179.000000	91.977168 
1178.000000	91.829840 
1177.000000	91.674022 
1176.000000	91.509403 
1175.000000	91.339830 
1174.000000	91.167652 
1173.000000	90.992825 
1172.000000	90.817617 
1171.000000	90.645282 
1170.000000	90.473564 
1169.000000	90.297468 
1168.000000	90.120483 
1167.000000	89.955720 
1166.000000	89.814253 
1165.000000	89.700387 
1164.000000	89.620300 
1163.000000	89.585389 
1162.000000	89.601482 
1161.000000	89.659953 
1160.000000	89.741583 
1159.000000	89.823423 
1158.000000	89.881847 
1157.000000	89.898367 
1156.000000	89.867500 
1155.000000	89.795990 
1154.000000	89.693944 
1153.000000	89.570858 
1152.000000	89.438679 
1151.000000	89.309472 
1150.000000	89.186596 
1149.000000	89.064735 
1148.000000	88.940797 
1147.000000	88.817766 
1146.000000	88.696262 
1145.000000	88.571057 
1144.000000	88.439630 
1143.000000	88.306703 
1142.000000	88.176556 
1141.000000	88.047650 
1140.000000	87.918161 
1139.000000	87.789892 
1138.000000	87.663415 
1137.000000	87.535909 
1136.000000	87.406561 
1135.000000	87.277603 
1134.000000	87.148062 
1133.000000	87.013773 
1132.000000	86.875371 
1131.000000	86.738390 
1130.000000	86.603577 
1129.000000	86.465520 
1128.000000	86.322887 
1127.000000	86.180962 
1126.000000	86.041532 
1125.000000	85.899538 
1124.000000	85.752714 
1123.000000	85.605238 
1122.000000	85.458645 
1121.000000	85.308669 
1120.000000	85.154863 
1119.000000	85.003868 
1118.000000	84.859220 
1117.000000	84.717339 
1116.000000	84.576863 
1115.000000	84.441927 
1114.000000	84.312923 
1113.000000	84.184414 
1112.000000	84.055406 
1111.000000	83.930882 
1110.000000	83.810437 
1109.000000	83.687025 
1108.000000	83.558950 
1107.000000	83.430992 
1106.000000	83.302233 
1105.000000	83.165841 
1104.000000	83.023007 
1103.000000	82.883585 
1102.000000	82.749453 
1101.000000	82.611829 
1100.000000	82.467732 
1099.000000	82.325915 
1098.000000	82.193065 
1097.000000	82.066498 
1096.000000	81.944455 
1095.000000	81.829566 
1094.000000	81.718929 
1093.000000	81.604699 
1092.000000	81.488414 
1091.000000	81.381411 
1090.000000	81.288089 
1089.000000	81.201898 
1088.000000	81.119335 
1087.000000	81.043257 
1086.000000	80.971147 
1085.000000	80.896378 
1084.000000	80.823080 
1083.000000	80.762975 
1082.000000	80.714870 
1081.000000	80.664203 
1080.000000	80.605748 
1079.000000	80.549508 
1078.000000	80.500919 
1077.000000	80.452549 
1076.000000	80.398934 
1075.000000	80.341776 
1074.000000	80.276546 
1073.000000	80.191675 
1072.000000	80.084924 
1071.000000	79.963602 
1070.000000	79.825476 
1069.000000	79.657645 
1068.000000	79.458530 
1067.000000	79.243182 
1066.000000	79.022186 
1065.000000	78.793050 
1064.000000	78.557525 
1063.000000	78.327755 
1062.000000	78.108420 
1061.000000	77.891507 
1060.000000	77.675377 
1059.000000	77.470046 
1058.000000	77.277152 
1057.000000	77.084511 
1056.000000	76.887700 
1055.000000	76.697188 
1054.000000	76.515739 
1053.000000	76.328422 
1052.000000	76.125845 
1051.000000	75.919108 
1050.000000	75.720134 
1049.000000	75.525749 
1048.000000	75.331939 
1047.000000	75.143465 
1046.000000	74.959689 
1045.000000	74.770202 
1044.000000	74.571724 
1043.000000	74.372049 
1042.000000	74.172610 
1041.000000	73.965391 
1040.000000	73.752199 
1039.000000	73.548074 
1038.000000	73.359809 
1037.000000	73.179825 
1036.000000	73.006121 
1035.000000	72.848308 
1034.000000	72.708404 
1033.000000	72.576243 
1032.000000	72.449695 
1031.000000	72.339173 
1030.000000	72.246633 
1029.000000	72.161079 
1028.000000	72.080383 
1027.000000	72.015945 
1026.000000	71.969191 
1025.000000	71.924594 
1024.000000	71.872699 
1023.000000	71.820107 
1022.000000	71.770926 
1021.000000	71.719059 
1020.000000	71.664282 
1019.000000	71.615258 
1018.000000	71.571099 
1017.000000	71.520011 
1016.000000	71.460856 
1015.000000	71.405914 
1014.000000	71.358659 
1013.000000	71.309911 
1012.000000	71.259221 
1011.000000	71.217552 
1010.000000	71.184806 
1009.000000	71.147811 
1008.000000	71.105558 
1007.000000	71.073900 
1006.000000	71.060251 
1005.000000	71.056026 
1004.000000	71.058100 
1003.000000	71.074097 
1002.000000	71.101447 
1001.000000	71.125501 
1000.000000	71.144985 
999.000000	 71.176115 
998.000000	 71.224923 
997.000000	 71.278439 
996.000000	 71.329629 
995.000000	 71.388102 
994.000000	 71.458608 
993.000000	 71.531194 
992.000000	 71.600353 
991.000000	 71.673136 
990.000000	 71.751523 
989.000000	 71.827703 
988.000000	 71.903315 
987.000000	 71.992463 
986.000000	 72.099217 
985.000000	 72.212653 
984.000000	 72.329689 
983.000000	 72.461629 
982.000000	 72.611934 
981.000000	 72.768728 
980.000000	 72.925796 
979.000000	 73.090582 
978.000000	 73.265148 
977.000000	 73.440352 
976.000000	 73.615673 
975.000000	 73.804373 
974.000000	 74.011705 
973.000000	 74.227008 
972.000000	 74.443612 
971.000000	 74.667731 
970.000000	 74.901436 
969.000000	 75.135747 
968.000000	 75.366966 
967.000000	 75.602163 
966.000000	 75.843107 
965.000000	 76.082528 
964.000000	 76.320779 
963.000000	 76.567565 
962.000000	 76.822058 
961.000000	 77.069952 
960.000000	 77.305841 
959.000000	 77.540332 
958.000000	 77.779229 
957.000000	 78.013606 
956.000000	 78.237109 
955.000000	 78.456085 
954.000000	 78.675758 
953.000000	 78.891720 
952.000000	 79.101075 
951.000000	 79.307166 
950.000000	 79.508406 
949.000000	 79.697479 
948.000000	 79.876050 
947.000000	 80.055080 
946.000000	 80.236082 
945.000000	 80.407250 
944.000000	 80.562595 
943.000000	 80.709916 
942.000000	 80.855735 
941.000000	 80.997508 
940.000000	 81.135787 
939.000000	 81.278852 
938.000000	 81.429420 
937.000000	 81.580312 
936.000000	 81.728143 
935.000000	 81.877964 
934.000000	 82.030512 
933.000000	 82.179001 
932.000000	 82.322768 
931.000000	 82.470197 
930.000000	 82.623551 
929.000000	 82.774088 
928.000000	 82.916480 
927.000000	 83.055065 
926.000000	 83.192124 
925.000000	 83.323115 
924.000000	 83.447624 
923.000000	 83.572478 
922.000000	 83.699926 
921.000000	 83.824421 
920.000000	 83.943905 
919.000000	 84.061988 
918.000000	 84.176376 
917.000000	 84.278277 
916.000000	 84.367350 
915.000000	 84.456005 
914.000000	 84.555620 
913.000000	 84.668829 
912.000000	 84.796411 
911.000000	 84.939552 
910.000000	 85.093726 
909.000000	 85.252731 
908.000000	 85.420266 
907.000000	 85.605910 
906.000000	 85.810182 
905.000000	 86.025886 
904.000000	 86.251966 
903.000000	 86.491169 
902.000000	 86.735928 
901.000000	 86.973558 
900.000000	 87.205663 
899.000000	 87.445895 
898.000000	 87.697668 
897.000000	 87.949799 
896.000000	 88.194393 
895.000000	 88.432292 
894.000000	 88.659831 
893.000000	 88.868115 
892.000000	 89.058959 
891.000000	 89.245297 
890.000000	 89.430632 
889.000000	 89.601808 
888.000000	 89.746639 
887.000000	 89.866073 
886.000000	 89.966296 
885.000000	 90.052015 
884.000000	 90.130413 
883.000000	 90.207750 
882.000000	 90.278615 
881.000000	 90.333284 
880.000000	 90.379537 
879.000000	 90.441611 
878.000000	 90.532970 
877.000000	 90.646682 
876.000000	 90.777190 
875.000000	 90.932718 
874.000000	 91.118904 
873.000000	 91.328707 
872.000000	 91.557015 
871.000000	 91.807797 
870.000000	 92.077328 
869.000000	 92.346058 
868.000000	 92.597519 
867.000000	 92.833440 
866.000000	 93.062520 
865.000000	 93.286276 
864.000000	 93.503984 
863.000000	 93.720151 
862.000000	 93.936630 
861.000000	 94.144878 
860.000000	 94.335340 
859.000000	 94.509629 
858.000000	 94.676787 
857.000000	 94.841690 
856.000000	 95.002180 
855.000000	 95.153231 
854.000000	 95.289500 
853.000000	 95.407990 
852.000000	 95.512271 
851.000000	 95.611456 
850.000000	 95.713238 
849.000000	 95.820511 
848.000000	 95.933321 
847.000000	 96.048051 
846.000000	 96.155726 
845.000000	 96.248583 
844.000000	 96.328031 
843.000000	 96.399230 
842.000000	 96.459668 
841.000000	 96.502069 
840.000000	 96.527160 
839.000000	 96.542783 
838.000000	 96.550379 
837.000000	 96.544252 
836.000000	 96.526530 
835.000000	 96.511339 
834.000000	 96.509575 
833.000000	 96.518801 
832.000000	 96.531778 
831.000000	 96.544841 
830.000000	 96.554339 
829.000000	 96.556976 
828.000000	 96.560715 
827.000000	 96.584040 
826.000000	 96.634275 
825.000000	 96.694986 
824.000000	 96.743762 
823.000000	 96.773942 
822.000000	 96.791264 
821.000000	 96.799531 
820.000000	 96.798548 
819.000000	 96.786914 
818.000000	 96.757880 
817.000000	 96.698299 
816.000000	 96.598365 
815.000000	 96.458856 
814.000000	 96.284732 
813.000000	 96.075097 
812.000000	 95.821388 
811.000000	 95.508872 
810.000000	 95.116692 
809.000000	 94.625295 
808.000000	 94.032337 
807.000000	 93.358388 
806.000000	 92.632464 
805.000000	 91.877255 
804.000000	 91.113332 
803.000000	 90.368117 
802.000000	 89.670776 
801.000000	 89.045198 
800.000000	 88.515114 
799.000000	 88.105425 
798.000000	 87.828340 
797.000000	 87.675321 
796.000000	 87.627107 
795.000000	 87.661672 
794.000000	 87.751640 
793.000000	 87.869711 
792.000000	 88.001133 
791.000000	 88.138406 
790.000000	 88.262482 
789.000000	 88.343413 
788.000000	 88.361143 
787.000000	 88.312047 
786.000000	 88.195050 
785.000000	 88.007508 
784.000000	 87.757828 
783.000000	 87.467095 
782.000000	 87.154798 
781.000000	 86.838402 
780.000000	 86.549849 
779.000000	 86.333021 
778.000000	 86.216016 
777.000000	 86.199650 
776.000000	 86.276043 
775.000000	 86.439070 
774.000000	 86.671143 
773.000000	 86.940642 
772.000000	 87.222421 
771.000000	 87.506880 
770.000000	 87.784917 
769.000000	 88.041201 
768.000000	 88.267530 
767.000000	 88.466823 
766.000000	 88.639877 
765.000000	 88.785567 
764.000000	 88.918891 
763.000000	 89.068932 
762.000000	 89.248334 
761.000000	 89.439342 
760.000000	 89.618659 
759.000000	 89.782436 
758.000000	 89.939941 
757.000000	 90.098788 
756.000000	 90.266529 
755.000000	 90.452174 
754.000000	 90.652620 
753.000000	 90.846379 
752.000000	 91.011478 
751.000000	 91.144358 
750.000000	 91.256946 
749.000000	 91.364083 
748.000000	 91.478117 
747.000000	 91.604828 
746.000000	 91.737777 
745.000000	 91.864961 
744.000000	 91.986239 
743.000000	 92.116254 
742.000000	 92.266548 
741.000000	 92.434052 
740.000000	 92.610494 
739.000000	 92.791817 
738.000000	 92.972781 
737.000000	 93.142396 
736.000000	 93.291774 
735.000000	 93.421399 
734.000000	 93.537594 
733.000000	 93.647055 
732.000000	 93.754532 
731.000000	 93.857769 
730.000000	 93.944325 
729.000000	 94.002620 
728.000000	 94.041058 
727.000000	 94.085625 
726.000000	 94.153187 
725.000000	 94.239258 
724.000000	 94.333399 
723.000000	 94.431840 
722.000000	 94.531019 
721.000000	 94.623925 
720.000000	 94.711297 
719.000000	 94.803173 
718.000000	 94.901313 
717.000000	 94.992118 
716.000000	 95.061779 
715.000000	 95.110531 
714.000000	 95.150078 
713.000000	 95.194816 
712.000000	 95.258315 
711.000000	 95.345618 
710.000000	 95.443736 
709.000000	 95.531580 
708.000000	 95.600171 
707.000000	 95.654810 
706.000000	 95.691938 
705.000000	 95.691200 
704.000000	 95.638863 
703.000000	 95.539290 
702.000000	 95.395313 
701.000000	 95.190563 
700.000000	 94.902614 
699.000000	 94.531629 
698.000000	 94.108648 
697.000000	 93.689190 
696.000000	 93.344355 
695.000000	 93.136186 
694.000000	 93.090205 
693.000000	 93.189055 
692.000000	 93.390509 
691.000000	 93.649410 
690.000000	 93.924048 
689.000000	 94.184187 
688.000000	 94.422108 
687.000000	 94.642019 
686.000000	 94.839033 
685.000000	 95.000193 
684.000000	 95.126897 
683.000000	 95.241419 
682.000000	 95.361982 
681.000000	 95.485713 
680.000000	 95.600815 
679.000000	 95.706672 
678.000000	 95.807739 
677.000000	 95.900796 
676.000000	 95.989990 
675.000000	 96.084809 
674.000000	 96.180767 
673.000000	 96.267930 
672.000000	 96.359352 
671.000000	 96.504808 
670.000000	 96.753770 
669.000000	 97.095614 
668.000000	 97.332109 
667.000000	 97.288752 
666.000000	 97.127353 
665.000000	 97.018749 
664.000000	 96.970077 
663.000000	 96.968892 
662.000000	 97.008458 
661.000000	 97.065825 
660.000000	 97.118862 
659.000000	 97.167915 
658.000000	 97.216048 
657.000000	 97.243732 
656.000000	 97.240102 
655.000000	 97.219588 
654.000000	 97.193356 
653.000000	 97.155351 
652.000000	 97.112501 
651.000000	 97.094380 
650.000000	 97.111497 

