4000.000000	97.215124 
3999.000000	97.213645 
3998.000000	97.211162 
3997.000000	97.208688 
3996.000000	97.206780 
3995.000000	97.205368 
3994.000000	97.204202 
3993.000000	97.203272 
3992.000000	97.202801 
3991.000000	97.202932 
3990.000000	97.203495 
3989.000000	97.204060 
3988.000000	97.204207 
3987.000000	97.203853 
3986.000000	97.203363 
3985.000000	97.203177 
3984.000000	97.203330 
3983.000000	97.203539 
3982.000000	97.203745 
3981.000000	97.204190 
3980.000000	97.204797 
3979.000000	97.204925 
3978.000000	97.204078 
3977.000000	97.202624 
3976.000000	97.201500 
3975.000000	97.201187 
3974.000000	97.201272 
3973.000000	97.201016 
3972.000000	97.200061 
3971.000000	97.198586 
3970.000000	97.197044 
3969.000000	97.195914 
3968.000000	97.195552 
3967.000000	97.195965 
3966.000000	97.196711 
3965.000000	97.197060 
3964.000000	97.196373 
3963.000000	97.194513 
3962.000000	97.192002 
3961.000000	97.189710 
3960.000000	97.188214 
3959.000000	97.187558 
3958.000000	97.187511 
3957.000000	97.187910 
3956.000000	97.188608 
3955.000000	97.189240 
3954.000000	97.189354 
3953.000000	97.188692 
3952.000000	97.187281 
3951.000000	97.185318 
3950.000000	97.183098 
3949.000000	97.181059 
3948.000000	97.179586 
3947.000000	97.178779 
3946.000000	97.178471 
3945.000000	97.178393 
3944.000000	97.178258 
3943.000000	97.177796 
3942.000000	97.177048 
3941.000000	97.176394 
3940.000000	97.176143 
3939.000000	97.176214 
3938.000000	97.176217 
3937.000000	97.175901 
3936.000000	97.175290 
3935.000000	97.174320 
3934.000000	97.172756 
3933.000000	97.170438 
3932.000000	97.167643 
3931.000000	97.164936 
3930.000000	97.162958 
3929.000000	97.162400 
3928.000000	97.163511 
3927.000000	97.165609 
3926.000000	97.167198 
3925.000000	97.167124 
3924.000000	97.165662 
3923.000000	97.163996 
3922.000000	97.162914 
3921.000000	97.162531 
3920.000000	97.162773 
3919.000000	97.163582 
3918.000000	97.164570 
3917.000000	97.165104 
3916.000000	97.164963 
3915.000000	97.164522 
3914.000000	97.164252 
3913.000000	97.164270 
3912.000000	97.164412 
3911.000000	97.164578 
3910.000000	97.164550 
3909.000000	97.164170 
3908.000000	97.163602 
3907.000000	97.163054 
3906.000000	97.162430 
3905.000000	97.161015 
3904.000000	97.158192 
3903.000000	97.154359 
3902.000000	97.150840 
3901.000000	97.148977 
3900.000000	97.149219 
3899.000000	97.150984 
3898.000000	97.153288 
3897.000000	97.155239 
3896.000000	97.156307 
3895.000000	97.156558 
3894.000000	97.156420 
3893.000000	97.156337 
3892.000000	97.156275 
3891.000000	97.155817 
3890.000000	97.154842 
3889.000000	97.153732 
3888.000000	97.153022 
3887.000000	97.152908 
3886.000000	97.153248 
3885.000000	97.153482 
3884.000000	97.152667 
3883.000000	97.150154 
3882.000000	97.146491 
3881.000000	97.143531 
3880.000000	97.142771 
3879.000000	97.143674 
3878.000000	97.144528 
3877.000000	97.144680 
3876.000000	97.144891 
3875.000000	97.145724 
3874.000000	97.146506 
3873.000000	97.146138 
3872.000000	97.144406 
3871.000000	97.142165 
3870.000000	97.140829 
3869.000000	97.141414 
3868.000000	97.143326 
3867.000000	97.144899 
3866.000000	97.145208 
3865.000000	97.144980 
3864.000000	97.145660 
3863.000000	97.147157 
3862.000000	97.147932 
3861.000000	97.147939 
3860.000000	97.148598 
3859.000000	97.150464 
3858.000000	97.152396 
3857.000000	97.153077 
3856.000000	97.152413 
3855.000000	97.151175 
3854.000000	97.150012 
3853.000000	97.149135 
3852.000000	97.148044 
3851.000000	97.146429 
3850.000000	97.144524 
3849.000000	97.142921 
3848.000000	97.142134 
3847.000000	97.142197 
3846.000000	97.142376 
3845.000000	97.142146 
3844.000000	97.141910 
3843.000000	97.142054 
3842.000000	97.142347 
3841.000000	97.142569 
3840.000000	97.142708 
3839.000000	97.143017 
3838.000000	97.143588 
3837.000000	97.144065 
3836.000000	97.144193 
3835.000000	97.144092 
3834.000000	97.144013 
3833.000000	97.144073 
3832.000000	97.144208 
3831.000000	97.144314 
3830.000000	97.144348 
3829.000000	97.144341 
3828.000000	97.144361 
3827.000000	97.144416 
3826.000000	97.144437 
3825.000000	97.144376 
3824.000000	97.144253 
3823.000000	97.144119 
3822.000000	97.144009 
3821.000000	97.143919 
3820.000000	97.143847 
3819.000000	97.143798 
3818.000000	97.143778 
3817.000000	97.143793 
3816.000000	97.143848 
3815.000000	97.143940 
3814.000000	97.144054 
3813.000000	97.144177 
3812.000000	97.144304 
3811.000000	97.144441 
3810.000000	97.144590 
3809.000000	97.144746 
3808.000000	97.144897 
3807.000000	97.145033 
3806.000000	97.145144 
3805.000000	97.145222 
3804.000000	97.145258 
3803.000000	97.145262 
3802.000000	97.145288 
3801.000000	97.145400 
3800.000000	97.145580 
3799.000000	97.145702 
3798.000000	97.145700 
3797.000000	97.145673 
3796.000000	97.145797 
3795.000000	97.146106 
3794.000000	97.146406 
3793.000000	97.146507 
3792.000000	97.146486 
3791.000000	97.146632 
3790.000000	97.147041 
3789.000000	97.147363 
3788.000000	97.147150 
3787.000000	97.146311 
3786.000000	97.145215 
3785.000000	97.144342 
3784.000000	97.143892 
3783.000000	97.143687 
3782.000000	97.143349 
3781.000000	97.142783 
3780.000000	97.142548 
3779.000000	97.143406 
3778.000000	97.145126 
3777.000000	97.146433 
3776.000000	97.146348 
3775.000000	97.145132 
3774.000000	97.143762 
3773.000000	97.142720 
3772.000000	97.141602 
3771.000000	97.139804 
3770.000000	97.137587 
3769.000000	97.136046 
3768.000000	97.135513 
3767.000000	97.135172 
3766.000000	97.134423 
3765.000000	97.133575 
3764.000000	97.133359 
3763.000000	97.133659 
3762.000000	97.133444 
3761.000000	97.132115 
3760.000000	97.130203 
3759.000000	97.128800 
3758.000000	97.126829 
3757.000000	97.122412 
3756.000000	97.116221 
3755.000000	97.110277 
3754.000000	97.105481 
3753.000000	97.101187 
3752.000000	97.097360 
3751.000000	97.094694 
3750.000000	97.091945 
3749.000000	97.088212 
3748.000000	97.085658 
3747.000000	97.086214 
3746.000000	97.088428 
3745.000000	97.089705 
3744.000000	97.091896 
3743.000000	97.094167 
3742.000000	97.090801 
3741.000000	97.081108 
3740.000000	97.071519 
3739.000000	97.070067 
3738.000000	97.076725 
3737.000000	97.082387 
3736.000000	97.082198 
3735.000000	97.082383 
3734.000000	97.089785 
3733.000000	97.101691 
3732.000000	97.111992 
3731.000000	97.118210 
3730.000000	97.119230 
3729.000000	97.114239 
3728.000000	97.105480 
3727.000000	97.098181 
3726.000000	97.095802 
3725.000000	97.095701 
3724.000000	97.093281 
3723.000000	97.088264 
3722.000000	97.084309 
3721.000000	97.083123 
3720.000000	97.081513 
3719.000000	97.077342 
3718.000000	97.072021 
3717.000000	97.067255 
3716.000000	97.062771 
3715.000000	97.055322 
3714.000000	97.041721 
3713.000000	97.022792 
3712.000000	97.003310 
3711.000000	96.987546 
3710.000000	96.975241 
3709.000000	96.964592 
3708.000000	96.954583 
3707.000000	96.943670 
3706.000000	96.930496 
3705.000000	96.915328 
3704.000000	96.900001 
3703.000000	96.885442 
3702.000000	96.868979 
3701.000000	96.846279 
3700.000000	96.816525 
3699.000000	96.785234 
3698.000000	96.760817 
3697.000000	96.747663 
3696.000000	96.743629 
3695.000000	96.742241 
3694.000000	96.737924 
3693.000000	96.730510 
3692.000000	96.724352 
3691.000000	96.722975 
3690.000000	96.724133 
3689.000000	96.723401 
3688.000000	96.719633 
3687.000000	96.713648 
3686.000000	96.705692 
3685.000000	96.695500 
3684.000000	96.683681 
3683.000000	96.672673 
3682.000000	96.664326 
3681.000000	96.656731 
3680.000000	96.645469 
3679.000000	96.626627 
3678.000000	96.599748 
3677.000000	96.567473 
3676.000000	96.535300 
3675.000000	96.509163 
3674.000000	96.486820 
3673.000000	96.461177 
3672.000000	96.430326 
3671.000000	96.400449 
3670.000000	96.378493 
3669.000000	96.362166 
3668.000000	96.342831 
3667.000000	96.317350 
3666.000000	96.290699 
3665.000000	96.267607 
3664.000000	96.246486 
3663.000000	96.222756 
3662.000000	96.193607 
3661.000000	96.159283 
3660.000000	96.121918 
3659.000000	96.083183 
3658.000000	96.044699 
3657.000000	96.007498 
3656.000000	95.971407 
3655.000000	95.935114 
3654.000000	95.897184 
3653.000000	95.858282 
3652.000000	95.820428 
3651.000000	95.784456 
3650.000000	95.748438 
3649.000000	95.710503 
3648.000000	95.674109 
3647.000000	95.645495 
3646.000000	95.626464 
3645.000000	95.613023 
3644.000000	95.599628 
3643.000000	95.583447 
3642.000000	95.564074 
3641.000000	95.541746 
3640.000000	95.516674 
3639.000000	95.489033 
3638.000000	95.459266 
3637.000000	95.427494 
3636.000000	95.393803 
3635.000000	95.358707 
3634.000000	95.323151 
3633.000000	95.287368 
3632.000000	95.250176 
3631.000000	95.210481 
3630.000000	95.171334 
3629.000000	95.139744 
3628.000000	95.117186 
3627.000000	95.097318 
3626.000000	95.076883 
3625.000000	95.060443 
3624.000000	95.053494 
3623.000000	95.055925 
3622.000000	95.062297 
3621.000000	95.066405 
3620.000000	95.064833 
3619.000000	95.057848 
3618.000000	95.048105 
3617.000000	95.040106 
3616.000000	95.040367 
3615.000000	95.053498 
3614.000000	95.077967 
3613.000000	95.106892 
3612.000000	95.133071 
3611.000000	95.152971 
3610.000000	95.167702 
3609.000000	95.181114 
3608.000000	95.195933 
3607.000000	95.212336 
3606.000000	95.229588 
3605.000000	95.248623 
3604.000000	95.271330 
3603.000000	95.297148 
3602.000000	95.322274 
3601.000000	95.341613 
3600.000000	95.351938 
3599.000000	95.354003 
3598.000000	95.352564 
3597.000000	95.353788 
3596.000000	95.362270 
3595.000000	95.376803 
3594.000000	95.391150 
3593.000000	95.399927 
3592.000000	95.402157 
3591.000000	95.400229 
3590.000000	95.397517 
3589.000000	95.397125 
3588.000000	95.400771 
3587.000000	95.407428 
3586.000000	95.413821 
3585.000000	95.418336 
3584.000000	95.423454 
3583.000000	95.432396 
3582.000000	95.445064 
3581.000000	95.456817 
3580.000000	95.462205 
3579.000000	95.459587 
3578.000000	95.452236 
3577.000000	95.445200 
3576.000000	95.441197 
3575.000000	95.439789 
3574.000000	95.438957 
3573.000000	95.437239 
3572.000000	95.433802 
3571.000000	95.427723 
3570.000000	95.418303 
3569.000000	95.406551 
3568.000000	95.396180 
3567.000000	95.391666 
3566.000000	95.393941 
3565.000000	95.399435 
3564.000000	95.403917 
3563.000000	95.405638 
3562.000000	95.405230 
3561.000000	95.404292 
3560.000000	95.403805 
3559.000000	95.403427 
3558.000000	95.402308 
3557.000000	95.400440 
3556.000000	95.398583 
3555.000000	95.397249 
3554.000000	95.396147 
3553.000000	95.394458 
3552.000000	95.391475 
3551.000000	95.387076 
3550.000000	95.382301 
3549.000000	95.379416 
3548.000000	95.380155 
3547.000000	95.383362 
3546.000000	95.385288 
3545.000000	95.383421 
3544.000000	95.379369 
3543.000000	95.376898 
3542.000000	95.377879 
3541.000000	95.381325 
3540.000000	95.385220 
3539.000000	95.388196 
3538.000000	95.389788 
3537.000000	95.389948 
3536.000000	95.388901 
3535.000000	95.386991 
3534.000000	95.384640 
3533.000000	95.382452 
3532.000000	95.381194 
3531.000000	95.381368 
3530.000000	95.382678 
3529.000000	95.384039 
3528.000000	95.384398 
3527.000000	95.383620 
3526.000000	95.382458 
3525.000000	95.381807 
3524.000000	95.382066 
3523.000000	95.383099 
3522.000000	95.384568 
3521.000000	95.386251 
3520.000000	95.388094 
3519.000000	95.389948 
3518.000000	95.391372 
3517.000000	95.391798 
3516.000000	95.391075 
3515.000000	95.389818 
3514.000000	95.389065 
3513.000000	95.389417 
3512.000000	95.390461 
3511.000000	95.391082 
3510.000000	95.390500 
3509.000000	95.389024 
3508.000000	95.387687 
3507.000000	95.387158 
3506.000000	95.387155 
3505.000000	95.386864 
3504.000000	95.385869 
3503.000000	95.384657 
3502.000000	95.384276 
3501.000000	95.385494 
3500.000000	95.388274 
3499.000000	95.391709 
3498.000000	95.394407 
3497.000000	95.395288 
3496.000000	95.394181 
3495.000000	95.391919 
3494.000000	95.389849 
3493.000000	95.388965 
3492.000000	95.389185 
3491.000000	95.389427 
3490.000000	95.388662 
3489.000000	95.386840 
3488.000000	95.384517 
3487.000000	95.381881 
3486.000000	95.378918 
3485.000000	95.376385 
3484.000000	95.375547 
3483.000000	95.376510 
3482.000000	95.377698 
3481.000000	95.377705 
3480.000000	95.376979 
3479.000000	95.376736 
3478.000000	95.376717 
3477.000000	95.375195 
3476.000000	95.371104 
3475.000000	95.365387 
3474.000000	95.360084 
3473.000000	95.356506 
3472.000000	95.354569 
3471.000000	95.353373 
3470.000000	95.351981 
3469.000000	95.349934 
3468.000000	95.347339 
3467.000000	95.344619 
3466.000000	95.342067 
3465.000000	95.339527 
3464.000000	95.336481 
3463.000000	95.332433 
3462.000000	95.327316 
3461.000000	95.321648 
3460.000000	95.316267 
3459.000000	95.311774 
3458.000000	95.308147 
3457.000000	95.304814 
3456.000000	95.301210 
3455.000000	95.297217 
3454.000000	95.293259 
3453.000000	95.289927 
3452.000000	95.287590 
3451.000000	95.286285 
3450.000000	95.285617 
3449.000000	95.284631 
3448.000000	95.281960 
3447.000000	95.276612 
3446.000000	95.268874 
3445.000000	95.260463 
3444.000000	95.253435 
3443.000000	95.248728 
3442.000000	95.245756 
3441.000000	95.243173 
3440.000000	95.240093 
3439.000000	95.236567 
3438.000000	95.233117 
3437.000000	95.230083 
3436.000000	95.227505 
3435.000000	95.225294 
3434.000000	95.223308 
3433.000000	95.221235 
3432.000000	95.218738 
3431.000000	95.215857 
3430.000000	95.213002 
3429.000000	95.210362 
3428.000000	95.207335 
3427.000000	95.202980 
3426.000000	95.197291 
3425.000000	95.191738 
3424.000000	95.188029 
3423.000000	95.186235 
3422.000000	95.184568 
3421.000000	95.181318 
3420.000000	95.176684 
3419.000000	95.172302 
3418.000000	95.169505 
3417.000000	95.168607 
3416.000000	95.169332 
3415.000000	95.170926 
3414.000000	95.171919 
3413.000000	95.170746 
3412.000000	95.167114 
3411.000000	95.162506 
3410.000000	95.159016 
3409.000000	95.157727 
3408.000000	95.158153 
3407.000000	95.158858 
3406.000000	95.158665 
3405.000000	95.157593 
3404.000000	95.156728 
3403.000000	95.156921 
3402.000000	95.157764 
3401.000000	95.158125 
3400.000000	95.157529 
3399.000000	95.156436 
3398.000000	95.155262 
3397.000000	95.153918 
3396.000000	95.152581 
3395.000000	95.152174 
3394.000000	95.153390 
3393.000000	95.155515 
3392.000000	95.156816 
3391.000000	95.156199 
3390.000000	95.154174 
3389.000000	95.152228 
3388.000000	95.151627 
3387.000000	95.152778 
3386.000000	95.155195 
3385.000000	95.157648 
3384.000000	95.158758 
3383.000000	95.158165 
3382.000000	95.157238 
3381.000000	95.158071 
3380.000000	95.161399 
3379.000000	95.165740 
3378.000000	95.168966 
3377.000000	95.170659 
3376.000000	95.172176 
3375.000000	95.174497 
3374.000000	95.176843 
3373.000000	95.177867 
3372.000000	95.177645 
3371.000000	95.177815 
3370.000000	95.179794 
3369.000000	95.183386 
3368.000000	95.187139 
3367.000000	95.189603 
3366.000000	95.190147 
3365.000000	95.189096 
3364.000000	95.187556 
3363.000000	95.186893 
3362.000000	95.187923 
3361.000000	95.190451 
3360.000000	95.193611 
3359.000000	95.196724 
3358.000000	95.199817 
3357.000000	95.203319 
3356.000000	95.207386 
3355.000000	95.211679 
3354.000000	95.215820 
3353.000000	95.219960 
3352.000000	95.224618 
3351.000000	95.229861 
3350.000000	95.234798 
3349.000000	95.238256 
3348.000000	95.240072 
3347.000000	95.241542 
3346.000000	95.244365 
3345.000000	95.249059 
3344.000000	95.254448 
3343.000000	95.258807 
3342.000000	95.261551 
3341.000000	95.263709 
3340.000000	95.266624 
3339.000000	95.270225 
3338.000000	95.273030 
3337.000000	95.273893 
3336.000000	95.273324 
3335.000000	95.272928 
3334.000000	95.273820 
3333.000000	95.275943 
3332.000000	95.278783 
3331.000000	95.282105 
3330.000000	95.285840 
3329.000000	95.289712 
3328.000000	95.293461 
3327.000000	95.297292 
3326.000000	95.301701 
3325.000000	95.306772 
3324.000000	95.311837 
3323.000000	95.315969 
3322.000000	95.318778 
3321.000000	95.320684 
3320.000000	95.322585 
3319.000000	95.325284 
3318.000000	95.329068 
3317.000000	95.333633 
3316.000000	95.338308 
3315.000000	95.342491 
3314.000000	95.346013 
3313.000000	95.349163 
3312.000000	95.352440 
3311.000000	95.356295 
3310.000000	95.360938 
3309.000000	95.366180 
3308.000000	95.371326 
3307.000000	95.375455 
3306.000000	95.378069 
3305.000000	95.379516 
3304.000000	95.380851 
3303.000000	95.383076 
3302.000000	95.386451 
3301.000000	95.390456 
3300.000000	95.394245 
3299.000000	95.397195 
3298.000000	95.399239 
3297.000000	95.400870 
3296.000000	95.402867 
3295.000000	95.405881 
3294.000000	95.410123 
3293.000000	95.415315 
3292.000000	95.420900 
3291.000000	95.426364 
3290.000000	95.431463 
3289.000000	95.436225 
3288.000000	95.440761 
3287.000000	95.445040 
3286.000000	95.448812 
3285.000000	95.451752 
3284.000000	95.453794 
3283.000000	95.455488 
3282.000000	95.457914 
3281.000000	95.461884 
3280.000000	95.467121 
3279.000000	95.472354 
3278.000000	95.476537 
3277.000000	95.479766 
3276.000000	95.482728 
3275.000000	95.485518 
3274.000000	95.487579 
3273.000000	95.488898 
3272.000000	95.490564 
3271.000000	95.493614 
3270.000000	95.497681 
3269.000000	95.501208 
3268.000000	95.503011 
3267.000000	95.503422 
3266.000000	95.504017 
3265.000000	95.506395 
3264.000000	95.511093 
3263.000000	95.517299 
3262.000000	95.523593 
3261.000000	95.529257 
3260.000000	95.534653 
3259.000000	95.540272 
3258.000000	95.545859 
3257.000000	95.550889 
3256.000000	95.555624 
3255.000000	95.560938 
3254.000000	95.567004 
3253.000000	95.572837 
3252.000000	95.577583 
3251.000000	95.581706 
3250.000000	95.586222 
3249.000000	95.590940 
3248.000000	95.594211 
3247.000000	95.594771 
3246.000000	95.593445 
3245.000000	95.592695 
3244.000000	95.594485 
3243.000000	95.598826 
3242.000000	95.604168 
3241.000000	95.608737 
3240.000000	95.611677 
3239.000000	95.613537 
3238.000000	95.616016 
3237.000000	95.620769 
3236.000000	95.627866 
3235.000000	95.635364 
3234.000000	95.640885 
3233.000000	95.643993 
3232.000000	95.646858 
3231.000000	95.652268 
3230.000000	95.660960 
3229.000000	95.671045 
3228.000000	95.679982 
3227.000000	95.687079 
3226.000000	95.693777 
3225.000000	95.701624 
3224.000000	95.710530 
3223.000000	95.719144 
3222.000000	95.726402 
3221.000000	95.732104 
3220.000000	95.736210 
3219.000000	95.738454 
3218.000000	95.738942 
3217.000000	95.738634 
3216.000000	95.738925 
3215.000000	95.740891 
3214.000000	95.744864 
3213.000000	95.750143 
3212.000000	95.755034 
3211.000000	95.757889 
3210.000000	95.758720 
3209.000000	95.759559 
3208.000000	95.762669 
3207.000000	95.768383 
3206.000000	95.775000 
3205.000000	95.780719 
3204.000000	95.785498 
3203.000000	95.790750 
3202.000000	95.797360 
3201.000000	95.804436 
3200.000000	95.810317 
3199.000000	95.814702 
3198.000000	95.819111 
3197.000000	95.824935 
3196.000000	95.831656 
3195.000000	95.837617 
3194.000000	95.842201 
3193.000000	95.846435 
3192.000000	95.851535 
3191.000000	95.857480 
3190.000000	95.863210 
3189.000000	95.867791 
3188.000000	95.871156 
3187.000000	95.874137 
3186.000000	95.877876 
3185.000000	95.882851 
3184.000000	95.888402 
3183.000000	95.893455 
3182.000000	95.897761 
3181.000000	95.901985 
3180.000000	95.906673 
3179.000000	95.911696 
3178.000000	95.916716 
3177.000000	95.921702 
3176.000000	95.926800 
3175.000000	95.931979 
3174.000000	95.937074 
3173.000000	95.942052 
3172.000000	95.946984 
3171.000000	95.951794 
3170.000000	95.956387 
3169.000000	95.961006 
3168.000000	95.966047 
3167.000000	95.971483 
3166.000000	95.976827 
3165.000000	95.981769 
3164.000000	95.986536 
3163.000000	95.991501 
3162.000000	95.996659 
3161.000000	96.001678 
3160.000000	96.006306 
3159.000000	96.010582 
3158.000000	96.014837 
3157.000000	96.019558 
3156.000000	96.025010 
3155.000000	96.030872 
3154.000000	96.036452 
3153.000000	96.041493 
3152.000000	96.046364 
3151.000000	96.051228 
3150.000000	96.055551 
3149.000000	96.058821 
3148.000000	96.061332 
3147.000000	96.064066 
3146.000000	96.067813 
3145.000000	96.072627 
3144.000000	96.077963 
3143.000000	96.083059 
3142.000000	96.087379 
3141.000000	96.090938 
3140.000000	96.094322 
3139.000000	96.098261 
3138.000000	96.103026 
3137.000000	96.108293 
3136.000000	96.113472 
3135.000000	96.118203 
3134.000000	96.122626 
3133.000000	96.127211 
3132.000000	96.132277 
3131.000000	96.137632 
3130.000000	96.142755 
3129.000000	96.147322 
3128.000000	96.151474 
3127.000000	96.155608 
3126.000000	96.160049 
3125.000000	96.164888 
3124.000000	96.169914 
3123.000000	96.174643 
3122.000000	96.178661 
3121.000000	96.182093 
3120.000000	96.185555 
3119.000000	96.189496 
3118.000000	96.193747 
3117.000000	96.197818 
3116.000000	96.201390 
3115.000000	96.204391 
3114.000000	96.206929 
3113.000000	96.209530 
3112.000000	96.213264 
3111.000000	96.219085 
3110.000000	96.226806 
3109.000000	96.234730 
3108.000000	96.240896 
3107.000000	96.244745 
3106.000000	96.247393 
3105.000000	96.250408 
3104.000000	96.254291 
3103.000000	96.258527 
3102.000000	96.262649 
3101.000000	96.266571 
3100.000000	96.270029 
3099.000000	96.272574 
3098.000000	96.274468 
3097.000000	96.276883 
3096.000000	96.280542 
3095.000000	96.284562 
3094.000000	96.287399 
3093.000000	96.288703 
3092.000000	96.289501 
3091.000000	96.290647 
3090.000000	96.291949 
3089.000000	96.293002 
3088.000000	96.294171 
3087.000000	96.296432 
3086.000000	96.300569 
3085.000000	96.306558 
3084.000000	96.313280 
3083.000000	96.318948 
3082.000000	96.322541 
3081.000000	96.324907 
3080.000000	96.327892 
3079.000000	96.332173 
3078.000000	96.336677 
3077.000000	96.340316 
3076.000000	96.343362 
3075.000000	96.346590 
3074.000000	96.350014 
3073.000000	96.353258 
3072.000000	96.356441 
3071.000000	96.359715 
3070.000000	96.362447 
3069.000000	96.363959 
3068.000000	96.364861 
3067.000000	96.366584 
3066.000000	96.369474 
3065.000000	96.372243 
3064.000000	96.373439 
3063.000000	96.372791 
3062.000000	96.371132 
3061.000000	96.369756 
3060.000000	96.369824 
3059.000000	96.371847 
3058.000000	96.375479 
3057.000000	96.379927 
3056.000000	96.384534 
3055.000000	96.388713 
3054.000000	96.391656 
3053.000000	96.392943 
3052.000000	96.393536 
3051.000000	96.395374 
3050.000000	96.399451 
3049.000000	96.404631 
3048.000000	96.408660 
3047.000000	96.410146 
3046.000000	96.409266 
3045.000000	96.407252 
3044.000000	96.405709 
3043.000000	96.406064 
3042.000000	96.408883 
3041.000000	96.413269 
3040.000000	96.417159 
3039.000000	96.418795 
3038.000000	96.418088 
3037.000000	96.416490 
3036.000000	96.415484 
3035.000000	96.415150 
3034.000000	96.414459 
3033.000000	96.412833 
3032.000000	96.410935 
3031.000000	96.409855 
3030.000000	96.409976 
3029.000000	96.410929 
3028.000000	96.412083 
3027.000000	96.412606 
3026.000000	96.411596 
3025.000000	96.409090 
3024.000000	96.406849 
3023.000000	96.407161 
3022.000000	96.410559 
3021.000000	96.415375 
3020.000000	96.419585 
3019.000000	96.422299 
3018.000000	96.423170 
3017.000000	96.421483 
3016.000000	96.416795 
3015.000000	96.410028 
3014.000000	96.403299 
3013.000000	96.398600 
3012.000000	96.396558 
3011.000000	96.395956 
3010.000000	96.394372 
3009.000000	96.390101 
3008.000000	96.383820 
3007.000000	96.377988 
3006.000000	96.374303 
3005.000000	96.372363 
3004.000000	96.370966 
3003.000000	96.369942 
3002.000000	96.370152 
3001.000000	96.372177 
3000.000000	96.375483 
2999.000000	96.378508 
2998.000000	96.379305 
2997.000000	96.376807 
2996.000000	96.372029 
2995.000000	96.367447 
2994.000000	96.364454 
2993.000000	96.361860 
2992.000000	96.357583 
2991.000000	96.351448 
2990.000000	96.345456 
2989.000000	96.341481 
2988.000000	96.339729 
2987.000000	96.339600 
2986.000000	96.341211 
2985.000000	96.345396 
2984.000000	96.352294 
2983.000000	96.360395 
2982.000000	96.367283 
2981.000000	96.371365 
2980.000000	96.372790 
2979.000000	96.372801 
2978.000000	96.372595 
2977.000000	96.372990 
2976.000000	96.374646 
2975.000000	96.377886 
2974.000000	96.382247 
2973.000000	96.386800 
2972.000000	96.391069 
2971.000000	96.395148 
2970.000000	96.398873 
2969.000000	96.401621 
2968.000000	96.403263 
2967.000000	96.404680 
2966.000000	96.406839 
2965.000000	96.409748 
2964.000000	96.412806 
2963.000000	96.415870 
2962.000000	96.419509 
2961.000000	96.424279 
2960.000000	96.430060 
2959.000000	96.436124 
2958.000000	96.441796 
2957.000000	96.447064 
2956.000000	96.452354 
2955.000000	96.457568 
2954.000000	96.461845 
2953.000000	96.464957 
2952.000000	96.468496 
2951.000000	96.474435 
2950.000000	96.482264 
2949.000000	96.488769 
2948.000000	96.491416 
2947.000000	96.491016 
2946.000000	96.490574 
2945.000000	96.492173 
2944.000000	96.495804 
2943.000000	96.500418 
2942.000000	96.504705 
2941.000000	96.507188 
2940.000000	96.507141 
2939.000000	96.505811 
2938.000000	96.505696 
2937.000000	96.507899 
2936.000000	96.510746 
2935.000000	96.511436 
2934.000000	96.508628 
2933.000000	96.503299 
2932.000000	96.497818 
2931.000000	96.494382 
2930.000000	96.493889 
2929.000000	96.495901 
2928.000000	96.499536 
2927.000000	96.504258 
2926.000000	96.509638 
2925.000000	96.514815 
2924.000000	96.519016 
2923.000000	96.522485 
2922.000000	96.525975 
2921.000000	96.529306 
2920.000000	96.531404 
2919.000000	96.532001 
2918.000000	96.532313 
2917.000000	96.533457 
2916.000000	96.534981 
2915.000000	96.535773 
2914.000000	96.535862 
2913.000000	96.536380 
2912.000000	96.537948 
2911.000000	96.539938 
2910.000000	96.541516 
2909.000000	96.542806 
2908.000000	96.544656 
2907.000000	96.547526 
2906.000000	96.550771 
2905.000000	96.553064 
2904.000000	96.553403 
2903.000000	96.552216 
2902.000000	96.551313 
2901.000000	96.552390 
2900.000000	96.555815 
2899.000000	96.560659 
2898.000000	96.565818 
2897.000000	96.570701 
2896.000000	96.574895 
2895.000000	96.577864 
2894.000000	96.579539 
2893.000000	96.580911 
2892.000000	96.583376 
2891.000000	96.587335 
2890.000000	96.591846 
2889.000000	96.595817 
2888.000000	96.599125 
2887.000000	96.602196 
2886.000000	96.604937 
2885.000000	96.606834 
2884.000000	96.608115 
2883.000000	96.610079 
2882.000000	96.613681 
2881.000000	96.618318 
2880.000000	96.622576 
2879.000000	96.626141 
2878.000000	96.630090 
2877.000000	96.635191 
2876.000000	96.640782 
2875.000000	96.645636 
2874.000000	96.649385 
2873.000000	96.652471 
2872.000000	96.655203 
2871.000000	96.657562 
2870.000000	96.659811 
2869.000000	96.662553 
2868.000000	96.666015 
2867.000000	96.669766 
2866.000000	96.673311 
2865.000000	96.676593 
2864.000000	96.679815 
2863.000000	96.683176 
2862.000000	96.686934 
2861.000000	96.691283 
2860.000000	96.695878 
2859.000000	96.699952 
2858.000000	96.703221 
2857.000000	96.706372 
2856.000000	96.710351 
2855.000000	96.715328 
2854.000000	96.720614 
2853.000000	96.725360 
2852.000000	96.729062 
2851.000000	96.731660 
2850.000000	96.733640 
2849.000000	96.735910 
2848.000000	96.739091 
2847.000000	96.742830 
2846.000000	96.746231 
2845.000000	96.748916 
2844.000000	96.751320 
2843.000000	96.753950 
2842.000000	96.756794 
2841.000000	96.759549 
2840.000000	96.762102 
2839.000000	96.764623 
2838.000000	96.767396 
2837.000000	96.770607 
2836.000000	96.774122 
2835.000000	96.777502 
2834.000000	96.780503 
2833.000000	96.783556 
2832.000000	96.787376 
2831.000000	96.791943 
2830.000000	96.796198 
2829.000000	96.799031 
2828.000000	96.800524 
2827.000000	96.802028 
2826.000000	96.804904 
2825.000000	96.809183 
2824.000000	96.813449 
2823.000000	96.816088 
2822.000000	96.816600 
2821.000000	96.815765 
2820.000000	96.814771 
2819.000000	96.814382 
2818.000000	96.814940 
2817.000000	96.816675 
2816.000000	96.819515 
2815.000000	96.822740 
2814.000000	96.825289 
2813.000000	96.826533 
2812.000000	96.826689 
2811.000000	96.826604 
2810.000000	96.827254 
2809.000000	96.829223 
2808.000000	96.832291 
2807.000000	96.835525 
2806.000000	96.838126 
2805.000000	96.840202 
2804.000000	96.842481 
2803.000000	96.845340 
2802.000000	96.848471 
2801.000000	96.851550 
2800.000000	96.854742 
2799.000000	96.858212 
2798.000000	96.861404 
2797.000000	96.863399 
2796.000000	96.864000 
2795.000000	96.864113 
2794.000000	96.864897 
2793.000000	96.866627 
2792.000000	96.868661 
2791.000000	96.870244 
2790.000000	96.871111 
2789.000000	96.871456 
2788.000000	96.871718 
2787.000000	96.872416 
2786.000000	96.873934 
2785.000000	96.876216 
2784.000000	96.878702 
2783.000000	96.880728 
2782.000000	96.882058 
2781.000000	96.882946 
2780.000000	96.883808 
2779.000000	96.884918 
2778.000000	96.886359 
2777.000000	96.888083 
2776.000000	96.889909 
2775.000000	96.891568 
2774.000000	96.892878 
2773.000000	96.893890 
2772.000000	96.894859 
2771.000000	96.896060 
2770.000000	96.897631 
2769.000000	96.899533 
2768.000000	96.901595 
2767.000000	96.903579 
2766.000000	96.905289 
2765.000000	96.906672 
2764.000000	96.907834 
2763.000000	96.908943 
2762.000000	96.910078 
2761.000000	96.911211 
2760.000000	96.912315 
2759.000000	96.913433 
2758.000000	96.914611 
2757.000000	96.915776 
2756.000000	96.916770 
2755.000000	96.917544 
2754.000000	96.918307 
2753.000000	96.919390 
2752.000000	96.920931 
2751.000000	96.922738 
2750.000000	96.924474 
2749.000000	96.926030 
2748.000000	96.927466 
2747.000000	96.928646 
2746.000000	96.929227 
2745.000000	96.929171 
2744.000000	96.929072 
2743.000000	96.929708 
2742.000000	96.931299 
2741.000000	96.933346 
2740.000000	96.935131 
2739.000000	96.936279 
2738.000000	96.936885 
2737.000000	96.937327 
2736.000000	96.937983 
2735.000000	96.938970 
2734.000000	96.940060 
2733.000000	96.940939 
2732.000000	96.941604 
2731.000000	96.942466 
2730.000000	96.944062 
2729.000000	96.946616 
2728.000000	96.949776 
2727.000000	96.952711 
2726.000000	96.954691 
2725.000000	96.955639 
2724.000000	96.956054 
2723.000000	96.956380 
2722.000000	96.956556 
2721.000000	96.956334 
2720.000000	96.955866 
2719.000000	96.955753 
2718.000000	96.956383 
2717.000000	96.957352 
2716.000000	96.957729 
2715.000000	96.956994 
2714.000000	96.955655 
2713.000000	96.954804 
2712.000000	96.955037 
2711.000000	96.955992 
2710.000000	96.956999 
2709.000000	96.957964 
2708.000000	96.959352 
2707.000000	96.961404 
2706.000000	96.963694 
2705.000000	96.965531 
2704.000000	96.966481 
2703.000000	96.966583 
2702.000000	96.966391 
2701.000000	96.966777 
2700.000000	96.968407 
2699.000000	96.971168 
2698.000000	96.974072 
2697.000000	96.975913 
2696.000000	96.976184 
2695.000000	96.975402 
2694.000000	96.974695 
2693.000000	96.974944 
2692.000000	96.976246 
2691.000000	96.978137 
2690.000000	96.980026 
2689.000000	96.981426 
2688.000000	96.981996 
2687.000000	96.981641 
2686.000000	96.980689 
2685.000000	96.979799 
2684.000000	96.979456 
2683.000000	96.979588 
2682.000000	96.979804 
2681.000000	96.979900 
2680.000000	96.980014 
2679.000000	96.980349 
2678.000000	96.980953 
2677.000000	96.981705 
2676.000000	96.982305 
2675.000000	96.982275 
2674.000000	96.981254 
2673.000000	96.979416 
2672.000000	96.977416 
2671.000000	96.975893 
2670.000000	96.975269 
2669.000000	96.975998 
2668.000000	96.978502 
2667.000000	96.982364 
2666.000000	96.985787 
2665.000000	96.986582 
2664.000000	96.983955 
2663.000000	96.979301 
2662.000000	96.975311 
2661.000000	96.974180 
2660.000000	96.976441 
2659.000000	96.980877 
2658.000000	96.985328 
2657.000000	96.987975 
2656.000000	96.988001 
2655.000000	96.985285 
2654.000000	96.980006 
2653.000000	96.973177 
2652.000000	96.967338 
2651.000000	96.965598 
2650.000000	96.969290 
2649.000000	96.976649 
2648.000000	96.984027 
2647.000000	96.988433 
2646.000000	96.988724 
2645.000000	96.984984 
2644.000000	96.977773 
2643.000000	96.968064 
2642.000000	96.957251 
2641.000000	96.946878 
2640.000000	96.938475 
2639.000000	96.933520 
2638.000000	96.932800 
2637.000000	96.935390 
2636.000000	96.938799 
2635.000000	96.940878 
2634.000000	96.941274 
2633.000000	96.940413 
2632.000000	96.937654 
2631.000000	96.931841 
2630.000000	96.923810 
2629.000000	96.916924 
2628.000000	96.914206 
2627.000000	96.915768 
2626.000000	96.919687 
2625.000000	96.924419 
2624.000000	96.929263 
2623.000000	96.933154 
2622.000000	96.934598 
2621.000000	96.933105 
2620.000000	96.929896 
2619.000000	96.927192 
2618.000000	96.927393 
2617.000000	96.932405 
2616.000000	96.942265 
2615.000000	96.953934 
2614.000000	96.962547 
2613.000000	96.964875 
2612.000000	96.961373 
2611.000000	96.955205 
2610.000000	96.949952 
2609.000000	96.948034 
2608.000000	96.950264 
2607.000000	96.955942 
2606.000000	96.963597 
2605.000000	96.972030 
2604.000000	96.980286 
2603.000000	96.986624 
2602.000000	96.988640 
2601.000000	96.985239 
2600.000000	96.978051 
2599.000000	96.970310 
2598.000000	96.964576 
2597.000000	96.961925 
2596.000000	96.962443 
2595.000000	96.965160 
2594.000000	96.967817 
2593.000000	96.968259 
2592.000000	96.966577 
2591.000000	96.965110 
2590.000000	96.965855 
2589.000000	96.968376 
2588.000000	96.970622 
2587.000000	96.971226 
2586.000000	96.970411 
2585.000000	96.969080 
2584.000000	96.967804 
2583.000000	96.966700 
2582.000000	96.965682 
2581.000000	96.964473 
2580.000000	96.962797 
2579.000000	96.961083 
2578.000000	96.960743 
2577.000000	96.962982 
2576.000000	96.967019 
2575.000000	96.969964 
2574.000000	96.969196 
2573.000000	96.964739 
2572.000000	96.958834 
2571.000000	96.953487 
2570.000000	96.949272 
2569.000000	96.946622 
2568.000000	96.946944 
2567.000000	96.951345 
2566.000000	96.958851 
2565.000000	96.966840 
2564.000000	96.973201 
2563.000000	96.977295 
2562.000000	96.979162 
2561.000000	96.979211 
2560.000000	96.978859 
2559.000000	96.980088 
2558.000000	96.983286 
2557.000000	96.986180 
2556.000000	96.986096 
2555.000000	96.983148 
2554.000000	96.980293 
2553.000000	96.980150 
2552.000000	96.982896 
2551.000000	96.987590 
2550.000000	96.993974 
2549.000000	97.001614 
2548.000000	97.008229 
2547.000000	97.010943 
2546.000000	97.009273 
2545.000000	97.005525 
2544.000000	97.001864 
2543.000000	96.998285 
2542.000000	96.994268 
2541.000000	96.990917 
2540.000000	96.990071 
2539.000000	96.992102 
2538.000000	96.995904 
2537.000000	97.000709 
2536.000000	97.006577 
2535.000000	97.012801 
2534.000000	97.016981 
2533.000000	97.016611 
2532.000000	97.011305 
2531.000000	97.003373 
2530.000000	96.996438 
2529.000000	96.993016 
2528.000000	96.993219 
2527.000000	96.995298 
2526.000000	96.997254 
2525.000000	96.998109 
2524.000000	96.997886 
2523.000000	96.996913 
2522.000000	96.995513 
2521.000000	96.994045 
2520.000000	96.992847 
2519.000000	96.992187 
2518.000000	96.992276 
2517.000000	96.992879 
2516.000000	96.992773 
2515.000000	96.990431 
2514.000000	96.985876 
2513.000000	96.981307 
2512.000000	96.979195 
2511.000000	96.980396 
2510.000000	96.984586 
2509.000000	96.991197 
2508.000000	96.998702 
2507.000000	97.004102 
2506.000000	97.005267 
2505.000000	97.003657 
2504.000000	97.003215 
2503.000000	97.006099 
2502.000000	97.010706 
2501.000000	97.014088 
2500.000000	97.014987 
2499.000000	97.013938 
2498.000000	97.011881 
2497.000000	97.009828 
2496.000000	97.009068 
2495.000000	97.010375 
2494.000000	97.013145 
2493.000000	97.016075 
2492.000000	97.018606 
2491.000000	97.021202 
2490.000000	97.024381 
2489.000000	97.027853 
2488.000000	97.030466 
2487.000000	97.030850 
2486.000000	97.028622 
2485.000000	97.025272 
2484.000000	97.023195 
2483.000000	97.023416 
2482.000000	97.024817 
2481.000000	97.025841 
2480.000000	97.026400 
2479.000000	97.027480 
2478.000000	97.029384 
2477.000000	97.031194 
2476.000000	97.031880 
2475.000000	97.031228 
2474.000000	97.029541 
2473.000000	97.026942 
2472.000000	97.023332 
2471.000000	97.018978 
2470.000000	97.015022 
2469.000000	97.013155 
2468.000000	97.014246 
2467.000000	97.017171 
2466.000000	97.019449 
2465.000000	97.019500 
2464.000000	97.018110 
2463.000000	97.017533 
2462.000000	97.019318 
2461.000000	97.023196 
2460.000000	97.027540 
2459.000000	97.030549 
2458.000000	97.031211 
2457.000000	97.029451 
2456.000000	97.025688 
2455.000000	97.020529 
2454.000000	97.015023 
2453.000000	97.010720 
2452.000000	97.008817 
2451.000000	97.009362 
2450.000000	97.011646 
2449.000000	97.014959 
2448.000000	97.018437 
2447.000000	97.020703 
2446.000000	97.020737 
2445.000000	97.019029 
2444.000000	97.017014 
2443.000000	97.015507 
2442.000000	97.014598 
2441.000000	97.014785 
2440.000000	97.016867 
2439.000000	97.020705 
2438.000000	97.025289 
2437.000000	97.030176 
2436.000000	97.035652 
2435.000000	97.041184 
2434.000000	97.044990 
2433.000000	97.045830 
2432.000000	97.044506 
2431.000000	97.043261 
2430.000000	97.044124 
2429.000000	97.047826 
2428.000000	97.053429 
2427.000000	97.058524 
2426.000000	97.060765 
2425.000000	97.059735 
2424.000000	97.057051 
2423.000000	97.054639 
2422.000000	97.053388 
2421.000000	97.053612 
2420.000000	97.055565 
2419.000000	97.058781 
2418.000000	97.061884 
2417.000000	97.063935 
2416.000000	97.065075 
2415.000000	97.065504 
2414.000000	97.064912 
2413.000000	97.063590 
2412.000000	97.062798 
2411.000000	97.063110 
2410.000000	97.063636 
2409.000000	97.063798 
2408.000000	97.064799 
2407.000000	97.067976 
2406.000000	97.072435 
2405.000000	97.075673 
2404.000000	97.076233 
2403.000000	97.074640 
2402.000000	97.072150 
2401.000000	97.069901 
2400.000000	97.069079 
2399.000000	97.070518 
2398.000000	97.073875 
2397.000000	97.077948 
2396.000000	97.081846 
2395.000000	97.085198 
2394.000000	97.087491 
2393.000000	97.088235 
2392.000000	97.087863 
2391.000000	97.087471 
2390.000000	97.087391 
2389.000000	97.086762 
2388.000000	97.084814 
2387.000000	97.081869 
2386.000000	97.078910 
2385.000000	97.076798 
2384.000000	97.076115 
2383.000000	97.077298 
2382.000000	97.080849 
2381.000000	97.087700 
2380.000000	97.098916 
2379.000000	97.113983 
2378.000000	97.129276 
2377.000000	97.139449 
2376.000000	97.141240 
2375.000000	97.135376 
2374.000000	97.125265 
2373.000000	97.114771 
2372.000000	97.107412 
2371.000000	97.106008 
2370.000000	97.110884 
2369.000000	97.118367 
2368.000000	97.122906 
2367.000000	97.121886 
2366.000000	97.117624 
2365.000000	97.114331 
2364.000000	97.113482 
2363.000000	97.113063 
2362.000000	97.110759 
2361.000000	97.106229 
2360.000000	97.099924 
2359.000000	97.093009 
2358.000000	97.089183 
2357.000000	97.091984 
2356.000000	97.099898 
2355.000000	97.107404 
2354.000000	97.112522 
2353.000000	97.114879 
2352.000000	97.112164 
2351.000000	97.102342 
2350.000000	97.087298 
2349.000000	97.073079 
2348.000000	97.066051 
2347.000000	97.067419 
2346.000000	97.068534 
2345.000000	97.060289 
2344.000000	97.045443 
2343.000000	97.032151 
2342.000000	97.026217 
2341.000000	97.029701 
2340.000000	97.042068 
2339.000000	97.057670 
2338.000000	97.068696 
2337.000000	97.071215 
2336.000000	97.066369 
2335.000000	97.058659 
2334.000000	97.052235 
2333.000000	97.048076 
2332.000000	97.041264 
2331.000000	97.026589 
2330.000000	97.001442 
2329.000000	96.969260 
2328.000000	96.933334 
2327.000000	96.898287 
2326.000000	96.867888 
2325.000000	96.847595 
2324.000000	96.841804 
2323.000000	96.850021 
2322.000000	96.863642 
2321.000000	96.870858 
2320.000000	96.867127 
2319.000000	96.859242 
2318.000000	96.855837 
2317.000000	96.860684 
2316.000000	96.870515 
2315.000000	96.880956 
2314.000000	96.887449 
2313.000000	96.889743 
2312.000000	96.890026 
2311.000000	96.891851 
2310.000000	96.893847 
2309.000000	96.892455 
2308.000000	96.886368 
2307.000000	96.879964 
2306.000000	96.877110 
2305.000000	96.878045 
2304.000000	96.881038 
2303.000000	96.886389 
2302.000000	96.893802 
2301.000000	96.901063 
2300.000000	96.905754 
2299.000000	96.908526 
2298.000000	96.909428 
2297.000000	96.906788 
2296.000000	96.899985 
2295.000000	96.894171 
2294.000000	96.894860 
2293.000000	96.900935 
2292.000000	96.905050 
2291.000000	96.903327 
2290.000000	96.899715 
2289.000000	96.900388 
2288.000000	96.906337 
2287.000000	96.913724 
2286.000000	96.919458 
2285.000000	96.923481 
2284.000000	96.926713 
2283.000000	96.929042 
2282.000000	96.930287 
2281.000000	96.930986 
2280.000000	96.931706 
2279.000000	96.932326 
2278.000000	96.933233 
2277.000000	96.936077 
2276.000000	96.942070 
2275.000000	96.950069 
2274.000000	96.957418 
2273.000000	96.963120 
2272.000000	96.968582 
2271.000000	96.974592 
2270.000000	96.979101 
2269.000000	96.979953 
2268.000000	96.978577 
2267.000000	96.978882 
2266.000000	96.982297 
2265.000000	96.986234 
2264.000000	96.987700 
2263.000000	96.986285 
2262.000000	96.983295 
2261.000000	96.980014 
2260.000000	96.977580 
2259.000000	96.976829 
2258.000000	96.977461 
2257.000000	96.978530 
2256.000000	96.980563 
2255.000000	96.985417 
2254.000000	96.993068 
2253.000000	97.000084 
2252.000000	97.003024 
2251.000000	97.001948 
2250.000000	96.999147 
2249.000000	96.995928 
2248.000000	96.992429 
2247.000000	96.989603 
2246.000000	96.988841 
2245.000000	96.989684 
2244.000000	96.989853 
2243.000000	96.988165 
2242.000000	96.986147 
2241.000000	96.986161 
2240.000000	96.988759 
2239.000000	96.992352 
2238.000000	96.994754 
2237.000000	96.994933 
2236.000000	96.993444 
2235.000000	96.991617 
2234.000000	96.990257 
2233.000000	96.989242 
2232.000000	96.988440 
2231.000000	96.988341 
2230.000000	96.989199 
2229.000000	96.990129 
2228.000000	96.990022 
2227.000000	96.989200 
2226.000000	96.989207 
2225.000000	96.990871 
2224.000000	96.993114 
2223.000000	96.994485 
2222.000000	96.995035 
2221.000000	96.995765 
2220.000000	96.996486 
2219.000000	96.995720 
2218.000000	96.992897 
2217.000000	96.989461 
2216.000000	96.987419 
2215.000000	96.987191 
2214.000000	96.987404 
2213.000000	96.986537 
2212.000000	96.984596 
2211.000000	96.982998 
2210.000000	96.982863 
2209.000000	96.983834 
2208.000000	96.984635 
2207.000000	96.984571 
2206.000000	96.984156 
2205.000000	96.984378 
2204.000000	96.985696 
2203.000000	96.987773 
2202.000000	96.989939 
2201.000000	96.991665 
2200.000000	96.992386 
2199.000000	96.991528 
2198.000000	96.989313 
2197.000000	96.987191 
2196.000000	96.986766 
2195.000000	96.988086 
2194.000000	96.989417 
2193.000000	96.989106 
2192.000000	96.987270 
2191.000000	96.985170 
2190.000000	96.983503 
2189.000000	96.982244 
2188.000000	96.981549 
2187.000000	96.981122 
2186.000000	96.978876 
2185.000000	96.972845 
2184.000000	96.965859 
2183.000000	96.965608 
2182.000000	96.977125 
2181.000000	96.996237 
2180.000000	97.011986 
2179.000000	97.017429 
2178.000000	97.015010 
2177.000000	97.012019 
2176.000000	97.013250 
2175.000000	97.018721 
2174.000000	97.026397 
2173.000000	97.034368 
2172.000000	97.040874 
2171.000000	97.044295 
2170.000000	97.043765 
2169.000000	97.039477 
2168.000000	97.032616 
2167.000000	97.025220 
2166.000000	97.019199 
2165.000000	97.014432 
2164.000000	97.008630 
2163.000000	97.000985 
2162.000000	96.996117 
2161.000000	97.002277 
2160.000000	97.024410 
2159.000000	97.059080 
2158.000000	97.095741 
2157.000000	97.123925 
2156.000000	97.139291 
2155.000000	97.143531 
2154.000000	97.141642 
2153.000000	97.139210 
2152.000000	97.139364 
2151.000000	97.140975 
2150.000000	97.140913 
2149.000000	97.138828 
2148.000000	97.138468 
2147.000000	97.142994 
2146.000000	97.150425 
2145.000000	97.156099 
2144.000000	97.159029 
2143.000000	97.162614 
2142.000000	97.168437 
2141.000000	97.172671 
2140.000000	97.171045 
2139.000000	97.165546 
2138.000000	97.163185 
2137.000000	97.168360 
2136.000000	97.178438 
2135.000000	97.186596 
2134.000000	97.187632 
2133.000000	97.181584 
2132.000000	97.173620 
2131.000000	97.170141 
2130.000000	97.173547 
2129.000000	97.180324 
2128.000000	97.184724 
2127.000000	97.184329 
2126.000000	97.181431 
2125.000000	97.179419 
2124.000000	97.178829 
2123.000000	97.176968 
2122.000000	97.170636 
2121.000000	97.158986 
2120.000000	97.144359 
2119.000000	97.130490 
2118.000000	97.119761 
2117.000000	97.112092 
2116.000000	97.106080 
2115.000000	97.100433 
2114.000000	97.094067 
2113.000000	97.086287 
2112.000000	97.078241 
2111.000000	97.072998 
2110.000000	97.072542 
2109.000000	97.075373 
2108.000000	97.078476 
2107.000000	97.080957 
2106.000000	97.084139 
2105.000000	97.088972 
2104.000000	97.095165 
2103.000000	97.101813 
2102.000000	97.106597 
2101.000000	97.105480 
2100.000000	97.096607 
2099.000000	97.084916 
2098.000000	97.079714 
2097.000000	97.085999 
2096.000000	97.100098 
2095.000000	97.114148 
2094.000000	97.123240 
2093.000000	97.126969 
2092.000000	97.126609 
2091.000000	97.123925 
2090.000000	97.121700 
2089.000000	97.122228 
2088.000000	97.124534 
2087.000000	97.124855 
2086.000000	97.120492 
2085.000000	97.112309 
2084.000000	97.103441 
2083.000000	97.096345 
2082.000000	97.091502 
2081.000000	97.088393 
2080.000000	97.086944 
2079.000000	97.087663 
2078.000000	97.090253 
2077.000000	97.092623 
2076.000000	97.092509 
2075.000000	97.090259 
2074.000000	97.088642 
2073.000000	97.089194 
2072.000000	97.090012 
2071.000000	97.088335 
2070.000000	97.084399 
2069.000000	97.081207 
2068.000000	97.080880 
2067.000000	97.082839 
2066.000000	97.085338 
2065.000000	97.086974 
2064.000000	97.086611 
2063.000000	97.083888 
2062.000000	97.080811 
2061.000000	97.081078 
2060.000000	97.086423 
2059.000000	97.094516 
2058.000000	97.101137 
2057.000000	97.104097 
2056.000000	97.103596 
2055.000000	97.099984 
2054.000000	97.093431 
2053.000000	97.085712 
2052.000000	97.080353 
2051.000000	97.079992 
2050.000000	97.084706 
2049.000000	97.092403 
2048.000000	97.099774 
2047.000000	97.103645 
2046.000000	97.103021 
2045.000000	97.100472 
2044.000000	97.100263 
2043.000000	97.104168 
2042.000000	97.110119 
2041.000000	97.115377 
2040.000000	97.120000 
2039.000000	97.126118 
2038.000000	97.134628 
2037.000000	97.143862 
2036.000000	97.151245 
2035.000000	97.155575 
2034.000000	97.157967 
2033.000000	97.161176 
2032.000000	97.167159 
2031.000000	97.174435 
2030.000000	97.178786 
2029.000000	97.177829 
2028.000000	97.174143 
2027.000000	97.172388 
2026.000000	97.173785 
2025.000000	97.175963 
2024.000000	97.177906 
2023.000000	97.182236 
2022.000000	97.191188 
2021.000000	97.201732 
2020.000000	97.207124 
2019.000000	97.203556 
2018.000000	97.193546 
2017.000000	97.183823 
2016.000000	97.179523 
2015.000000	97.180467 
2014.000000	97.182181 
2013.000000	97.179872 
2012.000000	97.172995 
2011.000000	97.166515 
2010.000000	97.166468 
2009.000000	97.173978 
2008.000000	97.184217 
2007.000000	97.191494 
2006.000000	97.194278 
2005.000000	97.193985 
2004.000000	97.191535 
2003.000000	97.187498 
2002.000000	97.183934 
2001.000000	97.182826 
2000.000000	97.182719 
1999.000000	97.179534 
1998.000000	97.171381 
1997.000000	97.161004 
1996.000000	97.152743 
1995.000000	97.148372 
1994.000000	97.146921 
1993.000000	97.146787 
1992.000000	97.146438 
1991.000000	97.144552 
1990.000000	97.141643 
1989.000000	97.140535 
1988.000000	97.142920 
1987.000000	97.145659 
1986.000000	97.142854 
1985.000000	97.132371 
1984.000000	97.118541 
1983.000000	97.107620 
1982.000000	97.102251 
1981.000000	97.101749 
1980.000000	97.105671 
1979.000000	97.114219 
1978.000000	97.125269 
1977.000000	97.134120 
1976.000000	97.137846 
1975.000000	97.138538 
1974.000000	97.141022 
1973.000000	97.148129 
1972.000000	97.158298 
1971.000000	97.167013 
1970.000000	97.170173 
1969.000000	97.166542 
1968.000000	97.157787 
1967.000000	97.147242 
1966.000000	97.138756 
1965.000000	97.135292 
1964.000000	97.137699 
1963.000000	97.144657 
1962.000000	97.153932 
1961.000000	97.163316 
1960.000000	97.170117 
1959.000000	97.171418 
1958.000000	97.166843 
1957.000000	97.160537 
1956.000000	97.157852 
1955.000000	97.159574 
1954.000000	97.161692 
1953.000000	97.160804 
1952.000000	97.157523 
1951.000000	97.154335 
1950.000000	97.152731 
1949.000000	97.153404 
1948.000000	97.156852 
1947.000000	97.161961 
1946.000000	97.165468 
1945.000000	97.164859 
1944.000000	97.160934 
1943.000000	97.156379 
1942.000000	97.152574 
1941.000000	97.148983 
1940.000000	97.145122 
1939.000000	97.141351 
1938.000000	97.138327 
1937.000000	97.137032 
1936.000000	97.138449 
1935.000000	97.141889 
1934.000000	97.144507 
1933.000000	97.144402 
1932.000000	97.143446 
1931.000000	97.145022 
1930.000000	97.149373 
1929.000000	97.153094 
1928.000000	97.153564 
1927.000000	97.151504 
1926.000000	97.148838 
1925.000000	97.145995 
1924.000000	97.142402 
1923.000000	97.138249 
1922.000000	97.134192 
1921.000000	97.130258 
1920.000000	97.126569 
1919.000000	97.124029 
1918.000000	97.122976 
1917.000000	97.122027 
1916.000000	97.120010 
1915.000000	97.118000 
1914.000000	97.117348 
1913.000000	97.117246 
1912.000000	97.115791 
1911.000000	97.112619 
1910.000000	97.108997 
1909.000000	97.106014 
1908.000000	97.103932 
1907.000000	97.102628 
1906.000000	97.101210 
1905.000000	97.097677 
1904.000000	97.090932 
1903.000000	97.083066 
1902.000000	97.077575 
1901.000000	97.075311 
1900.000000	97.074338 
1899.000000	97.073071 
1898.000000	97.071619 
1897.000000	97.070182 
1896.000000	97.067869 
1895.000000	97.063862 
1894.000000	97.058504 
1893.000000	97.052727 
1892.000000	97.047715 
1891.000000	97.045192 
1890.000000	97.046316 
1889.000000	97.049784 
1888.000000	97.052673 
1887.000000	97.053764 
1886.000000	97.053735 
1885.000000	97.052452 
1884.000000	97.048498 
1883.000000	97.041889 
1882.000000	97.035559 
1881.000000	97.032849 
1880.000000	97.034315 
1879.000000	97.037414 
1878.000000	97.038994 
1877.000000	97.038250 
1876.000000	97.036995 
1875.000000	97.037430 
1874.000000	97.040001 
1873.000000	97.043185 
1872.000000	97.045130 
1871.000000	97.045162 
1870.000000	97.043813 
1869.000000	97.042337 
1868.000000	97.042048 
1867.000000	97.043549 
1866.000000	97.045770 
1865.000000	97.046272 
1864.000000	97.044200 
1863.000000	97.042219 
1862.000000	97.043815 
1861.000000	97.049200 
1860.000000	97.055324 
1859.000000	97.059820 
1858.000000	97.063122 
1857.000000	97.066365 
1856.000000	97.069619 
1855.000000	97.072584 
1854.000000	97.074912 
1853.000000	97.075956 
1852.000000	97.076042 
1851.000000	97.077129 
1850.000000	97.080793 
1849.000000	97.086181 
1848.000000	97.090817 
1847.000000	97.093471 
1846.000000	97.095059 
1845.000000	97.097000 
1844.000000	97.099564 
1843.000000	97.101857 
1842.000000	97.103037 
1841.000000	97.103043 
1840.000000	97.103026 
1839.000000	97.104684 
1838.000000	97.108391 
1837.000000	97.112142 
1836.000000	97.113852 
1835.000000	97.114225 
1834.000000	97.115557 
1833.000000	97.118571 
1832.000000	97.121911 
1831.000000	97.123705 
1830.000000	97.123187 
1829.000000	97.121366 
1828.000000	97.119993 
1827.000000	97.120044 
1826.000000	97.121558 
1825.000000	97.124043 
1824.000000	97.126470 
1823.000000	97.128058 
1822.000000	97.129110 
1821.000000	97.130239 
1820.000000	97.131362 
1819.000000	97.132169 
1818.000000	97.133250 
1817.000000	97.134913 
1816.000000	97.135754 
1815.000000	97.134786 
1814.000000	97.133438 
1813.000000	97.133787 
1812.000000	97.135149 
1811.000000	97.134374 
1810.000000	97.130742 
1809.000000	97.127093 
1808.000000	97.125401 
1807.000000	97.125087 
1806.000000	97.125618 
1805.000000	97.127419 
1804.000000	97.130142 
1803.000000	97.132049 
1802.000000	97.131660 
1801.000000	97.129487 
1800.000000	97.126654 
1799.000000	97.123873 
1798.000000	97.122573 
1797.000000	97.123363 
1796.000000	97.124517 
1795.000000	97.124195 
1794.000000	97.123175 
1793.000000	97.124147 
1792.000000	97.127543 
1791.000000	97.130827 
1790.000000	97.133028 
1789.000000	97.135329 
1788.000000	97.138150 
1787.000000	97.140538 
1786.000000	97.141911 
1785.000000	97.142634 
1784.000000	97.142979 
1783.000000	97.142984 
1782.000000	97.143108 
1781.000000	97.144772 
1780.000000	97.148969 
1779.000000	97.154658 
1778.000000	97.159798 
1777.000000	97.162983 
1776.000000	97.164281 
1775.000000	97.164826 
1774.000000	97.165811 
1773.000000	97.168236 
1772.000000	97.171988 
1771.000000	97.175227 
1770.000000	97.176986 
1769.000000	97.178061 
1768.000000	97.179678 
1767.000000	97.182107 
1766.000000	97.184603 
1765.000000	97.186739 
1764.000000	97.188769 
1763.000000	97.190916 
1762.000000	97.193040 
1761.000000	97.195175 
1760.000000	97.197420 
1759.000000	97.199566 
1758.000000	97.201285 
1757.000000	97.202660 
1756.000000	97.204234 
1755.000000	97.205425 
1754.000000	97.204555 
1753.000000	97.200979 
1752.000000	97.196866 
1751.000000	97.196095 
1750.000000	97.199649 
1749.000000	97.204406 
1748.000000	97.207618 
1747.000000	97.209439 
1746.000000	97.210720 
1745.000000	97.211746 
1744.000000	97.212353 
1743.000000	97.211656 
1742.000000	97.208736 
1741.000000	97.204720 
1740.000000	97.203146 
1739.000000	97.206206 
1738.000000	97.211462 
1737.000000	97.214903 
1736.000000	97.214645 
1735.000000	97.212032 
1734.000000	97.210374 
1733.000000	97.209316 
1732.000000	97.207248 
1731.000000	97.206331 
1730.000000	97.209199 
1729.000000	97.214526 
1728.000000	97.218792 
1727.000000	97.219883 
1726.000000	97.217900 
1725.000000	97.214273 
1724.000000	97.210585 
1723.000000	97.208258 
1722.000000	97.207704 
1721.000000	97.207336 
1720.000000	97.204796 
1719.000000	97.199477 
1718.000000	97.193839 
1717.000000	97.189971 
1716.000000	97.184182 
1715.000000	97.174496 
1714.000000	97.165473 
1713.000000	97.160146 
1712.000000	97.156209 
1711.000000	97.152004 
1710.000000	97.148680 
1709.000000	97.146790 
1708.000000	97.144468 
1707.000000	97.140379 
1706.000000	97.136054 
1705.000000	97.132585 
1704.000000	97.127322 
1703.000000	97.117930 
1702.000000	97.105792 
1701.000000	97.097617 
1700.000000	97.096788 
1699.000000	97.093498 
1698.000000	97.085058 
1697.000000	97.075786 
1696.000000	97.067663 
1695.000000	97.060267 
1694.000000	97.052641 
1693.000000	97.044480 
1692.000000	97.035256 
1691.000000	97.024910 
1690.000000	97.014357 
1689.000000	97.005044 
1688.000000	96.997501 
1687.000000	96.990580 
1686.000000	96.983359 
1685.000000	96.977564 
1684.000000	96.973479 
1683.000000	96.967221 
1682.000000	96.957577 
1681.000000	96.945691 
1680.000000	96.934826 
1679.000000	96.927094 
1678.000000	96.921302 
1677.000000	96.915145 
1676.000000	96.908918 
1675.000000	96.903879 
1674.000000	96.896404 
1673.000000	96.883615 
1672.000000	96.868172 
1671.000000	96.855629 
1670.000000	96.848925 
1669.000000	96.845203 
1668.000000	96.842283 
1667.000000	96.840574 
1666.000000	96.837888 
1665.000000	96.831360 
1664.000000	96.821784 
1663.000000	96.812881 
1662.000000	96.804550 
1661.000000	96.793232 
1660.000000	96.780070 
1659.000000	96.770046 
1658.000000	96.764933 
1657.000000	96.762614 
1656.000000	96.759235 
1655.000000	96.752549 
1654.000000	96.744320 
1653.000000	96.735223 
1652.000000	96.717679 
1651.000000	96.697469 
1650.000000	96.678063 
1649.000000	96.661863 
1648.000000	96.649436 
1647.000000	96.640892 
1646.000000	96.635848 
1645.000000	96.632433 
1644.000000	96.629089 
1643.000000	96.626032 
1642.000000	96.624629 
1641.000000	96.624779 
1640.000000	96.625161 
1639.000000	96.624015 
1638.000000	96.620361 
1637.000000	96.615965 
1636.000000	96.613925 
1635.000000	96.615433 
1634.000000	96.617942 
1633.000000	96.618517 
1632.000000	96.616671 
1631.000000	96.615445 
1630.000000	96.617501 
1629.000000	96.622953 
1628.000000	96.630776 
1627.000000	96.640701 
1626.000000	96.651146 
1625.000000	96.659854 
1624.000000	96.668340 
1623.000000	96.680646 
1622.000000	96.695799 
1621.000000	96.708442 
1620.000000	96.717433 
1619.000000	96.726114 
1618.000000	96.737655 
1617.000000	96.750503 
1616.000000	96.760664 
1615.000000	96.768884 
1614.000000	96.776937 
1613.000000	96.782643 
1612.000000	96.785075 
1611.000000	96.787498 
1610.000000	96.793628 
1609.000000	96.803930 
1608.000000	96.817919 
1607.000000	96.834912 
1606.000000	96.850973 
1605.000000	96.862448 
1604.000000	96.871055 
1603.000000	96.880523 
1602.000000	96.891257 
1601.000000	96.901404 
1600.000000	96.911313 
1599.000000	96.922699 
1598.000000	96.934665 
1597.000000	96.944972 
1596.000000	96.953850 
1595.000000	96.963589 
1594.000000	96.974567 
1593.000000	96.984528 
1592.000000	96.992594 
1591.000000	97.000734 
1590.000000	97.010136 
1589.000000	97.019281 
1588.000000	97.027161 
1587.000000	97.035286 
1586.000000	97.044041 
1585.000000	97.051084 
1584.000000	97.056189 
1583.000000	97.062162 
1582.000000	97.070158 
1581.000000	97.078686 
1580.000000	97.087245 
1579.000000	97.096845 
1578.000000	97.107779 
1577.000000	97.119021 
1576.000000	97.128692 
1575.000000	97.135568 
1574.000000	97.139753 
1573.000000	97.142615 
1572.000000	97.146574 
1571.000000	97.153719 
1570.000000	97.161387 
1569.000000	97.162761 
1568.000000	97.158711 
1567.000000	97.155348 
1566.000000	97.153964 
1565.000000	97.153835 
1564.000000	97.157728 
1563.000000	97.165516 
1562.000000	97.173760 
1561.000000	97.173518 
1560.000000	97.172095 
1559.000000	97.179083 
1558.000000	97.183387 
1557.000000	97.181177 
1556.000000	97.178362 
1555.000000	97.177776 
1554.000000	97.178051 
1553.000000	97.176982 
1552.000000	97.174172 
1551.000000	97.168736 
1550.000000	97.161375 
1549.000000	97.154953 
1548.000000	97.152045 
1547.000000	97.151817 
1546.000000	97.150748 
1545.000000	97.147455 
1544.000000	97.144061 
1543.000000	97.142523 
1542.000000	97.143299 
1541.000000	97.146401 
1540.000000	97.145625 
1539.000000	97.137514 
1538.000000	97.126494 
1537.000000	97.114338 
1536.000000	97.100930 
1535.000000	97.088503 
1534.000000	97.080654 
1533.000000	97.078119 
1532.000000	97.075910 
1531.000000	97.070105 
1530.000000	97.062207 
1529.000000	97.055364 
1528.000000	97.050411 
1527.000000	97.046299 
1526.000000	97.041999 
1525.000000	97.037618 
1524.000000	97.033382 
1523.000000	97.029108 
1522.000000	97.024564 
1521.000000	97.018283 
1520.000000	97.008481 
1519.000000	96.995817 
1518.000000	96.982891 
1517.000000	96.972501 
1516.000000	96.965570 
1515.000000	96.960956 
1514.000000	96.957066 
1513.000000	96.952863 
1512.000000	96.947672 
1511.000000	96.940762 
1510.000000	96.932577 
1509.000000	96.924046 
1508.000000	96.916761 
1507.000000	96.910583 
1506.000000	96.903999 
1505.000000	96.896409 
1504.000000	96.888191 
1503.000000	96.879785 
1502.000000	96.871646 
1501.000000	96.863982 
1500.000000	96.856777 
1499.000000	96.849542 
1498.000000	96.841736 
1497.000000	96.833489 
1496.000000	96.825289 
1495.000000	96.817391 
1494.000000	96.809815 
1493.000000	96.802578 
1492.000000	96.795674 
1491.000000	96.788937 
1490.000000	96.781965 
1489.000000	96.774555 
1488.000000	96.766648 
1487.000000	96.758358 
1486.000000	96.750139 
1485.000000	96.741825 
1484.000000	96.733047 
1483.000000	96.724134 
1482.000000	96.715727 
1481.000000	96.708086 
1480.000000	96.700660 
1479.000000	96.692814 
1478.000000	96.684695 
1477.000000	96.677065 
1476.000000	96.669907 
1475.000000	96.661595 
1474.000000	96.650871 
1473.000000	96.639723 
1472.000000	96.631599 
1471.000000	96.626144 
1470.000000	96.620777 
1469.000000	96.614212 
1468.000000	96.606052 
1467.000000	96.595891 
1466.000000	96.584561 
1465.000000	96.574818 
1464.000000	96.568024 
1463.000000	96.561304 
1462.000000	96.552087 
1461.000000	96.542266 
1460.000000	96.535442 
1459.000000	96.531100 
1458.000000	96.522519 
1457.000000	96.506154 
1456.000000	96.489696 
1455.000000	96.476825 
1454.000000	96.463056 
1453.000000	96.448890 
1452.000000	96.439442 
1451.000000	96.437115 
1450.000000	96.439102 
1449.000000	96.440847 
1448.000000	96.439430 
1447.000000	96.433941 
1446.000000	96.425154 
1445.000000	96.416200 
1444.000000	96.410007 
1443.000000	96.405386 
1442.000000	96.399630 
1441.000000	96.392553 
1440.000000	96.385804 
1439.000000	96.377964 
1438.000000	96.365127 
1437.000000	96.349131 
1436.000000	96.338661 
1435.000000	96.335378 
1434.000000	96.333782 
1433.000000	96.331927 
1432.000000	96.331370 
1431.000000	96.332723 
1430.000000	96.334100 
1429.000000	96.334490 
1428.000000	96.335251 
1427.000000	96.337770 
1426.000000	96.341718 
1425.000000	96.347345 
1424.000000	96.356900 
1423.000000	96.368522 
1422.000000	96.376529 
1421.000000	96.378374 
1420.000000	96.377196 
1419.000000	96.374544 
1418.000000	96.367418 
1417.000000	96.359678 
1416.000000	96.360271 
1415.000000	96.369925 
1414.000000	96.380489 
1413.000000	96.385321 
1412.000000	96.387028 
1411.000000	96.391286 
1410.000000	96.398460 
1409.000000	96.406422 
1408.000000	96.414952 
1407.000000	96.424379 
1406.000000	96.433609 
1405.000000	96.443323 
1404.000000	96.457299 
1403.000000	96.474472 
1402.000000	96.488935 
1401.000000	96.499856 
1400.000000	96.513569 
1399.000000	96.533789 
1398.000000	96.554457 
1397.000000	96.568933 
1396.000000	96.579549 
1395.000000	96.592994 
1394.000000	96.610007 
1393.000000	96.627172 
1392.000000	96.645355 
1391.000000	96.666153 
1390.000000	96.686945 
1389.000000	96.703133 
1388.000000	96.712951 
1387.000000	96.718998 
1386.000000	96.724953 
1385.000000	96.733509 
1384.000000	96.746349 
1383.000000	96.762438 
1382.000000	96.777903 
1381.000000	96.789647 
1380.000000	96.798045 
1379.000000	96.806252 
1378.000000	96.817101 
1377.000000	96.830642 
1376.000000	96.844687 
1375.000000	96.857133 
1374.000000	96.867572 
1373.000000	96.877902 
1372.000000	96.890170 
1371.000000	96.904427 
1370.000000	96.918683 
1369.000000	96.930500 
1368.000000	96.940428 
1367.000000	96.950963 
1366.000000	96.963017 
1365.000000	96.975620 
1364.000000	96.986906 
1363.000000	96.995095 
1362.000000	97.000243 
1361.000000	97.004945 
1360.000000	97.012490 
1359.000000	97.024494 
1358.000000	97.039679 
1357.000000	97.054762 
1356.000000	97.067216 
1355.000000	97.076746 
1354.000000	97.084434 
1353.000000	97.091913 
1352.000000	97.099797 
1351.000000	97.108624 
1350.000000	97.119247 
1349.000000	97.130215 
1348.000000	97.138898 
1347.000000	97.144514 
1346.000000	97.148947 
1345.000000	97.154244 
1344.000000	97.160351 
1343.000000	97.166038 
1342.000000	97.170805 
1341.000000	97.174864 
1340.000000	97.178162 
1339.000000	97.180681 
1338.000000	97.182954 
1337.000000	97.185932 
1336.000000	97.190187 
1335.000000	97.195182 
1334.000000	97.199768 
1333.000000	97.203195 
1332.000000	97.205256 
1331.000000	97.206377 
1330.000000	97.207435 
1329.000000	97.209185 
1328.000000	97.211826 
1327.000000	97.215464 
1326.000000	97.219691 
1325.000000	97.222445 
1324.000000	97.221671 
1323.000000	97.217280 
1322.000000	97.211260 
1321.000000	97.206282 
1320.000000	97.204196 
1319.000000	97.205291 
1318.000000	97.208631 
1317.000000	97.213105 
1316.000000	97.217386 
1315.000000	97.219270 
1314.000000	97.216948 
1313.000000	97.211986 
1312.000000	97.208998 
1311.000000	97.210662 
1310.000000	97.214418 
1309.000000	97.215983 
1308.000000	97.214572 
1307.000000	97.213195 
1306.000000	97.214393 
1305.000000	97.217486 
1304.000000	97.220538 
1303.000000	97.222127 
1302.000000	97.221290 
1301.000000	97.218038 
1300.000000	97.214505 
1299.000000	97.213676 
1298.000000	97.216022 
1297.000000	97.218598 
1296.000000	97.218187 
1295.000000	97.214757 
1294.000000	97.211113 
1293.000000	97.210050 
1292.000000	97.212219 
1291.000000	97.215956 
1290.000000	97.218846 
1289.000000	97.219673 
1288.000000	97.218872 
1287.000000	97.217155 
1286.000000	97.214561 
1285.000000	97.211628 
1284.000000	97.210387 
1283.000000	97.212146 
1282.000000	97.214859 
1281.000000	97.214634 
1280.000000	97.210220 
1279.000000	97.204590 
1278.000000	97.201723 
1277.000000	97.203078 
1276.000000	97.207304 
1275.000000	97.212130 
1274.000000	97.215840 
1273.000000	97.218006 
1272.000000	97.219439 
1271.000000	97.220778 
1270.000000	97.221221 
1269.000000	97.219613 
1268.000000	97.216596 
1267.000000	97.213857 
1266.000000	97.211282 
1265.000000	97.207338 
1264.000000	97.202444 
1263.000000	97.199273 
1262.000000	97.199121 
1261.000000	97.200437 
1260.000000	97.202383 
1259.000000	97.207149 
1258.000000	97.216032 
1257.000000	97.225282 
1256.000000	97.228875 
1255.000000	97.225382 
1254.000000	97.219998 
1253.000000	97.218682 
1252.000000	97.221405 
1251.000000	97.222850 
1250.000000	97.219480 
1249.000000	97.214139 
1248.000000	97.212661 
1247.000000	97.216653 
1246.000000	97.221424 
1245.000000	97.221601 
1244.000000	97.216936 
1243.000000	97.211587 
1242.000000	97.209425 
1241.000000	97.211578 
1240.000000	97.217000 
1239.000000	97.223069 
1238.000000	97.226252 
1237.000000	97.224328 
1236.000000	97.218012 
1235.000000	97.209477 
1234.000000	97.200077 
1233.000000	97.190553 
1232.000000	97.181935 
1231.000000	97.174067 
1230.000000	97.164293 
1229.000000	97.149816 
1228.000000	97.130382 
1227.000000	97.106789 
1226.000000	97.078346 
1225.000000	97.044447 
1224.000000	97.007290 
1223.000000	96.969477 
1222.000000	96.929399 
1221.000000	96.882579 
1220.000000	96.827795 
1219.000000	96.768592 
1218.000000	96.708118 
1217.000000	96.645444 
1216.000000	96.577691 
1215.000000	96.502988 
1214.000000	96.421106 
1213.000000	96.334370 
1212.000000	96.248041 
1211.000000	96.165840 
1210.000000	96.084603 
1209.000000	95.997477 
1208.000000	95.902979 
1207.000000	95.806508 
1206.000000	95.711989 
1205.000000	95.616716 
1204.000000	95.516283 
1203.000000	95.410321 
1202.000000	95.301491 
1201.000000	95.192352 
1200.000000	95.084946 
1199.000000	94.980142 
1198.000000	94.875729 
1197.000000	94.768568 
1196.000000	94.659543 
1195.000000	94.552633 
1194.000000	94.448374 
1193.000000	94.342428 
1192.000000	94.231634 
1191.000000	94.116960 
1190.000000	93.999250 
1189.000000	93.876834 
1188.000000	93.749181 
1187.000000	93.618640 
1186.000000	93.486745 
1185.000000	93.352641 
1184.000000	93.216294 
1183.000000	93.079040 
1182.000000	92.940079 
1181.000000	92.796929 
1180.000000	92.649975 
1179.000000	92.501491 
1178.000000	92.349430 
1177.000000	92.188089 
1176.000000	92.016184 
1175.000000	91.838605 
1174.000000	91.659039 
1173.000000	91.476971 
1172.000000	91.293260 
1171.000000	91.111476 
1170.000000	90.931682 
1169.000000	90.750465 
1168.000000	90.570122 
1167.000000	90.401208 
1166.000000	90.254013 
1165.000000	90.135244 
1164.000000	90.054855 
1163.000000	90.025821 
1162.000000	90.051162 
1161.000000	90.116543 
1160.000000	90.198081 
1159.000000	90.271848 
1158.000000	90.316009 
1157.000000	90.314215 
1156.000000	90.262702 
1155.000000	90.170083 
1154.000000	90.048306 
1153.000000	89.907742 
1152.000000	89.760141 
1151.000000	89.616989 
1150.000000	89.481063 
1149.000000	89.346580 
1148.000000	89.210549 
1147.000000	89.076802 
1146.000000	88.946787 
1145.000000	88.815134 
1144.000000	88.678163 
1143.000000	88.539164 
1142.000000	88.401630 
1141.000000	88.264465 
1140.000000	88.126955 
1139.000000	87.991005 
1138.000000	87.855594 
1137.000000	87.716575 
1136.000000	87.574330 
1135.000000	87.433672 
1134.000000	87.294223 
1133.000000	87.149730 
1132.000000	86.999022 
1131.000000	86.848169 
1130.000000	86.699405 
1129.000000	86.547798 
1128.000000	86.391621 
1127.000000	86.235551 
1126.000000	86.080163 
1125.000000	85.918825 
1124.000000	85.749248 
1123.000000	85.578271 
1122.000000	85.411026 
1121.000000	85.245027 
1120.000000	85.079029 
1119.000000	84.917472 
1118.000000	84.761884 
1117.000000	84.608343 
1116.000000	84.457284 
1115.000000	84.314991 
1114.000000	84.181839 
1113.000000	84.050483 
1112.000000	83.918738 
1111.000000	83.791466 
1110.000000	83.666858 
1109.000000	83.535000 
1108.000000	83.393394 
1107.000000	83.250105 
1106.000000	83.108658 
1105.000000	82.963856 
1104.000000	82.815113 
1103.000000	82.669413 
1102.000000	82.527109 
1101.000000	82.380790 
1100.000000	82.230079 
1099.000000	82.083263 
1098.000000	81.942223 
1097.000000	81.800144 
1096.000000	81.657185 
1095.000000	81.520942 
1094.000000	81.389364 
1093.000000	81.251394 
1092.000000	81.108295 
1091.000000	80.975865 
1090.000000	80.860864 
1089.000000	80.752906 
1088.000000	80.643634 
1087.000000	80.535565 
1086.000000	80.428128 
1085.000000	80.314352 
1084.000000	80.196532 
1083.000000	80.086589 
1082.000000	79.985835 
1081.000000	79.882390 
1080.000000	79.772516 
1079.000000	79.664978 
1078.000000	79.560010 
1077.000000	79.444221 
1076.000000	79.311577 
1075.000000	79.169306 
1074.000000	79.017937 
1073.000000	78.845761 
1072.000000	78.648252 
1071.000000	78.432303 
1070.000000	78.195886 
1069.000000	77.924923 
1068.000000	77.617669 
1067.000000	77.292519 
1066.000000	76.964610 
1065.000000	76.633493 
1064.000000	76.299841 
1063.000000	75.972067 
1062.000000	75.648272 
1061.000000	75.313610 
1060.000000	74.964685 
1059.000000	74.616406 
1058.000000	74.277001 
1057.000000	73.937015 
1056.000000	73.590331 
1055.000000	73.243816 
1054.000000	72.897835 
1053.000000	72.539545 
1052.000000	72.165746 
1051.000000	71.790418 
1050.000000	71.418946 
1049.000000	71.038738 
1048.000000	70.645077 
1047.000000	70.250148 
1046.000000	69.858934 
1045.000000	69.462517 
1044.000000	69.060603 
1043.000000	68.664957 
1042.000000	68.275482 
1041.000000	67.878457 
1040.000000	67.474447 
1039.000000	67.082425 
1038.000000	66.710415 
1037.000000	66.348423 
1036.000000	65.995474 
1035.000000	65.665350 
1034.000000	65.359610 
1033.000000	65.063854 
1032.000000	64.776895 
1031.000000	64.514351 
1030.000000	64.277731 
1029.000000	64.050999 
1028.000000	63.833769 
1027.000000	63.645270 
1026.000000	63.487365 
1025.000000	63.335892 
1024.000000	63.177496 
1023.000000	63.023853 
1022.000000	62.880809 
1021.000000	62.735614 
1020.000000	62.583705 
1019.000000	62.436903 
1018.000000	62.296046 
1017.000000	62.146229 
1016.000000	61.987281 
1015.000000	61.837936 
1014.000000	61.701870 
1013.000000	61.561041 
1012.000000	61.410368 
1011.000000	61.267140 
1010.000000	61.138175 
1009.000000	61.010300 
1008.000000	60.881768 
1007.000000	60.770592 
1006.000000	60.682692 
1005.000000	60.603524 
1004.000000	60.529246 
1003.000000	60.473884 
1002.000000	60.437726 
1001.000000	60.402027 
1000.000000	60.363989 
999.000000	 60.343925 
998.000000	 60.348462 
997.000000	 60.359363 
996.000000	 60.367774 
995.000000	 60.386959 
994.000000	 60.421591 
993.000000	 60.457211 
992.000000	 60.489911 
991.000000	 60.534545 
990.000000	 60.593894 
989.000000	 60.651426 
988.000000	 60.703873 
987.000000	 60.769582 
986.000000	 60.855890 
985.000000	 60.950254 
984.000000	 61.051560 
983.000000	 61.176922 
982.000000	 61.328005 
981.000000	 61.483651 
980.000000	 61.636138 
979.000000	 61.802970 
978.000000	 61.992825 
977.000000	 62.192594 
976.000000	 62.398250 
975.000000	 62.625903 
974.000000	 62.880185 
973.000000	 63.142685 
972.000000	 63.403882 
971.000000	 63.677483 
970.000000	 63.971245 
969.000000	 64.271879 
968.000000	 64.570156 
967.000000	 64.874379 
966.000000	 65.188617 
965.000000	 65.503403 
964.000000	 65.816927 
963.000000	 66.139942 
962.000000	 66.471815 
961.000000	 66.796981 
960.000000	 67.111742 
959.000000	 67.428847 
958.000000	 67.749855 
957.000000	 68.059962 
956.000000	 68.356372 
955.000000	 68.654374 
954.000000	 68.958387 
953.000000	 69.253778 
952.000000	 69.534211 
951.000000	 69.809927 
950.000000	 70.082059 
949.000000	 70.336146 
948.000000	 70.569274 
947.000000	 70.797021 
946.000000	 71.024818 
945.000000	 71.237670 
944.000000	 71.427109 
943.000000	 71.604131 
942.000000	 71.777409 
941.000000	 71.942266 
940.000000	 72.099518 
939.000000	 72.261798 
938.000000	 72.432590 
937.000000	 72.600934 
936.000000	 72.763983 
935.000000	 72.932555 
934.000000	 73.108492 
933.000000	 73.279888 
932.000000	 73.445239 
931.000000	 73.618920 
930.000000	 73.805759 
929.000000	 73.992644 
928.000000	 74.171520 
927.000000	 74.348331 
926.000000	 74.523704 
925.000000	 74.687201 
924.000000	 74.835979 
923.000000	 74.977264 
922.000000	 75.108948 
921.000000	 75.221370 
920.000000	 75.321744 
919.000000	 75.431175 
918.000000	 75.552067 
917.000000	 75.663821 
916.000000	 75.757132 
915.000000	 75.848097 
914.000000	 75.952576 
913.000000	 76.072336 
912.000000	 76.212843 
911.000000	 76.387925 
910.000000	 76.598027 
909.000000	 76.828664 
908.000000	 77.078351 
907.000000	 77.363752 
906.000000	 77.690500 
905.000000	 78.043788 
904.000000	 78.413533 
903.000000	 78.803325 
902.000000	 79.208358 
901.000000	 79.611205 
900.000000	 80.007239 
899.000000	 80.409398 
898.000000	 80.820283 
897.000000	 81.223242 
896.000000	 81.608032 
895.000000	 81.982502 
894.000000	 82.352138 
893.000000	 82.709838 
892.000000	 83.052409 
891.000000	 83.386574 
890.000000	 83.712618 
889.000000	 84.020957 
888.000000	 84.309056 
887.000000	 84.583359 
886.000000	 84.842847 
885.000000	 85.080983 
884.000000	 85.304986 
883.000000	 85.530918 
882.000000	 85.758306 
881.000000	 85.973950 
880.000000	 86.182641 
879.000000	 86.406832 
878.000000	 86.651332 
877.000000	 86.896315 
876.000000	 87.131499 
875.000000	 87.369376 
874.000000	 87.618645 
873.000000	 87.873403 
872.000000	 88.135596 
871.000000	 88.418783 
870.000000	 88.720263 
869.000000	 89.016050 
868.000000	 89.292836 
867.000000	 89.561560 
866.000000	 89.832714 
865.000000	 90.102342 
864.000000	 90.370679 
863.000000	 90.650770 
862.000000	 90.947007 
861.000000	 91.244525 
860.000000	 91.530203 
859.000000	 91.806795 
858.000000	 92.078287 
857.000000	 92.338676 
856.000000	 92.583668 
855.000000	 92.817439 
854.000000	 93.040051 
853.000000	 93.243152 
852.000000	 93.425152 
851.000000	 93.596646 
850.000000	 93.765172 
849.000000	 93.927915 
848.000000	 94.082719 
847.000000	 94.230596 
846.000000	 94.364080 
845.000000	 94.470276 
844.000000	 94.550011 
843.000000	 94.617991 
842.000000	 94.680082 
841.000000	 94.726601 
840.000000	 94.751033 
839.000000	 94.757319 
838.000000	 94.745440 
837.000000	 94.709765 
836.000000	 94.657810 
835.000000	 94.611526 
834.000000	 94.581717 
833.000000	 94.558467 
832.000000	 94.534668 
831.000000	 94.520855 
830.000000	 94.527728 
829.000000	 94.552351 
828.000000	 94.592663 
827.000000	 94.657344 
826.000000	 94.748262 
825.000000	 94.850152 
824.000000	 94.949915 
823.000000	 95.048758 
822.000000	 95.145906 
821.000000	 95.231066 
820.000000	 95.302069 
819.000000	 95.369138 
818.000000	 95.432499 
817.000000	 95.472423 
816.000000	 95.468783 
815.000000	 95.416528 
814.000000	 95.316287 
813.000000	 95.163802 
812.000000	 94.954914 
811.000000	 94.686672 
810.000000	 94.345734 
809.000000	 93.909223 
808.000000	 93.366495 
807.000000	 92.730702 
806.000000	 92.024689 
805.000000	 91.269477 
804.000000	 90.492944 
803.000000	 89.732568 
802.000000	 89.018937 
801.000000	 88.371300 
800.000000	 87.815562 
799.000000	 87.385410 
798.000000	 87.095129 
797.000000	 86.929757 
796.000000	 86.867996 
795.000000	 86.892956 
794.000000	 86.976508 
793.000000	 87.080705 
792.000000	 87.183938 
791.000000	 87.283649 
790.000000	 87.369214 
789.000000	 87.417360 
788.000000	 87.418536 
787.000000	 87.380588 
786.000000	 87.299699 
785.000000	 87.154502 
784.000000	 86.938130 
783.000000	 86.672208 
782.000000	 86.382390 
781.000000	 86.086748 
780.000000	 85.815899 
779.000000	 85.613597 
778.000000	 85.502557 
777.000000	 85.474292 
776.000000	 85.522086 
775.000000	 85.654434 
774.000000	 85.863489 
773.000000	 86.110540 
772.000000	 86.359668 
771.000000	 86.602155 
770.000000	 86.835562 
769.000000	 87.045070 
768.000000	 87.219747 
767.000000	 87.363753 
766.000000	 87.478685 
765.000000	 87.558193 
764.000000	 87.612563 
763.000000	 87.674161 
762.000000	 87.763018 
761.000000	 87.867640 
760.000000	 87.971843 
759.000000	 88.077721 
758.000000	 88.189989 
757.000000	 88.303223 
756.000000	 88.420734 
755.000000	 88.562523 
754.000000	 88.735761 
753.000000	 88.915957 
752.000000	 89.073793 
751.000000	 89.204851 
750.000000	 89.321295 
749.000000	 89.433167 
748.000000	 89.550634 
747.000000	 89.685733 
746.000000	 89.837407 
745.000000	 89.990479 
744.000000	 90.141038 
743.000000	 90.306188 
742.000000	 90.498091 
741.000000	 90.706670 
740.000000	 90.918995 
739.000000	 91.136934 
738.000000	 91.363512 
737.000000	 91.589164 
736.000000	 91.803906 
735.000000	 92.007980 
734.000000	 92.199674 
733.000000	 92.367598 
732.000000	 92.505083 
731.000000	 92.619311 
730.000000	 92.718238 
729.000000	 92.800923 
728.000000	 92.869504 
727.000000	 92.935860 
726.000000	 93.008363 
725.000000	 93.088558 
724.000000	 93.184035 
723.000000	 93.304915 
722.000000	 93.443568 
721.000000	 93.578457 
720.000000	 93.704243 
719.000000	 93.835607 
718.000000	 93.976020 
717.000000	 94.110268 
716.000000	 94.232484 
715.000000	 94.354006 
714.000000	 94.476044 
713.000000	 94.581012 
712.000000	 94.663976 
711.000000	 94.746088 
710.000000	 94.840606 
709.000000	 94.931520 
708.000000	 95.000287 
707.000000	 95.051619 
706.000000	 95.092016 
705.000000	 95.106461 
704.000000	 95.077429 
703.000000	 95.003686 
702.000000	 94.882553 
701.000000	 94.691838 
700.000000	 94.408109 
699.000000	 94.034287 
698.000000	 93.597392 
697.000000	 93.141565 
696.000000	 92.736569 
695.000000	 92.461818 
694.000000	 92.360647 
693.000000	 92.417505 
692.000000	 92.585136 
691.000000	 92.820615 
690.000000	 93.086431 
689.000000	 93.346764 
688.000000	 93.584672 
687.000000	 93.803920 
686.000000	 94.003768 
685.000000	 94.171782 
684.000000	 94.310299 
683.000000	 94.444716 
682.000000	 94.589006 
681.000000	 94.729010 
680.000000	 94.851819 
679.000000	 94.970487 
678.000000	 95.096274 
677.000000	 95.215836 
676.000000	 95.327613 
675.000000	 95.451633 
674.000000	 95.593501 
673.000000	 95.731572 
672.000000	 95.848757 
671.000000	 95.973860 
670.000000	 96.169046 
669.000000	 96.482894 
668.000000	 96.765284 
667.000000	 96.820176 
666.000000	 96.772202 
665.000000	 96.758401 
664.000000	 96.771437 
663.000000	 96.816276 
662.000000	 96.900069 
661.000000	 96.994580 
660.000000	 97.071880 
659.000000	 97.140364 
658.000000	 97.210301 
657.000000	 97.260105 
656.000000	 97.281042 
655.000000	 97.292448 
654.000000	 97.295673 
653.000000	 97.262175 
652.000000	 97.192624 
651.000000	 97.142274 
650.000000	 97.148753 

