4000.000000	97.274358 
3999.000000	97.272737 
3998.000000	97.270235 
3997.000000	97.268029 
3996.000000	97.267025 
3995.000000	97.267308 
3994.000000	97.268162 
3993.000000	97.268637 
3992.000000	97.268310 
3991.000000	97.267425 
3990.000000	97.266560 
3989.000000	97.266163 
3988.000000	97.266324 
3987.000000	97.266885 
3986.000000	97.267650 
3985.000000	97.268446 
3984.000000	97.269011 
3983.000000	97.269061 
3982.000000	97.268633 
3981.000000	97.268150 
3980.000000	97.267898 
3979.000000	97.267648 
3978.000000	97.267083 
3977.000000	97.266387 
3976.000000	97.266076 
3975.000000	97.266233 
3974.000000	97.266229 
3973.000000	97.265275 
3972.000000	97.263071 
3971.000000	97.259983 
3970.000000	97.256877 
3969.000000	97.254779 
3968.000000	97.254464 
3967.000000	97.256043 
3966.000000	97.258735 
3965.000000	97.261219 
3964.000000	97.262386 
3963.000000	97.261876 
3962.000000	97.260186 
3961.000000	97.258215 
3960.000000	97.256506 
3959.000000	97.255069 
3958.000000	97.253768 
3957.000000	97.252672 
3956.000000	97.251899 
3955.000000	97.251250 
3954.000000	97.250363 
3953.000000	97.249136 
3952.000000	97.247828 
3951.000000	97.246699 
3950.000000	97.245584 
3949.000000	97.244069 
3948.000000	97.241918 
3947.000000	97.239417 
3946.000000	97.237378 
3945.000000	97.236653 
3944.000000	97.237466 
3943.000000	97.239052 
3942.000000	97.240331 
3941.000000	97.240956 
3940.000000	97.241320 
3939.000000	97.241805 
3938.000000	97.242237 
3937.000000	97.242108 
3936.000000	97.241131 
3935.000000	97.239410 
3934.000000	97.237376 
3933.000000	97.235465 
3932.000000	97.233880 
3931.000000	97.232491 
3930.000000	97.231250 
3929.000000	97.230672 
3928.000000	97.231332 
3927.000000	97.233138 
3926.000000	97.235178 
3925.000000	97.236244 
3924.000000	97.235849 
3923.000000	97.234384 
3922.000000	97.232625 
3921.000000	97.231285 
3920.000000	97.230738 
3919.000000	97.230946 
3918.000000	97.231490 
3917.000000	97.231823 
3916.000000	97.231710 
3915.000000	97.231303 
3914.000000	97.230919 
3913.000000	97.230735 
3912.000000	97.230710 
3911.000000	97.230739 
3910.000000	97.230687 
3909.000000	97.230484 
3908.000000	97.230183 
3907.000000	97.229815 
3906.000000	97.229338 
3905.000000	97.228606 
3904.000000	97.227565 
3903.000000	97.226389 
3902.000000	97.225368 
3901.000000	97.224690 
3900.000000	97.224338 
3899.000000	97.224156 
3898.000000	97.223970 
3897.000000	97.223698 
3896.000000	97.223344 
3895.000000	97.222946 
3894.000000	97.222539 
3893.000000	97.222127 
3892.000000	97.221694 
3891.000000	97.221223 
3890.000000	97.220718 
3889.000000	97.220198 
3888.000000	97.219688 
3887.000000	97.219202 
3886.000000	97.218738 
3885.000000	97.218283 
3884.000000	97.217814 
3883.000000	97.217314 
3882.000000	97.216784 
3881.000000	97.216253 
3880.000000	97.215754 
3879.000000	97.215294 
3878.000000	97.214848 
3877.000000	97.214404 
3876.000000	97.213982 
3875.000000	97.213599 
3874.000000	97.213217 
3873.000000	97.212768 
3872.000000	97.212221 
3871.000000	97.211630 
3870.000000	97.211104 
3869.000000	97.210711 
3868.000000	97.210399 
3867.000000	97.210048 
3866.000000	97.209621 
3865.000000	97.209220 
3864.000000	97.208977 
3863.000000	97.208865 
3862.000000	97.208725 
3861.000000	97.208577 
3860.000000	97.208652 
3859.000000	97.209041 
3858.000000	97.209446 
3857.000000	97.209419 
3856.000000	97.208776 
3855.000000	97.207677 
3854.000000	97.206366 
3853.000000	97.205115 
3852.000000	97.204242 
3851.000000	97.203917 
3850.000000	97.204042 
3849.000000	97.204528 
3848.000000	97.205323 
3847.000000	97.206304 
3846.000000	97.207135 
3845.000000	97.207460 
3844.000000	97.207237 
3843.000000	97.206624 
3842.000000	97.205688 
3841.000000	97.204581 
3840.000000	97.203627 
3839.000000	97.203212 
3838.000000	97.203473 
3837.000000	97.204077 
3836.000000	97.204535 
3835.000000	97.204619 
3834.000000	97.204434 
3833.000000	97.204289 
3832.000000	97.204397 
3831.000000	97.204704 
3830.000000	97.205000 
3829.000000	97.205143 
3828.000000	97.205268 
3827.000000	97.205623 
3826.000000	97.206153 
3825.000000	97.206493 
3824.000000	97.206361 
3823.000000	97.205893 
3822.000000	97.205538 
3821.000000	97.205512 
3820.000000	97.205564 
3819.000000	97.205377 
3818.000000	97.204991 
3817.000000	97.204813 
3816.000000	97.205160 
3815.000000	97.205886 
3814.000000	97.206528 
3813.000000	97.206859 
3812.000000	97.207082 
3811.000000	97.207547 
3810.000000	97.208272 
3809.000000	97.208847 
3808.000000	97.208946 
3807.000000	97.208680 
3806.000000	97.208270 
3805.000000	97.207573 
3804.000000	97.206356 
3803.000000	97.205173 
3802.000000	97.205081 
3801.000000	97.206209 
3800.000000	97.207324 
3799.000000	97.207259 
3798.000000	97.206315 
3797.000000	97.205988 
3796.000000	97.207247 
3795.000000	97.209405 
3794.000000	97.210945 
3793.000000	97.211318 
3792.000000	97.211318 
3791.000000	97.212029 
3790.000000	97.213464 
3789.000000	97.214597 
3788.000000	97.214689 
3787.000000	97.213948 
3786.000000	97.213052 
3785.000000	97.212379 
3784.000000	97.211739 
3783.000000	97.210632 
3782.000000	97.208689 
3781.000000	97.206379 
3780.000000	97.205217 
3779.000000	97.206575 
3778.000000	97.209939 
3777.000000	97.213309 
3776.000000	97.215316 
3775.000000	97.216232 
3774.000000	97.216751 
3773.000000	97.216576 
3772.000000	97.215144 
3771.000000	97.212753 
3770.000000	97.210299 
3769.000000	97.208244 
3768.000000	97.206140 
3767.000000	97.203608 
3766.000000	97.201566 
3765.000000	97.201089 
3764.000000	97.201847 
3763.000000	97.202149 
3762.000000	97.200999 
3761.000000	97.199263 
3760.000000	97.198017 
3759.000000	97.197418 
3758.000000	97.196030 
3757.000000	97.192059 
3756.000000	97.185029 
3755.000000	97.175456 
3754.000000	97.164834 
3753.000000	97.155181 
3752.000000	97.147760 
3751.000000	97.142319 
3750.000000	97.138310 
3749.000000	97.136773 
3748.000000	97.137999 
3747.000000	97.140335 
3746.000000	97.143447 
3745.000000	97.148384 
3744.000000	97.155856 
3743.000000	97.161904 
3742.000000	97.160420 
3741.000000	97.151144 
3740.000000	97.140760 
3739.000000	97.137372 
3738.000000	97.143019 
3737.000000	97.152245 
3736.000000	97.160017 
3735.000000	97.165923 
3734.000000	97.170406 
3733.000000	97.171766 
3732.000000	97.169642 
3731.000000	97.166322 
3730.000000	97.162464 
3729.000000	97.157052 
3728.000000	97.151493 
3727.000000	97.149048 
3726.000000	97.149978 
3725.000000	97.150494 
3724.000000	97.148601 
3723.000000	97.146633 
3722.000000	97.146973 
3721.000000	97.148258 
3720.000000	97.145945 
3719.000000	97.138248 
3718.000000	97.127882 
3717.000000	97.117741 
3716.000000	97.108974 
3715.000000	97.100667 
3714.000000	97.091875 
3713.000000	97.083075 
3712.000000	97.074717 
3711.000000	97.066891 
3710.000000	97.059141 
3709.000000	97.051717 
3708.000000	97.044615 
3707.000000	97.036050 
3706.000000	97.024024 
3705.000000	97.008603 
3704.000000	96.992399 
3703.000000	96.977769 
3702.000000	96.963440 
3701.000000	96.945748 
3700.000000	96.923185 
3699.000000	96.898541 
3698.000000	96.877600 
3697.000000	96.864130 
3696.000000	96.857365 
3695.000000	96.853123 
3694.000000	96.847945 
3693.000000	96.842235 
3692.000000	96.838854 
3691.000000	96.839530 
3690.000000	96.841231 
3689.000000	96.839859 
3688.000000	96.835378 
3687.000000	96.829947 
3686.000000	96.824042 
3685.000000	96.817644 
3684.000000	96.811612 
3683.000000	96.806612 
3682.000000	96.801127 
3681.000000	96.791600 
3680.000000	96.775531 
3679.000000	96.751671 
3678.000000	96.721102 
3677.000000	96.688200 
3676.000000	96.658934 
3675.000000	96.636779 
3674.000000	96.618362 
3673.000000	96.597508 
3672.000000	96.573335 
3671.000000	96.552177 
3670.000000	96.537443 
3669.000000	96.522979 
3668.000000	96.501910 
3667.000000	96.475096 
3666.000000	96.449059 
3665.000000	96.428608 
3664.000000	96.412210 
3663.000000	96.395373 
3662.000000	96.374993 
3661.000000	96.350119 
3660.000000	96.320702 
3659.000000	96.286465 
3658.000000	96.248635 
3657.000000	96.210412 
3656.000000	96.175314 
3655.000000	96.144895 
3654.000000	96.117328 
3653.000000	96.089482 
3652.000000	96.058512 
3651.000000	96.021264 
3650.000000	95.975338 
3649.000000	95.924873 
3648.000000	95.881692 
3647.000000	95.854096 
3646.000000	95.840322 
3645.000000	95.833596 
3644.000000	95.828038 
3643.000000	95.820107 
3642.000000	95.806811 
3641.000000	95.785682 
3640.000000	95.757660 
3639.000000	95.727529 
3638.000000	95.700137 
3637.000000	95.675661 
3636.000000	95.650273 
3635.000000	95.620904 
3634.000000	95.588127 
3633.000000	95.554184 
3632.000000	95.519492 
3631.000000	95.482864 
3630.000000	95.444533 
3629.000000	95.407953 
3628.000000	95.377648 
3627.000000	95.356336 
3626.000000	95.343602 
3625.000000	95.338372 
3624.000000	95.339595 
3623.000000	95.344781 
3622.000000	95.350460 
3621.000000	95.353655 
3620.000000	95.351444 
3619.000000	95.342368 
3618.000000	95.329947 
3617.000000	95.321694 
3616.000000	95.324284 
3615.000000	95.339456 
3614.000000	95.362917 
3613.000000	95.387384 
3612.000000	95.407774 
3611.000000	95.423293 
3610.000000	95.436184 
3609.000000	95.449774 
3608.000000	95.465062 
3607.000000	95.480444 
3606.000000	95.494630 
3605.000000	95.509260 
3604.000000	95.527550 
3603.000000	95.549866 
3602.000000	95.572692 
3601.000000	95.591185 
3600.000000	95.602475 
3599.000000	95.607247 
3598.000000	95.609432 
3597.000000	95.613473 
3596.000000	95.622354 
3595.000000	95.635178 
3594.000000	95.647470 
3593.000000	95.655512 
3592.000000	95.658924 
3591.000000	95.659739 
3590.000000	95.660615 
3589.000000	95.663650 
3588.000000	95.668749 
3587.000000	95.673646 
3586.000000	95.676490 
3585.000000	95.678111 
3584.000000	95.681611 
3583.000000	95.689198 
3582.000000	95.700453 
3581.000000	95.711689 
3580.000000	95.718229 
3579.000000	95.717521 
3578.000000	95.711133 
3577.000000	95.703612 
3576.000000	95.698899 
3575.000000	95.697982 
3574.000000	95.698956 
3573.000000	95.699361 
3572.000000	95.697486 
3571.000000	95.692120 
3570.000000	95.682375 
3569.000000	95.669045 
3568.000000	95.655463 
3567.000000	95.645799 
3566.000000	95.642081 
3565.000000	95.643736 
3564.000000	95.649410 
3563.000000	95.657873 
3562.000000	95.667235 
3561.000000	95.674834 
3560.000000	95.678552 
3559.000000	95.678198 
3558.000000	95.675592 
3557.000000	95.673316 
3556.000000	95.672953 
3555.000000	95.674325 
3554.000000	95.676173 
3553.000000	95.677125 
3552.000000	95.676404 
3551.000000	95.674063 
3550.000000	95.671048 
3549.000000	95.668880 
3548.000000	95.668449 
3547.000000	95.668745 
3546.000000	95.667777 
3545.000000	95.665095 
3544.000000	95.662643 
3543.000000	95.662548 
3542.000000	95.664947 
3541.000000	95.668481 
3540.000000	95.671941 
3539.000000	95.674791 
3538.000000	95.676673 
3537.000000	95.677223 
3536.000000	95.676561 
3535.000000	95.675333 
3534.000000	95.674293 
3533.000000	95.673958 
3532.000000	95.674492 
3531.000000	95.675728 
3530.000000	95.677195 
3529.000000	95.678305 
3528.000000	95.678704 
3527.000000	95.678483 
3526.000000	95.678142 
3525.000000	95.678280 
3524.000000	95.679147 
3523.000000	95.680537 
3522.000000	95.681990 
3521.000000	95.683163 
3520.000000	95.684063 
3519.000000	95.684927 
3518.000000	95.685881 
3517.000000	95.686685 
3516.000000	95.686988 
3515.000000	95.686840 
3514.000000	95.686805 
3513.000000	95.687459 
3512.000000	95.688820 
3511.000000	95.690309 
3510.000000	95.691297 
3509.000000	95.691686 
3508.000000	95.691931 
3507.000000	95.692488 
3506.000000	95.693331 
3505.000000	95.693957 
3504.000000	95.693885 
3503.000000	95.693159 
3502.000000	95.692440 
3501.000000	95.692493 
3500.000000	95.693586 
3499.000000	95.695384 
3498.000000	95.697294 
3497.000000	95.698755 
3496.000000	95.699166 
3495.000000	95.698056 
3494.000000	95.695779 
3493.000000	95.693797 
3492.000000	95.693493 
3491.000000	95.694599 
3490.000000	95.695424 
3489.000000	95.694791 
3488.000000	95.693050 
3487.000000	95.691059 
3486.000000	95.689131 
3485.000000	95.687516 
3484.000000	95.687027 
3483.000000	95.688205 
3482.000000	95.690262 
3481.000000	95.691820 
3480.000000	95.692534 
3479.000000	95.693074 
3478.000000	95.693631 
3477.000000	95.693285 
3476.000000	95.690864 
3475.000000	95.686098 
3474.000000	95.679941 
3473.000000	95.674053 
3472.000000	95.669875 
3471.000000	95.667744 
3470.000000	95.666683 
3469.000000	95.665242 
3468.000000	95.662621 
3467.000000	95.659158 
3466.000000	95.655945 
3465.000000	95.653819 
3464.000000	95.652435 
3463.000000	95.650257 
3462.000000	95.645815 
3461.000000	95.639097 
3460.000000	95.631493 
3459.000000	95.624407 
3458.000000	95.618220 
3457.000000	95.612652 
3456.000000	95.607696 
3455.000000	95.603681 
3454.000000	95.600829 
3453.000000	95.599078 
3452.000000	95.598119 
3451.000000	95.597341 
3450.000000	95.595822 
3449.000000	95.592861 
3448.000000	95.588554 
3447.000000	95.583757 
3446.000000	95.579418 
3445.000000	95.576060 
3444.000000	95.573740 
3443.000000	95.572083 
3442.000000	95.570367 
3441.000000	95.567937 
3440.000000	95.564765 
3439.000000	95.561316 
3438.000000	95.557795 
3437.000000	95.553816 
3436.000000	95.549173 
3435.000000	95.544637 
3434.000000	95.541538 
3433.000000	95.540378 
3432.000000	95.540192 
3431.000000	95.539517 
3430.000000	95.537749 
3429.000000	95.535329 
3428.000000	95.532648 
3427.000000	95.529407 
3426.000000	95.525373 
3425.000000	95.521334 
3424.000000	95.518571 
3423.000000	95.517310 
3422.000000	95.516219 
3421.000000	95.513778 
3420.000000	95.509878 
3419.000000	95.505698 
3418.000000	95.502404 
3417.000000	95.500527 
3416.000000	95.500247 
3415.000000	95.501306 
3414.000000	95.502562 
3413.000000	95.502409 
3412.000000	95.500158 
3411.000000	95.496765 
3410.000000	95.493947 
3409.000000	95.492673 
3408.000000	95.492609 
3407.000000	95.492732 
3406.000000	95.492296 
3405.000000	95.491346 
3404.000000	95.490506 
3403.000000	95.490204 
3402.000000	95.490145 
3401.000000	95.489707 
3400.000000	95.488786 
3399.000000	95.487909 
3398.000000	95.487472 
3397.000000	95.487333 
3396.000000	95.487388 
3395.000000	95.488084 
3394.000000	95.489826 
3393.000000	95.491972 
3392.000000	95.493000 
3391.000000	95.491963 
3390.000000	95.489613 
3389.000000	95.487858 
3388.000000	95.488164 
3387.000000	95.490592 
3386.000000	95.494054 
3385.000000	95.497089 
3384.000000	95.498566 
3383.000000	95.498193 
3382.000000	95.496825 
3381.000000	95.496028 
3380.000000	95.496782 
3379.000000	95.498709 
3378.000000	95.500922 
3377.000000	95.503472 
3376.000000	95.507194 
3375.000000	95.512013 
3374.000000	95.516241 
3373.000000	95.518216 
3372.000000	95.518257 
3371.000000	95.518463 
3370.000000	95.520555 
3369.000000	95.524300 
3368.000000	95.528068 
3367.000000	95.530475 
3366.000000	95.531304 
3365.000000	95.531235 
3364.000000	95.531197 
3363.000000	95.531891 
3362.000000	95.533595 
3361.000000	95.536189 
3360.000000	95.539430 
3359.000000	95.543200 
3358.000000	95.547417 
3357.000000	95.551766 
3356.000000	95.555752 
3355.000000	95.559176 
3354.000000	95.562409 
3353.000000	95.566011 
3352.000000	95.570102 
3351.000000	95.574258 
3350.000000	95.577991 
3349.000000	95.581133 
3348.000000	95.583816 
3347.000000	95.586308 
3346.000000	95.588933 
3345.000000	95.591855 
3344.000000	95.594723 
3343.000000	95.596855 
3342.000000	95.598104 
3341.000000	95.599349 
3340.000000	95.601635 
3339.000000	95.604954 
3338.000000	95.608385 
3337.000000	95.611258 
3336.000000	95.613690 
3335.000000	95.615975 
3334.000000	95.618043 
3333.000000	95.619788 
3332.000000	95.621528 
3331.000000	95.623745 
3330.000000	95.626500 
3329.000000	95.629450 
3328.000000	95.632458 
3327.000000	95.635830 
3326.000000	95.639835 
3325.000000	95.644261 
3324.000000	95.648503 
3323.000000	95.652055 
3322.000000	95.654886 
3321.000000	95.657382 
3320.000000	95.660035 
3319.000000	95.663148 
3318.000000	95.666746 
3317.000000	95.670657 
3316.000000	95.674619 
3315.000000	95.678359 
3314.000000	95.681690 
3313.000000	95.684611 
3312.000000	95.687359 
3311.000000	95.690333 
3310.000000	95.693877 
3309.000000	95.697999 
3308.000000	95.702214 
3307.000000	95.705783 
3306.000000	95.708304 
3305.000000	95.710071 
3304.000000	95.711889 
3303.000000	95.714476 
3302.000000	95.717993 
3301.000000	95.722020 
3300.000000	95.725856 
3299.000000	95.728942 
3298.000000	95.731170 
3297.000000	95.732969 
3296.000000	95.735060 
3295.000000	95.737996 
3294.000000	95.741866 
3293.000000	95.746364 
3292.000000	95.751053 
3291.000000	95.755608 
3290.000000	95.759899 
3289.000000	95.763920 
3288.000000	95.767661 
3287.000000	95.771032 
3286.000000	95.773887 
3285.000000	95.776153 
3284.000000	95.777966 
3283.000000	95.779747 
3282.000000	95.782018 
3281.000000	95.784979 
3280.000000	95.788240 
3279.000000	95.791165 
3278.000000	95.793637 
3277.000000	95.796278 
3276.000000	95.799721 
3275.000000	95.803867 
3274.000000	95.808095 
3273.000000	95.812100 
3272.000000	95.816150 
3271.000000	95.820498 
3270.000000	95.824896 
3269.000000	95.828793 
3268.000000	95.831867 
3267.000000	95.834265 
3266.000000	95.836506 
3265.000000	95.839194 
3264.000000	95.842643 
3263.000000	95.846735 
3262.000000	95.851046 
3261.000000	95.855163 
3260.000000	95.858901 
3259.000000	95.862245 
3258.000000	95.865285 
3257.000000	95.868290 
3256.000000	95.871652 
3255.000000	95.875545 
3254.000000	95.879735 
3253.000000	95.883811 
3252.000000	95.887618 
3251.000000	95.891337 
3250.000000	95.895167 
3249.000000	95.899059 
3248.000000	95.902835 
3247.000000	95.906445 
3246.000000	95.910016 
3245.000000	95.913692 
3244.000000	95.917531 
3243.000000	95.921559 
3242.000000	95.925801 
3241.000000	95.930201 
3240.000000	95.934580 
3239.000000	95.938733 
3238.000000	95.942652 
3237.000000	95.946601 
3236.000000	95.950899 
3235.000000	95.955561 
3234.000000	95.960164 
3233.000000	95.964119 
3232.000000	95.967118 
3231.000000	95.969437 
3230.000000	95.971828 
3229.000000	95.974941 
3228.000000	95.978878 
3227.000000	95.983348 
3226.000000	95.988240 
3225.000000	95.993735 
3224.000000	95.999726 
3223.000000	96.005436 
3222.000000	96.009981 
3221.000000	96.013246 
3220.000000	96.015992 
3219.000000	96.019038 
3218.000000	96.022624 
3217.000000	96.026638 
3216.000000	96.031099 
3215.000000	96.036209 
3214.000000	96.041978 
3213.000000	96.047859 
3212.000000	96.052881 
3211.000000	96.056334 
3210.000000	96.058460 
3209.000000	96.060424 
3208.000000	96.063272 
3207.000000	96.066950 
3206.000000	96.070545 
3205.000000	96.073397 
3204.000000	96.075761 
3203.000000	96.078325 
3202.000000	96.081263 
3201.000000	96.083969 
3200.000000	96.085799 
3199.000000	96.087134 
3198.000000	96.089515 
3197.000000	96.094362 
3196.000000	96.101622 
3195.000000	96.109780 
3194.000000	96.117304 
3193.000000	96.123866 
3192.000000	96.129943 
3191.000000	96.135678 
3190.000000	96.140507 
3189.000000	96.143823 
3188.000000	96.145726 
3187.000000	96.147159 
3186.000000	96.149344 
3185.000000	96.152846 
3184.000000	96.157187 
3183.000000	96.161606 
3182.000000	96.166220 
3181.000000	96.171900 
3180.000000	96.178817 
3179.000000	96.185691 
3178.000000	96.191043 
3177.000000	96.194777 
3176.000000	96.198041 
3175.000000	96.201841 
3174.000000	96.206243 
3173.000000	96.210664 
3172.000000	96.214342 
3171.000000	96.216666 
3170.000000	96.217752 
3169.000000	96.218795 
3168.000000	96.221278 
3167.000000	96.225714 
3166.000000	96.231519 
3165.000000	96.237881 
3164.000000	96.244283 
3163.000000	96.250255 
3162.000000	96.255295 
3161.000000	96.259299 
3160.000000	96.262605 
3159.000000	96.265487 
3158.000000	96.268047 
3157.000000	96.270654 
3156.000000	96.273887 
3155.000000	96.277828 
3154.000000	96.281915 
3153.000000	96.285788 
3152.000000	96.289843 
3151.000000	96.294585 
3150.000000	96.299851 
3149.000000	96.305082 
3148.000000	96.310057 
3147.000000	96.314986 
3146.000000	96.320149 
3145.000000	96.325696 
3144.000000	96.331414 
3143.000000	96.336378 
3142.000000	96.339302 
3141.000000	96.339650 
3140.000000	96.338281 
3139.000000	96.336890 
3138.000000	96.336838 
3137.000000	96.338511 
3136.000000	96.341376 
3135.000000	96.344444 
3134.000000	96.347165 
3133.000000	96.350093 
3132.000000	96.354257 
3131.000000	96.359823 
3130.000000	96.365879 
3129.000000	96.371584 
3128.000000	96.376885 
3127.000000	96.381894 
3126.000000	96.386244 
3125.000000	96.389518 
3124.000000	96.391861 
3123.000000	96.393741 
3122.000000	96.395522 
3121.000000	96.397658 
3120.000000	96.400907 
3119.000000	96.405820 
3118.000000	96.412193 
3117.000000	96.419232 
3116.000000	96.426012 
3115.000000	96.431626 
3114.000000	96.435399 
3113.000000	96.437432 
3112.000000	96.438788 
3111.000000	96.440659 
3110.000000	96.443301 
3109.000000	96.445953 
3108.000000	96.447690 
3107.000000	96.448244 
3106.000000	96.448169 
3105.000000	96.448424 
3104.000000	96.449653 
3103.000000	96.451799 
3102.000000	96.454425 
3101.000000	96.457330 
3100.000000	96.460706 
3099.000000	96.464758 
3098.000000	96.469441 
3097.000000	96.474495 
3096.000000	96.479455 
3095.000000	96.483695 
3094.000000	96.486895 
3093.000000	96.489384 
3092.000000	96.491590 
3091.000000	96.493306 
3090.000000	96.494084 
3089.000000	96.494275 
3088.000000	96.495028 
3087.000000	96.497214 
3086.000000	96.500794 
3085.000000	96.505118 
3084.000000	96.509360 
3083.000000	96.512859 
3082.000000	96.515655 
3081.000000	96.518735 
3080.000000	96.522952 
3079.000000	96.527571 
3078.000000	96.530800 
3077.000000	96.531932 
3076.000000	96.532124 
3075.000000	96.532823 
3074.000000	96.534155 
3073.000000	96.535539 
3072.000000	96.536984 
3071.000000	96.538876 
3070.000000	96.541001 
3069.000000	96.542740 
3068.000000	96.544090 
3067.000000	96.545696 
3066.000000	96.547826 
3065.000000	96.549957 
3064.000000	96.551437 
3063.000000	96.552060 
3062.000000	96.551967 
3061.000000	96.551539 
3060.000000	96.551426 
3059.000000	96.552234 
3058.000000	96.554020 
3057.000000	96.556266 
3056.000000	96.558311 
3055.000000	96.559614 
3054.000000	96.559906 
3053.000000	96.559603 
3052.000000	96.560003 
3051.000000	96.562384 
3050.000000	96.566692 
3049.000000	96.571329 
3048.000000	96.574462 
3047.000000	96.575345 
3046.000000	96.574306 
3045.000000	96.572243 
3044.000000	96.570436 
3043.000000	96.570299 
3042.000000	96.572474 
3041.000000	96.575962 
3040.000000	96.578584 
3039.000000	96.578862 
3038.000000	96.577316 
3037.000000	96.575786 
3036.000000	96.575398 
3035.000000	96.575489 
3034.000000	96.574733 
3033.000000	96.572895 
3032.000000	96.571035 
3031.000000	96.570188 
3030.000000	96.570414 
3029.000000	96.571118 
3028.000000	96.571568 
3027.000000	96.570786 
3026.000000	96.567738 
3025.000000	96.562461 
3024.000000	96.556805 
3023.000000	96.553186 
3022.000000	96.552514 
3021.000000	96.553904 
3020.000000	96.556096 
3019.000000	96.558349 
3018.000000	96.559832 
3017.000000	96.559244 
3016.000000	96.555857 
3015.000000	96.550638 
3014.000000	96.545814 
3013.000000	96.543153 
3012.000000	96.542601 
3011.000000	96.542352 
3010.000000	96.540261 
3009.000000	96.535489 
3008.000000	96.528982 
3007.000000	96.522422 
3006.000000	96.516924 
3005.000000	96.512871 
3004.000000	96.510380 
3003.000000	96.509261 
3002.000000	96.508795 
3001.000000	96.508287 
3000.000000	96.507735 
2999.000000	96.507344 
2998.000000	96.506525 
2997.000000	96.504196 
2996.000000	96.500166 
2995.000000	96.495529 
2994.000000	96.491467 
2993.000000	96.488169 
2992.000000	96.484976 
2991.000000	96.481037 
2990.000000	96.475733 
2989.000000	96.469181 
2988.000000	96.462747 
2987.000000	96.458634 
2986.000000	96.458559 
2985.000000	96.462797 
2984.000000	96.470268 
2983.000000	96.479158 
2982.000000	96.487568 
2981.000000	96.494008 
2980.000000	96.497496 
2979.000000	96.497338 
2978.000000	96.493361 
2977.000000	96.486859 
2976.000000	96.480818 
2975.000000	96.478201 
2974.000000	96.479858 
2973.000000	96.484511 
2972.000000	96.490484 
2971.000000	96.496741 
2970.000000	96.502377 
2969.000000	96.506413 
2968.000000	96.508739 
2967.000000	96.510594 
2966.000000	96.513469 
2965.000000	96.517874 
2964.000000	96.523374 
2963.000000	96.529256 
2962.000000	96.534799 
2961.000000	96.539465 
2960.000000	96.543382 
2959.000000	96.547408 
2958.000000	96.552234 
2957.000000	96.557546 
2956.000000	96.562247 
2955.000000	96.565272 
2954.000000	96.566226 
2953.000000	96.565862 
2952.000000	96.566166 
2951.000000	96.569284 
2950.000000	96.575606 
2949.000000	96.583130 
2948.000000	96.589265 
2947.000000	96.593161 
2946.000000	96.595863 
2945.000000	96.598487 
2944.000000	96.600903 
2943.000000	96.602185 
2942.000000	96.601676 
2941.000000	96.599421 
2940.000000	96.596200 
2939.000000	96.593566 
2938.000000	96.593267 
2937.000000	96.595916 
2936.000000	96.600214 
2935.000000	96.603911 
2934.000000	96.605694 
2933.000000	96.605949 
2932.000000	96.605862 
2931.000000	96.606180 
2930.000000	96.606920 
2929.000000	96.607827 
2928.000000	96.608670 
2927.000000	96.609167 
2926.000000	96.609072 
2925.000000	96.608615 
2924.000000	96.608614 
2923.000000	96.609791 
2922.000000	96.611976 
2921.000000	96.614343 
2920.000000	96.616601 
2919.000000	96.619602 
2918.000000	96.624230 
2917.000000	96.629711 
2916.000000	96.633627 
2915.000000	96.634130 
2914.000000	96.631790 
2913.000000	96.629174 
2912.000000	96.628464 
2911.000000	96.629724 
2910.000000	96.631576 
2909.000000	96.632976 
2908.000000	96.634026 
2907.000000	96.635331 
2906.000000	96.637064 
2905.000000	96.638719 
2904.000000	96.639590 
2903.000000	96.639404 
2902.000000	96.638984 
2901.000000	96.639709 
2900.000000	96.642449 
2899.000000	96.646995 
2898.000000	96.652403 
2897.000000	96.657801 
2896.000000	96.662462 
2895.000000	96.665577 
2894.000000	96.666809 
2893.000000	96.667197 
2892.000000	96.668731 
2891.000000	96.672491 
2890.000000	96.677678 
2889.000000	96.682754 
2888.000000	96.687095 
2887.000000	96.690932 
2886.000000	96.694123 
2885.000000	96.696089 
2884.000000	96.697087 
2883.000000	96.698601 
2882.000000	96.701785 
2881.000000	96.706106 
2880.000000	96.710198 
2879.000000	96.713887 
2878.000000	96.718448 
2877.000000	96.724671 
2876.000000	96.731459 
2875.000000	96.736878 
2874.000000	96.740229 
2873.000000	96.742452 
2872.000000	96.744847 
2871.000000	96.747795 
2870.000000	96.750860 
2869.000000	96.753646 
2868.000000	96.756172 
2867.000000	96.758667 
2866.000000	96.761321 
2865.000000	96.764198 
2864.000000	96.767285 
2863.000000	96.770669 
2862.000000	96.774636 
2861.000000	96.779355 
2860.000000	96.784435 
2859.000000	96.789097 
2858.000000	96.792943 
2857.000000	96.796336 
2856.000000	96.799929 
2855.000000	96.803947 
2854.000000	96.808038 
2853.000000	96.811750 
2852.000000	96.814925 
2851.000000	96.817707 
2850.000000	96.820419 
2849.000000	96.823450 
2848.000000	96.827049 
2847.000000	96.831093 
2846.000000	96.835129 
2845.000000	96.838705 
2844.000000	96.841670 
2843.000000	96.844218 
2842.000000	96.846746 
2841.000000	96.849563 
2840.000000	96.852564 
2839.000000	96.855282 
2838.000000	96.857402 
2837.000000	96.859184 
2836.000000	96.861287 
2835.000000	96.864165 
2834.000000	96.867756 
2833.000000	96.871651 
2832.000000	96.875400 
2831.000000	96.878658 
2830.000000	96.881252 
2829.000000	96.883213 
2828.000000	96.884774 
2827.000000	96.886283 
2826.000000	96.888124 
2825.000000	96.890584 
2824.000000	96.893643 
2823.000000	96.896833 
2822.000000	96.899524 
2821.000000	96.901507 
2820.000000	96.903159 
2819.000000	96.905013 
2818.000000	96.907205 
2817.000000	96.909489 
2816.000000	96.911631 
2815.000000	96.913623 
2814.000000	96.915516 
2813.000000	96.917242 
2812.000000	96.918665 
2811.000000	96.919759 
2810.000000	96.920718 
2809.000000	96.921915 
2808.000000	96.923707 
2807.000000	96.926204 
2806.000000	96.929205 
2805.000000	96.932297 
2804.000000	96.935045 
2803.000000	96.937138 
2802.000000	96.938494 
2801.000000	96.939376 
2800.000000	96.940321 
2799.000000	96.941759 
2798.000000	96.943677 
2797.000000	96.945682 
2796.000000	96.947377 
2795.000000	96.948667 
2794.000000	96.949764 
2793.000000	96.950967 
2792.000000	96.952444 
2791.000000	96.954151 
2790.000000	96.955868 
2789.000000	96.957330 
2788.000000	96.958407 
2787.000000	96.959167 
2786.000000	96.959826 
2785.000000	96.960624 
2784.000000	96.961708 
2783.000000	96.963105 
2782.000000	96.964726 
2781.000000	96.966436 
2780.000000	96.968198 
2779.000000	96.970134 
2778.000000	96.972361 
2777.000000	96.974752 
2776.000000	96.976884 
2775.000000	96.978370 
2774.000000	96.979218 
2773.000000	96.979800 
2772.000000	96.980471 
2771.000000	96.981325 
2770.000000	96.982373 
2769.000000	96.983753 
2768.000000	96.985566 
2767.000000	96.987622 
2766.000000	96.989531 
2765.000000	96.991079 
2764.000000	96.992393 
2763.000000	96.993721 
2762.000000	96.995147 
2761.000000	96.996568 
2760.000000	96.997860 
2759.000000	96.999047 
2758.000000	97.000261 
2757.000000	97.001530 
2756.000000	97.002644 
2755.000000	97.003390 
2754.000000	97.003933 
2753.000000	97.004784 
2752.000000	97.006273 
2751.000000	97.008238 
2750.000000	97.010271 
2749.000000	97.012140 
2748.000000	97.013729 
2747.000000	97.014772 
2746.000000	97.015069 
2745.000000	97.014937 
2744.000000	97.015112 
2743.000000	97.015982 
2742.000000	97.017282 
2741.000000	97.018497 
2740.000000	97.019424 
2739.000000	97.020199 
2738.000000	97.020965 
2737.000000	97.021733 
2736.000000	97.022498 
2735.000000	97.023308 
2734.000000	97.024207 
2733.000000	97.025232 
2732.000000	97.026442 
2731.000000	97.027872 
2730.000000	97.029455 
2729.000000	97.031037 
2728.000000	97.032430 
2727.000000	97.033452 
2726.000000	97.034011 
2725.000000	97.034272 
2724.000000	97.034619 
2723.000000	97.035301 
2722.000000	97.036195 
2721.000000	97.037003 
2720.000000	97.037635 
2719.000000	97.038276 
2718.000000	97.039083 
2717.000000	97.039991 
2716.000000	97.040887 
2715.000000	97.041827 
2714.000000	97.042962 
2713.000000	97.044276 
2712.000000	97.045492 
2711.000000	97.046299 
2710.000000	97.046630 
2709.000000	97.046751 
2708.000000	97.047042 
2707.000000	97.047701 
2706.000000	97.048679 
2705.000000	97.049818 
2704.000000	97.050934 
2703.000000	97.051812 
2702.000000	97.052308 
2701.000000	97.052579 
2700.000000	97.053127 
2699.000000	97.054375 
2698.000000	97.056187 
2697.000000	97.057857 
2696.000000	97.058727 
2695.000000	97.058763 
2694.000000	97.058493 
2693.000000	97.058432 
2692.000000	97.058566 
2691.000000	97.058549 
2690.000000	97.058255 
2689.000000	97.057971 
2688.000000	97.057997 
2687.000000	97.058234 
2686.000000	97.058404 
2685.000000	97.058523 
2684.000000	97.058866 
2683.000000	97.059511 
2682.000000	97.060180 
2681.000000	97.060572 
2680.000000	97.060658 
2679.000000	97.060550 
2678.000000	97.060293 
2677.000000	97.059955 
2676.000000	97.059709 
2675.000000	97.059605 
2674.000000	97.059459 
2673.000000	97.059154 
2672.000000	97.058858 
2671.000000	97.058713 
2670.000000	97.058539 
2669.000000	97.058151 
2668.000000	97.057779 
2667.000000	97.057754 
2666.000000	97.057865 
2665.000000	97.057473 
2664.000000	97.056338 
2663.000000	97.054963 
2662.000000	97.054053 
2661.000000	97.053761 
2660.000000	97.053687 
2659.000000	97.053400 
2658.000000	97.052835 
2657.000000	97.052213 
2656.000000	97.051748 
2655.000000	97.051446 
2654.000000	97.051096 
2653.000000	97.050468 
2652.000000	97.049571 
2651.000000	97.048747 
2650.000000	97.048390 
2649.000000	97.048570 
2648.000000	97.048935 
2647.000000	97.048980 
2646.000000	97.048396 
2645.000000	97.047146 
2644.000000	97.045429 
2643.000000	97.043686 
2642.000000	97.042466 
2641.000000	97.042069 
2640.000000	97.042316 
2639.000000	97.042716 
2638.000000	97.042946 
2637.000000	97.043049 
2636.000000	97.043197 
2635.000000	97.043504 
2634.000000	97.044046 
2633.000000	97.044803 
2632.000000	97.045467 
2631.000000	97.045528 
2630.000000	97.044749 
2629.000000	97.043477 
2628.000000	97.042336 
2627.000000	97.041659 
2626.000000	97.041414 
2625.000000	97.041570 
2624.000000	97.042227 
2623.000000	97.043348 
2622.000000	97.044562 
2621.000000	97.045338 
2620.000000	97.045286 
2619.000000	97.044308 
2618.000000	97.042728 
2617.000000	97.041286 
2616.000000	97.040624 
2615.000000	97.040727 
2614.000000	97.040999 
2613.000000	97.040980 
2612.000000	97.040800 
2611.000000	97.040834 
2610.000000	97.041231 
2609.000000	97.041938 
2608.000000	97.042909 
2607.000000	97.044055 
2606.000000	97.045159 
2605.000000	97.045999 
2604.000000	97.046413 
2603.000000	97.046259 
2602.000000	97.045647 
2601.000000	97.045202 
2600.000000	97.045602 
2599.000000	97.046693 
2598.000000	97.047514 
2597.000000	97.047428 
2596.000000	97.046719 
2595.000000	97.045797 
2594.000000	97.044413 
2593.000000	97.042407 
2592.000000	97.040827 
2591.000000	97.041126 
2590.000000	97.043374 
2589.000000	97.046001 
2588.000000	97.047633 
2587.000000	97.048564 
2586.000000	97.049869 
2585.000000	97.051872 
2584.000000	97.053931 
2583.000000	97.055264 
2582.000000	97.055501 
2581.000000	97.054772 
2580.000000	97.053626 
2579.000000	97.052704 
2578.000000	97.052314 
2577.000000	97.052341 
2576.000000	97.052457 
2575.000000	97.052259 
2574.000000	97.051467 
2573.000000	97.050315 
2572.000000	97.049493 
2571.000000	97.049303 
2570.000000	97.049271 
2569.000000	97.049082 
2568.000000	97.049478 
2567.000000	97.051281 
2566.000000	97.053859 
2565.000000	97.055666 
2564.000000	97.056257 
2563.000000	97.056737 
2562.000000	97.058027 
2561.000000	97.059749 
2560.000000	97.061291 
2559.000000	97.063032 
2558.000000	97.065627 
2557.000000	97.068601 
2556.000000	97.070705 
2555.000000	97.071522 
2554.000000	97.071822 
2553.000000	97.072230 
2552.000000	97.072382 
2551.000000	97.071894 
2550.000000	97.071404 
2549.000000	97.071694 
2548.000000	97.072123 
2547.000000	97.071159 
2546.000000	97.068661 
2545.000000	97.066577 
2544.000000	97.066525 
2543.000000	97.067466 
2542.000000	97.067029 
2541.000000	97.064885 
2540.000000	97.063386 
2539.000000	97.064470 
2538.000000	97.067329 
2537.000000	97.069737 
2536.000000	97.070932 
2535.000000	97.071933 
2534.000000	97.073356 
2533.000000	97.074362 
2532.000000	97.074161 
2531.000000	97.073437 
2530.000000	97.073433 
2529.000000	97.074092 
2528.000000	97.074133 
2527.000000	97.073046 
2526.000000	97.072234 
2525.000000	97.073598 
2524.000000	97.077377 
2523.000000	97.081847 
2522.000000	97.085078 
2521.000000	97.086401 
2520.000000	97.086003 
2519.000000	97.084014 
2518.000000	97.080613 
2517.000000	97.076507 
2516.000000	97.072560 
2515.000000	97.069189 
2514.000000	97.066724 
2513.000000	97.065902 
2512.000000	97.067098 
2511.000000	97.069410 
2510.000000	97.071518 
2509.000000	97.073295 
2508.000000	97.075436 
2507.000000	97.077789 
2506.000000	97.079521 
2505.000000	97.081000 
2504.000000	97.083785 
2503.000000	97.088101 
2502.000000	97.091700 
2501.000000	97.092356 
2500.000000	97.090450 
2499.000000	97.088230 
2498.000000	97.087217 
2497.000000	97.087311 
2496.000000	97.088079 
2495.000000	97.089449 
2494.000000	97.091132 
2493.000000	97.092511 
2492.000000	97.093554 
2491.000000	97.095135 
2490.000000	97.097971 
2489.000000	97.101577 
2488.000000	97.104495 
2487.000000	97.105501 
2486.000000	97.104450 
2485.000000	97.102241 
2484.000000	97.100166 
2483.000000	97.099111 
2482.000000	97.099279 
2481.000000	97.100448 
2480.000000	97.102189 
2479.000000	97.103937 
2478.000000	97.105328 
2477.000000	97.106606 
2476.000000	97.108214 
2475.000000	97.109842 
2474.000000	97.110492 
2473.000000	97.109827 
2472.000000	97.108767 
2471.000000	97.108237 
2470.000000	97.107951 
2469.000000	97.107211 
2468.000000	97.106400 
2467.000000	97.106674 
2466.000000	97.108302 
2465.000000	97.110204 
2464.000000	97.111297 
2463.000000	97.111643 
2462.000000	97.112119 
2461.000000	97.113564 
2460.000000	97.116382 
2459.000000	97.120215 
2458.000000	97.123600 
2457.000000	97.124600 
2456.000000	97.122233 
2455.000000	97.117304 
2454.000000	97.111863 
2453.000000	97.107573 
2452.000000	97.104638 
2451.000000	97.102332 
2450.000000	97.100403 
2449.000000	97.099637 
2448.000000	97.100745 
2447.000000	97.103049 
2446.000000	97.104858 
2445.000000	97.105148 
2444.000000	97.104296 
2443.000000	97.103382 
2442.000000	97.103553 
2441.000000	97.105838 
2440.000000	97.110486 
2439.000000	97.116062 
2438.000000	97.120194 
2437.000000	97.121823 
2436.000000	97.121909 
2435.000000	97.121895 
2434.000000	97.122354 
2433.000000	97.123370 
2432.000000	97.125193 
2431.000000	97.127837 
2430.000000	97.130684 
2429.000000	97.133073 
2428.000000	97.134841 
2427.000000	97.135957 
2426.000000	97.136114 
2425.000000	97.135064 
2424.000000	97.133019 
2423.000000	97.130567 
2422.000000	97.128588 
2421.000000	97.128123 
2420.000000	97.129727 
2419.000000	97.132698 
2418.000000	97.135240 
2417.000000	97.136358 
2416.000000	97.136845 
2415.000000	97.137893 
2414.000000	97.139585 
2413.000000	97.141602 
2412.000000	97.144364 
2411.000000	97.148077 
2410.000000	97.151542 
2409.000000	97.153418 
2408.000000	97.154054 
2407.000000	97.154718 
2406.000000	97.155487 
2405.000000	97.155134 
2404.000000	97.152852 
2403.000000	97.149096 
2402.000000	97.145256 
2401.000000	97.143470 
2400.000000	97.145929 
2399.000000	97.152881 
2398.000000	97.161613 
2397.000000	97.168600 
2396.000000	97.172355 
2395.000000	97.173371 
2394.000000	97.172320 
2393.000000	97.169856 
2392.000000	97.167512 
2391.000000	97.166761 
2390.000000	97.166869 
2389.000000	97.165578 
2388.000000	97.162053 
2387.000000	97.157702 
2386.000000	97.154165 
2385.000000	97.152064 
2384.000000	97.151614 
2383.000000	97.153223 
2382.000000	97.157302 
2381.000000	97.164289 
2380.000000	97.174767 
2379.000000	97.188394 
2378.000000	97.202238 
2377.000000	97.211221 
2376.000000	97.211896 
2375.000000	97.205132 
2374.000000	97.194909 
2373.000000	97.184988 
2372.000000	97.177190 
2371.000000	97.172251 
2370.000000	97.170342 
2369.000000	97.170289 
2368.000000	97.169775 
2367.000000	97.167459 
2366.000000	97.164371 
2365.000000	97.162275 
2364.000000	97.161376 
2363.000000	97.160637 
2362.000000	97.158965 
2361.000000	97.156189 
2360.000000	97.152827 
2359.000000	97.149178 
2358.000000	97.145956 
2357.000000	97.143776 
2356.000000	97.142291 
2355.000000	97.140675 
2354.000000	97.138249 
2353.000000	97.134581 
2352.000000	97.129118 
2351.000000	97.122295 
2350.000000	97.116017 
2349.000000	97.111943 
2348.000000	97.110575 
2347.000000	97.110636 
2346.000000	97.109559 
2345.000000	97.105811 
2344.000000	97.099839 
2343.000000	97.093604 
2342.000000	97.088367 
2341.000000	97.084751 
2340.000000	97.082606 
2339.000000	97.080993 
2338.000000	97.078781 
2337.000000	97.075565 
2336.000000	97.071516 
2335.000000	97.067102 
2334.000000	97.062676 
2333.000000	97.058683 
2332.000000	97.054636 
2331.000000	97.049626 
2330.000000	97.043057 
2329.000000	97.033586 
2328.000000	97.021407 
2327.000000	97.007569 
2326.000000	96.995137 
2325.000000	96.986515 
2324.000000	96.982339 
2323.000000	96.982776 
2322.000000	96.985594 
2321.000000	96.988145 
2320.000000	96.987875 
2319.000000	96.986125 
2318.000000	96.985633 
2317.000000	96.987867 
2316.000000	96.991393 
2315.000000	96.993334 
2314.000000	96.991685 
2313.000000	96.986277 
2312.000000	96.979387 
2311.000000	96.974005 
2310.000000	96.972158 
2309.000000	96.972770 
2308.000000	96.973687 
2307.000000	96.974076 
2306.000000	96.974697 
2305.000000	96.975484 
2304.000000	96.975195 
2303.000000	96.973841 
2302.000000	96.972756 
2301.000000	96.972611 
2300.000000	96.973026 
2299.000000	96.973060 
2298.000000	96.972238 
2297.000000	96.970397 
2296.000000	96.968780 
2295.000000	96.968994 
2294.000000	96.971949 
2293.000000	96.976623 
2292.000000	96.981812 
2291.000000	96.987644 
2290.000000	96.994900 
2289.000000	97.002984 
2288.000000	97.009619 
2287.000000	97.012937 
2286.000000	97.013047 
2285.000000	97.012011 
2284.000000	97.012280 
2283.000000	97.015247 
2282.000000	97.020469 
2281.000000	97.026393 
2280.000000	97.031404 
2279.000000	97.034382 
2278.000000	97.034823 
2277.000000	97.033501 
2276.000000	97.032397 
2275.000000	97.033292 
2274.000000	97.036679 
2273.000000	97.042041 
2272.000000	97.048678 
2271.000000	97.055398 
2270.000000	97.060417 
2269.000000	97.063021 
2268.000000	97.064912 
2267.000000	97.068517 
2266.000000	97.073748 
2265.000000	97.077835 
2264.000000	97.078603 
2263.000000	97.076189 
2262.000000	97.072008 
2261.000000	97.067511 
2260.000000	97.064095 
2259.000000	97.062547 
2258.000000	97.062058 
2257.000000	97.061435 
2256.000000	97.061305 
2255.000000	97.063624 
2254.000000	97.068480 
2253.000000	97.073013 
2252.000000	97.074421 
2251.000000	97.072520 
2250.000000	97.068731 
2249.000000	97.064171 
2248.000000	97.059946 
2247.000000	97.057761 
2246.000000	97.058436 
2245.000000	97.060377 
2244.000000	97.060717 
2243.000000	97.058357 
2242.000000	97.054847 
2241.000000	97.052583 
2240.000000	97.052703 
2239.000000	97.054848 
2238.000000	97.057812 
2237.000000	97.060160 
2236.000000	97.061052 
2235.000000	97.060676 
2234.000000	97.059771 
2233.000000	97.058831 
2232.000000	97.057948 
2231.000000	97.057196 
2230.000000	97.056642 
2229.000000	97.056064 
2228.000000	97.055147 
2227.000000	97.053980 
2226.000000	97.052979 
2225.000000	97.052287 
2224.000000	97.051586 
2223.000000	97.050582 
2222.000000	97.049424 
2221.000000	97.048485 
2220.000000	97.047821 
2219.000000	97.047146 
2218.000000	97.046234 
2217.000000	97.045178 
2216.000000	97.044259 
2215.000000	97.043608 
2214.000000	97.043070 
2213.000000	97.042394 
2212.000000	97.041514 
2211.000000	97.040617 
2210.000000	97.039947 
2209.000000	97.039576 
2208.000000	97.039386 
2207.000000	97.039170 
2206.000000	97.038791 
2205.000000	97.038244 
2204.000000	97.037583 
2203.000000	97.036913 
2202.000000	97.036552 
2201.000000	97.036901 
2200.000000	97.037726 
2199.000000	97.037927 
2198.000000	97.036651 
2197.000000	97.034406 
2196.000000	97.032703 
2195.000000	97.032160 
2194.000000	97.031714 
2193.000000	97.030244 
2192.000000	97.028211 
2191.000000	97.026637 
2190.000000	97.025316 
2189.000000	97.023735 
2188.000000	97.023044 
2187.000000	97.024688 
2186.000000	97.027172 
2185.000000	97.026955 
2184.000000	97.023881 
2183.000000	97.023154 
2182.000000	97.029531 
2181.000000	97.041141 
2180.000000	97.050511 
2179.000000	97.052313 
2178.000000	97.047830 
2177.000000	97.042708 
2176.000000	97.041660 
2175.000000	97.045344 
2174.000000	97.051135 
2173.000000	97.055815 
2172.000000	97.058086 
2171.000000	97.058916 
2170.000000	97.059462 
2169.000000	97.059178 
2168.000000	97.056951 
2167.000000	97.053793 
2166.000000	97.052582 
2165.000000	97.054110 
2164.000000	97.054955 
2163.000000	97.051631 
2162.000000	97.047010 
2161.000000	97.050061 
2160.000000	97.067449 
2159.000000	97.096209 
2158.000000	97.125225 
2157.000000	97.145512 
2156.000000	97.156672 
2155.000000	97.163116 
2154.000000	97.168164 
2153.000000	97.172611 
2152.000000	97.175777 
2151.000000	97.175503 
2150.000000	97.169185 
2149.000000	97.157835 
2148.000000	97.147940 
2147.000000	97.145939 
2146.000000	97.151223 
2145.000000	97.157374 
2144.000000	97.160380 
2143.000000	97.162514 
2142.000000	97.167179 
2141.000000	97.173425 
2140.000000	97.178002 
2139.000000	97.180729 
2138.000000	97.185034 
2137.000000	97.193398 
2136.000000	97.203980 
2135.000000	97.211745 
2134.000000	97.212310 
2133.000000	97.205610 
2132.000000	97.196747 
2131.000000	97.192048 
2130.000000	97.193569 
2129.000000	97.198034 
2128.000000	97.200933 
2127.000000	97.200476 
2126.000000	97.197373 
2125.000000	97.192659 
2124.000000	97.187057 
2123.000000	97.181387 
2122.000000	97.176193 
2121.000000	97.171030 
2120.000000	97.164741 
2119.000000	97.156394 
2118.000000	97.146100 
2117.000000	97.135541 
2116.000000	97.127159 
2115.000000	97.121921 
2114.000000	97.118077 
2113.000000	97.113272 
2112.000000	97.108321 
2111.000000	97.106995 
2110.000000	97.111416 
2109.000000	97.119389 
2108.000000	97.126661 
2107.000000	97.130467 
2106.000000	97.130417 
2105.000000	97.127867 
2104.000000	97.125609 
2103.000000	97.126302 
2102.000000	97.129488 
2101.000000	97.131276 
2100.000000	97.128570 
2099.000000	97.122883 
2098.000000	97.118833 
2097.000000	97.119354 
2096.000000	97.123589 
2095.000000	97.128600 
2094.000000	97.131626 
2093.000000	97.131214 
2092.000000	97.127528 
2091.000000	97.122234 
2090.000000	97.117733 
2089.000000	97.115596 
2088.000000	97.115603 
2087.000000	97.116129 
2086.000000	97.115431 
2085.000000	97.112925 
2084.000000	97.109453 
2083.000000	97.106481 
2082.000000	97.104804 
2081.000000	97.104083 
2080.000000	97.103664 
2079.000000	97.103481 
2078.000000	97.103719 
2077.000000	97.103892 
2076.000000	97.103158 
2075.000000	97.101607 
2074.000000	97.100311 
2073.000000	97.099736 
2072.000000	97.098939 
2071.000000	97.096901 
2070.000000	97.094143 
2069.000000	97.092362 
2068.000000	97.092533 
2067.000000	97.094032 
2066.000000	97.095466 
2065.000000	97.095791 
2064.000000	97.094594 
2063.000000	97.092112 
2062.000000	97.089571 
2061.000000	97.088804 
2060.000000	97.090737 
2059.000000	97.094624 
2058.000000	97.098678 
2057.000000	97.101322 
2056.000000	97.101506 
2055.000000	97.098468 
2054.000000	97.092407 
2053.000000	97.085337 
2052.000000	97.080202 
2051.000000	97.078529 
2050.000000	97.079612 
2049.000000	97.081937 
2048.000000	97.084952 
2047.000000	97.088961 
2046.000000	97.093583 
2045.000000	97.097372 
2044.000000	97.099205 
2043.000000	97.099436 
2042.000000	97.099501 
2041.000000	97.100715 
2040.000000	97.103456 
2039.000000	97.107310 
2038.000000	97.111449 
2037.000000	97.114916 
2036.000000	97.117185 
2035.000000	97.118656 
2034.000000	97.120479 
2033.000000	97.123621 
2032.000000	97.127921 
2031.000000	97.132038 
2030.000000	97.134410 
2029.000000	97.134487 
2028.000000	97.133140 
2027.000000	97.131846 
2026.000000	97.131456 
2025.000000	97.131995 
2024.000000	97.133414 
2023.000000	97.136051 
2022.000000	97.140093 
2021.000000	97.144565 
2020.000000	97.147359 
2019.000000	97.146941 
2018.000000	97.143664 
2017.000000	97.139731 
2016.000000	97.137461 
2015.000000	97.137438 
2014.000000	97.138505 
2013.000000	97.138903 
2012.000000	97.137929 
2011.000000	97.136687 
2010.000000	97.137004 
2009.000000	97.139505 
2008.000000	97.142954 
2007.000000	97.145535 
2006.000000	97.146536 
2005.000000	97.146302 
2004.000000	97.145301 
2003.000000	97.144082 
2002.000000	97.143777 
2001.000000	97.145177 
2000.000000	97.146938 
1999.000000	97.146029 
1998.000000	97.140788 
1997.000000	97.132999 
1996.000000	97.126683 
1995.000000	97.124424 
1994.000000	97.125839 
1993.000000	97.128546 
1992.000000	97.130095 
1991.000000	97.129615 
1990.000000	97.128202 
1989.000000	97.127780 
1988.000000	97.128831 
1987.000000	97.129240 
1986.000000	97.126321 
1985.000000	97.120114 
1984.000000	97.113532 
1983.000000	97.108839 
1982.000000	97.105610 
1981.000000	97.103078 
1980.000000	97.102754 
1979.000000	97.106560 
1978.000000	97.113302 
1977.000000	97.119298 
1976.000000	97.122628 
1975.000000	97.124909 
1974.000000	97.128754 
1973.000000	97.135006 
1972.000000	97.142175 
1971.000000	97.147411 
1970.000000	97.148129 
1969.000000	97.143801 
1968.000000	97.136533 
1967.000000	97.129588 
1966.000000	97.125404 
1965.000000	97.124986 
1964.000000	97.128371 
1963.000000	97.134814 
1962.000000	97.142820 
1961.000000	97.150367 
1960.000000	97.155077 
1959.000000	97.154941 
1958.000000	97.150278 
1957.000000	97.144871 
1956.000000	97.143090 
1955.000000	97.145329 
1954.000000	97.148038 
1953.000000	97.148354 
1952.000000	97.146731 
1951.000000	97.144692 
1950.000000	97.142618 
1949.000000	97.141070 
1948.000000	97.141644 
1947.000000	97.144632 
1946.000000	97.147518 
1945.000000	97.147733 
1944.000000	97.145749 
1943.000000	97.143860 
1942.000000	97.142814 
1941.000000	97.141470 
1940.000000	97.139227 
1939.000000	97.136737 
1938.000000	97.134751 
1937.000000	97.133722 
1936.000000	97.133952 
1935.000000	97.135025 
1934.000000	97.135557 
1933.000000	97.134739 
1932.000000	97.133745 
1931.000000	97.134340 
1930.000000	97.136379 
1929.000000	97.137898 
1928.000000	97.137809 
1927.000000	97.136987 
1926.000000	97.136391 
1925.000000	97.135427 
1924.000000	97.133114 
1923.000000	97.129859 
1922.000000	97.126922 
1921.000000	97.124752 
1920.000000	97.123142 
1919.000000	97.122128 
1918.000000	97.121490 
1917.000000	97.120162 
1916.000000	97.117564 
1915.000000	97.114951 
1914.000000	97.114073 
1913.000000	97.115081 
1912.000000	97.116406 
1911.000000	97.116630 
1910.000000	97.115547 
1909.000000	97.113706 
1908.000000	97.111858 
1907.000000	97.110549 
1906.000000	97.109414 
1905.000000	97.107004 
1904.000000	97.102360 
1903.000000	97.096674 
1902.000000	97.092338 
1901.000000	97.090352 
1900.000000	97.089922 
1899.000000	97.090140 
1898.000000	97.090772 
1897.000000	97.091372 
1896.000000	97.090729 
1895.000000	97.087884 
1894.000000	97.083120 
1893.000000	97.077593 
1892.000000	97.072662 
1891.000000	97.069598 
1890.000000	97.068974 
1889.000000	97.069983 
1888.000000	97.071301 
1887.000000	97.072764 
1886.000000	97.074769 
1885.000000	97.076209 
1884.000000	97.074887 
1883.000000	97.070453 
1882.000000	97.065729 
1881.000000	97.064095 
1880.000000	97.066179 
1879.000000	97.069447 
1878.000000	97.070651 
1877.000000	97.068979 
1876.000000	97.066562 
1875.000000	97.066185 
1874.000000	97.068792 
1873.000000	97.073049 
1872.000000	97.076924 
1871.000000	97.079327 
1870.000000	97.080232 
1869.000000	97.080260 
1868.000000	97.080371 
1867.000000	97.081401 
1866.000000	97.083072 
1865.000000	97.083845 
1864.000000	97.082988 
1863.000000	97.082068 
1862.000000	97.083147 
1861.000000	97.086159 
1860.000000	97.089354 
1859.000000	97.092146 
1858.000000	97.095701 
1857.000000	97.100513 
1856.000000	97.105539 
1855.000000	97.109881 
1854.000000	97.113309 
1853.000000	97.115529 
1852.000000	97.116872 
1851.000000	97.118830 
1850.000000	97.122523 
1849.000000	97.127189 
1848.000000	97.131100 
1847.000000	97.133724 
1846.000000	97.135884 
1845.000000	97.138211 
1844.000000	97.140364 
1843.000000	97.141901 
1842.000000	97.142775 
1841.000000	97.143216 
1840.000000	97.144355 
1839.000000	97.147550 
1838.000000	97.152233 
1837.000000	97.155507 
1836.000000	97.155498 
1835.000000	97.153931 
1834.000000	97.153967 
1833.000000	97.156292 
1832.000000	97.159164 
1831.000000	97.160742 
1830.000000	97.160712 
1829.000000	97.160233 
1828.000000	97.160567 
1827.000000	97.162042 
1826.000000	97.164365 
1825.000000	97.167075 
1824.000000	97.169536 
1823.000000	97.171204 
1822.000000	97.171980 
1821.000000	97.171852 
1820.000000	97.170972 
1819.000000	97.170419 
1818.000000	97.172054 
1817.000000	97.176052 
1816.000000	97.179609 
1815.000000	97.180518 
1814.000000	97.180167 
1813.000000	97.181348 
1812.000000	97.183727 
1811.000000	97.183566 
1810.000000	97.179445 
1809.000000	97.174587 
1808.000000	97.172082 
1807.000000	97.171924 
1806.000000	97.173239 
1805.000000	97.175606 
1804.000000	97.178057 
1803.000000	97.178862 
1802.000000	97.176981 
1801.000000	97.173284 
1800.000000	97.168589 
1799.000000	97.163109 
1798.000000	97.158600 
1797.000000	97.156519 
1796.000000	97.155620 
1795.000000	97.154416 
1794.000000	97.153978 
1793.000000	97.156492 
1792.000000	97.160997 
1791.000000	97.164530 
1790.000000	97.167453 
1789.000000	97.172138 
1788.000000	97.178675 
1787.000000	97.184773 
1786.000000	97.188833 
1785.000000	97.191218 
1784.000000	97.192746 
1783.000000	97.193704 
1782.000000	97.194055 
1781.000000	97.194400 
1780.000000	97.195758 
1779.000000	97.199048 
1778.000000	97.205011 
1777.000000	97.212815 
1776.000000	97.219682 
1775.000000	97.223308 
1774.000000	97.223890 
1773.000000	97.224483 
1772.000000	97.227341 
1771.000000	97.230449 
1770.000000	97.231183 
1769.000000	97.229903 
1768.000000	97.228975 
1767.000000	97.229690 
1766.000000	97.231263 
1765.000000	97.233147 
1764.000000	97.236007 
1763.000000	97.240048 
1762.000000	97.244078 
1761.000000	97.247245 
1760.000000	97.250023 
1759.000000	97.252953 
1758.000000	97.255855 
1757.000000	97.258381 
1756.000000	97.260747 
1755.000000	97.262392 
1754.000000	97.261731 
1753.000000	97.258241 
1752.000000	97.254203 
1751.000000	97.253611 
1750.000000	97.257431 
1749.000000	97.262506 
1748.000000	97.266281 
1747.000000	97.268820 
1746.000000	97.270462 
1745.000000	97.271583 
1744.000000	97.273209 
1743.000000	97.275320 
1742.000000	97.276105 
1741.000000	97.274732 
1740.000000	97.273188 
1739.000000	97.273694 
1738.000000	97.274861 
1737.000000	97.274032 
1736.000000	97.270487 
1735.000000	97.266537 
1734.000000	97.264738 
1733.000000	97.264101 
1732.000000	97.263568 
1731.000000	97.264537 
1730.000000	97.267879 
1729.000000	97.271424 
1728.000000	97.273358 
1727.000000	97.274176 
1726.000000	97.275177 
1725.000000	97.275971 
1724.000000	97.275084 
1723.000000	97.272641 
1722.000000	97.270652 
1721.000000	97.270264 
1720.000000	97.271046 
1719.000000	97.271986 
1718.000000	97.272056 
1717.000000	97.270316 
1716.000000	97.265173 
1715.000000	97.257270 
1714.000000	97.250918 
1713.000000	97.248033 
1712.000000	97.246177 
1711.000000	97.243477 
1710.000000	97.240421 
1709.000000	97.237517 
1708.000000	97.234267 
1707.000000	97.230728 
1706.000000	97.228288 
1705.000000	97.226761 
1704.000000	97.222303 
1703.000000	97.212458 
1702.000000	97.198678 
1701.000000	97.187829 
1700.000000	97.183993 
1699.000000	97.181511 
1698.000000	97.177562 
1697.000000	97.174456 
1696.000000	97.172551 
1695.000000	97.169509 
1694.000000	97.164043 
1693.000000	97.157129 
1692.000000	97.149745 
1691.000000	97.142583 
1690.000000	97.136034 
1689.000000	97.129859 
1688.000000	97.123310 
1687.000000	97.115848 
1686.000000	97.108243 
1685.000000	97.103170 
1684.000000	97.100351 
1683.000000	97.096420 
1682.000000	97.090670 
1681.000000	97.083745 
1680.000000	97.077855 
1679.000000	97.073943 
1678.000000	97.070402 
1677.000000	97.064977 
1676.000000	97.058414 
1675.000000	97.052636 
1674.000000	97.046022 
1673.000000	97.036464 
1672.000000	97.025437 
1671.000000	97.016608 
1670.000000	97.010961 
1669.000000	97.004959 
1668.000000	96.998344 
1667.000000	96.994441 
1666.000000	96.992938 
1665.000000	96.991603 
1664.000000	96.990236 
1663.000000	96.988942 
1662.000000	96.984221 
1661.000000	96.972947 
1660.000000	96.958691 
1659.000000	96.947549 
1658.000000	96.942328 
1657.000000	96.939004 
1656.000000	96.932892 
1655.000000	96.921334 
1654.000000	96.908354 
1653.000000	96.895358 
1652.000000	96.882326 
1651.000000	96.875131 
1650.000000	96.869086 
1649.000000	96.861088 
1648.000000	96.852572 
1647.000000	96.846882 
1646.000000	96.843177 
1645.000000	96.839401 
1644.000000	96.834173 
1643.000000	96.828890 
1642.000000	96.825018 
1641.000000	96.823476 
1640.000000	96.823611 
1639.000000	96.823602 
1638.000000	96.821631 
1637.000000	96.817510 
1636.000000	96.813100 
1635.000000	96.812500 
1634.000000	96.817794 
1633.000000	96.823962 
1632.000000	96.826156 
1631.000000	96.825758 
1630.000000	96.827201 
1629.000000	96.831980 
1628.000000	96.838521 
1627.000000	96.845348 
1626.000000	96.851405 
1625.000000	96.856141 
1624.000000	96.861783 
1623.000000	96.871858 
1622.000000	96.885156 
1621.000000	96.895873 
1620.000000	96.901455 
1619.000000	96.904874 
1618.000000	96.910874 
1617.000000	96.919555 
1616.000000	96.927080 
1615.000000	96.934344 
1614.000000	96.942696 
1613.000000	96.949536 
1612.000000	96.954098 
1611.000000	96.959370 
1610.000000	96.967450 
1609.000000	96.977096 
1608.000000	96.987464 
1607.000000	96.999491 
1606.000000	97.011989 
1605.000000	97.022971 
1604.000000	97.033569 
1603.000000	97.045709 
1602.000000	97.057911 
1601.000000	97.066937 
1600.000000	97.072987 
1599.000000	97.079211 
1598.000000	97.086679 
1597.000000	97.094004 
1596.000000	97.100954 
1595.000000	97.109189 
1594.000000	97.118888 
1593.000000	97.127528 
1592.000000	97.133789 
1591.000000	97.139772 
1590.000000	97.147585 
1589.000000	97.156389 
1588.000000	97.164854 
1587.000000	97.173742 
1586.000000	97.183117 
1585.000000	97.190820 
1584.000000	97.196495 
1583.000000	97.202304 
1582.000000	97.208958 
1581.000000	97.214743 
1580.000000	97.218609 
1579.000000	97.221757 
1578.000000	97.226514 
1577.000000	97.234847 
1576.000000	97.245556 
1575.000000	97.255367 
1574.000000	97.261598 
1573.000000	97.263627 
1572.000000	97.264894 
1571.000000	97.270722 
1570.000000	97.279944 
1569.000000	97.283080 
1568.000000	97.278507 
1567.000000	97.272475 
1566.000000	97.268285 
1565.000000	97.265931 
1564.000000	97.267716 
1563.000000	97.272252 
1562.000000	97.275765 
1561.000000	97.273017 
1560.000000	97.271819 
1559.000000	97.277391 
1558.000000	97.277835 
1557.000000	97.274111 
1556.000000	97.269700 
1555.000000	97.267758 
1554.000000	97.265969 
1553.000000	97.264555 
1552.000000	97.261841 
1551.000000	97.256126 
1550.000000	97.246177 
1549.000000	97.235033 
1548.000000	97.227084 
1547.000000	97.223223 
1546.000000	97.220080 
1545.000000	97.215148 
1544.000000	97.209495 
1543.000000	97.204608 
1542.000000	97.200863 
1541.000000	97.197606 
1540.000000	97.187611 
1539.000000	97.169633 
1538.000000	97.152239 
1537.000000	97.136298 
1536.000000	97.119932 
1535.000000	97.105023 
1534.000000	97.095302 
1533.000000	97.089471 
1532.000000	97.081900 
1531.000000	97.069756 
1530.000000	97.056025 
1529.000000	97.044220 
1528.000000	97.034114 
1527.000000	97.023344 
1526.000000	97.010869 
1525.000000	96.998537 
1524.000000	96.988637 
1523.000000	96.981675 
1522.000000	96.975455 
1521.000000	96.964880 
1520.000000	96.947633 
1519.000000	96.926535 
1518.000000	96.905151 
1517.000000	96.885901 
1516.000000	96.869603 
1515.000000	96.856255 
1514.000000	96.845319 
1513.000000	96.836325 
1512.000000	96.828132 
1511.000000	96.818044 
1510.000000	96.804250 
1509.000000	96.787069 
1508.000000	96.768767 
1507.000000	96.749643 
1506.000000	96.729838 
1505.000000	96.712207 
1504.000000	96.696656 
1503.000000	96.681667 
1502.000000	96.666050 
1501.000000	96.650569 
1500.000000	96.636345 
1499.000000	96.622923 
1498.000000	96.607465 
1497.000000	96.588917 
1496.000000	96.569876 
1495.000000	96.553400 
1494.000000	96.540134 
1493.000000	96.529257 
1492.000000	96.519749 
1491.000000	96.510096 
1490.000000	96.498088 
1489.000000	96.482967 
1488.000000	96.465364 
1487.000000	96.446180 
1486.000000	96.427016 
1485.000000	96.408173 
1484.000000	96.389747 
1483.000000	96.372827 
1482.000000	96.357937 
1481.000000	96.344345 
1480.000000	96.330816 
1479.000000	96.317127 
1478.000000	96.303940 
1477.000000	96.291521 
1476.000000	96.278596 
1475.000000	96.263243 
1474.000000	96.245637 
1473.000000	96.229283 
1472.000000	96.216561 
1471.000000	96.204418 
1470.000000	96.189470 
1469.000000	96.172112 
1468.000000	96.153985 
1467.000000	96.135567 
1466.000000	96.117203 
1465.000000	96.100803 
1464.000000	96.087789 
1463.000000	96.075578 
1462.000000	96.061419 
1461.000000	96.047306 
1460.000000	96.037640 
1459.000000	96.032746 
1458.000000	96.022628 
1457.000000	95.998343 
1456.000000	95.970189 
1455.000000	95.949002 
1454.000000	95.930924 
1453.000000	95.914131 
1452.000000	95.901185 
1451.000000	95.893811 
1450.000000	95.889717 
1449.000000	95.886877 
1448.000000	95.884316 
1447.000000	95.879517 
1446.000000	95.869709 
1445.000000	95.857412 
1444.000000	95.848499 
1443.000000	95.844461 
1442.000000	95.841671 
1441.000000	95.836763 
1440.000000	95.830376 
1439.000000	95.823755 
1438.000000	95.814901 
1437.000000	95.802517 
1436.000000	95.791226 
1435.000000	95.784401 
1434.000000	95.779909 
1433.000000	95.776906 
1432.000000	95.776151 
1431.000000	95.777368 
1430.000000	95.778213 
1429.000000	95.777790 
1428.000000	95.778342 
1427.000000	95.782187 
1426.000000	95.789323 
1425.000000	95.798737 
1424.000000	95.810300 
1423.000000	95.821304 
1422.000000	95.828123 
1421.000000	95.832883 
1420.000000	95.842368 
1419.000000	95.855283 
1418.000000	95.860311 
1417.000000	95.856682 
1416.000000	95.855679 
1415.000000	95.863220 
1414.000000	95.874439 
1413.000000	95.883215 
1412.000000	95.890897 
1411.000000	95.901935 
1410.000000	95.915752 
1409.000000	95.930075 
1408.000000	95.946048 
1407.000000	95.965699 
1406.000000	95.987572 
1405.000000	96.008885 
1404.000000	96.029463 
1403.000000	96.048092 
1402.000000	96.062914 
1401.000000	96.077770 
1400.000000	96.100397 
1399.000000	96.131709 
1398.000000	96.161480 
1397.000000	96.181429 
1396.000000	96.195165 
1395.000000	96.211657 
1394.000000	96.233593 
1393.000000	96.258360 
1392.000000	96.286379 
1391.000000	96.318350 
1390.000000	96.350832 
1389.000000	96.378526 
1388.000000	96.398840 
1387.000000	96.413774 
1386.000000	96.427456 
1385.000000	96.443755 
1384.000000	96.465325 
1383.000000	96.491481 
1382.000000	96.517873 
1381.000000	96.540483 
1380.000000	96.558610 
1379.000000	96.574916 
1378.000000	96.593114 
1377.000000	96.615122 
1376.000000	96.639680 
1375.000000	96.663150 
1374.000000	96.682494 
1373.000000	96.698882 
1372.000000	96.716235 
1371.000000	96.736984 
1370.000000	96.759981 
1369.000000	96.781216 
1368.000000	96.799007 
1367.000000	96.815560 
1366.000000	96.834008 
1365.000000	96.855606 
1364.000000	96.877884 
1363.000000	96.895852 
1362.000000	96.907415 
1361.000000	96.916140 
1360.000000	96.927341 
1359.000000	96.943605 
1358.000000	96.963670 
1357.000000	96.983896 
1356.000000	97.001043 
1355.000000	97.014153 
1354.000000	97.024929 
1353.000000	97.036624 
1352.000000	97.050415 
1351.000000	97.065280 
1350.000000	97.080362 
1349.000000	97.094234 
1348.000000	97.105724 
1347.000000	97.114980 
1346.000000	97.123769 
1345.000000	97.133721 
1344.000000	97.145128 
1343.000000	97.157647 
1342.000000	97.171117 
1341.000000	97.184195 
1340.000000	97.193760 
1339.000000	97.197946 
1338.000000	97.198681 
1337.000000	97.199791 
1336.000000	97.203185 
1335.000000	97.207824 
1334.000000	97.212249 
1333.000000	97.216586 
1332.000000	97.221444 
1331.000000	97.226831 
1330.000000	97.232661 
1329.000000	97.239084 
1328.000000	97.245787 
1327.000000	97.251918 
1326.000000	97.256485 
1325.000000	97.258225 
1324.000000	97.257004 
1323.000000	97.254070 
1322.000000	97.251165 
1321.000000	97.249738 
1320.000000	97.250775 
1319.000000	97.254302 
1318.000000	97.259009 
1317.000000	97.263141 
1316.000000	97.265432 
1315.000000	97.265145 
1314.000000	97.262333 
1313.000000	97.259071 
1312.000000	97.258706 
1311.000000	97.262448 
1310.000000	97.267671 
1309.000000	97.271030 
1308.000000	97.272214 
1307.000000	97.273565 
1306.000000	97.276649 
1305.000000	97.280367 
1304.000000	97.283018 
1303.000000	97.283420 
1302.000000	97.280715 
1301.000000	97.275160 
1300.000000	97.269618 
1299.000000	97.267921 
1298.000000	97.270808 
1297.000000	97.274913 
1296.000000	97.276576 
1295.000000	97.275642 
1294.000000	97.274454 
1293.000000	97.274587 
1292.000000	97.275776 
1291.000000	97.277074 
1290.000000	97.277914 
1289.000000	97.278152 
1288.000000	97.277709 
1287.000000	97.276308 
1286.000000	97.273526 
1285.000000	97.269726 
1284.000000	97.266826 
1283.000000	97.266786 
1282.000000	97.269016 
1281.000000	97.270352 
1280.000000	97.268460 
1279.000000	97.264642 
1278.000000	97.262510 
1277.000000	97.264434 
1276.000000	97.269669 
1275.000000	97.275623 
1274.000000	97.279989 
1273.000000	97.282039 
1272.000000	97.282490 
1271.000000	97.282038 
1270.000000	97.279937 
1269.000000	97.274779 
1268.000000	97.267089 
1267.000000	97.259770 
1266.000000	97.255154 
1265.000000	97.253201 
1264.000000	97.253246 
1263.000000	97.255557 
1262.000000	97.259872 
1261.000000	97.264058 
1260.000000	97.266554 
1259.000000	97.269107 
1258.000000	97.274187 
1257.000000	97.280366 
1256.000000	97.282985 
1255.000000	97.280298 
1254.000000	97.276664 
1253.000000	97.277645 
1252.000000	97.282890 
1251.000000	97.286424 
1250.000000	97.283998 
1249.000000	97.277874 
1248.000000	97.273469 
1247.000000	97.272893 
1246.000000	97.273577 
1245.000000	97.272861 
1244.000000	97.271486 
1243.000000	97.271801 
1242.000000	97.274504 
1241.000000	97.278434 
1240.000000	97.282096 
1239.000000	97.283856 
1238.000000	97.281892 
1237.000000	97.275846 
1236.000000	97.267999 
1235.000000	97.261193 
1234.000000	97.255849 
1233.000000	97.250270 
1232.000000	97.243258 
1231.000000	97.234703 
1230.000000	97.224226 
1229.000000	97.211175 
1228.000000	97.195594 
1227.000000	97.177317 
1226.000000	97.154361 
1225.000000	97.124205 
1224.000000	97.086915 
1223.000000	97.045310 
1222.000000	97.001729 
1221.000000	96.955991 
1220.000000	96.906692 
1219.000000	96.852885 
1218.000000	96.794161 
1217.000000	96.730727 
1216.000000	96.663499 
1215.000000	96.592698 
1214.000000	96.517100 
1213.000000	96.437066 
1212.000000	96.357242 
1211.000000	96.282177 
1210.000000	96.209273 
1209.000000	96.130714 
1208.000000	96.043457 
1207.000000	95.953031 
1206.000000	95.865812 
1205.000000	95.781465 
1204.000000	95.695438 
1203.000000	95.605363 
1202.000000	95.512202 
1201.000000	95.417665 
1200.000000	95.323186 
1199.000000	95.229697 
1198.000000	95.136276 
1197.000000	95.040781 
1196.000000	94.942987 
1195.000000	94.844929 
1194.000000	94.747268 
1193.000000	94.647752 
1192.000000	94.544303 
1191.000000	94.437010 
1190.000000	94.326228 
1189.000000	94.211619 
1188.000000	94.094180 
1187.000000	93.976358 
1186.000000	93.858968 
1185.000000	93.740437 
1184.000000	93.619517 
1183.000000	93.495971 
1182.000000	93.368747 
1181.000000	93.236968 
1180.000000	93.102546 
1179.000000	92.967778 
1178.000000	92.830247 
1177.000000	92.684719 
1176.000000	92.530320 
1175.000000	92.371151 
1174.000000	92.209725 
1173.000000	92.045261 
1172.000000	91.879110 
1171.000000	91.715410 
1170.000000	91.554857 
1169.000000	91.394190 
1168.000000	91.234166 
1167.000000	91.082606 
1166.000000	90.948450 
1165.000000	90.839401 
1164.000000	90.766284 
1163.000000	90.740685 
1162.000000	90.763501 
1161.000000	90.820265 
1160.000000	90.889294 
1159.000000	90.949731 
1158.000000	90.982850 
1157.000000	90.975159 
1156.000000	90.924533 
1155.000000	90.839172 
1154.000000	90.729197 
1153.000000	90.603211 
1152.000000	90.471793 
1151.000000	90.345589 
1150.000000	90.226941 
1149.000000	90.110130 
1148.000000	89.991993 
1147.000000	89.875345 
1146.000000	89.760548 
1145.000000	89.642374 
1144.000000	89.518580 
1143.000000	89.393999 
1142.000000	89.272646 
1141.000000	89.152719 
1140.000000	89.032359 
1139.000000	88.913011 
1138.000000	88.794188 
1137.000000	88.672360 
1136.000000	88.547879 
1135.000000	88.425552 
1134.000000	88.305679 
1133.000000	88.182228 
1132.000000	88.052476 
1131.000000	87.920427 
1130.000000	87.788366 
1129.000000	87.653624 
1128.000000	87.516343 
1127.000000	87.381199 
1126.000000	87.247948 
1125.000000	87.109322 
1124.000000	86.962225 
1123.000000	86.812639 
1122.000000	86.665774 
1121.000000	86.519827 
1120.000000	86.373080 
1119.000000	86.228308 
1118.000000	86.086467 
1117.000000	85.945282 
1116.000000	85.807336 
1115.000000	85.679609 
1114.000000	85.561596 
1113.000000	85.444384 
1112.000000	85.324626 
1111.000000	85.207824 
1110.000000	85.094910 
1109.000000	84.978666 
1108.000000	84.856969 
1107.000000	84.736320 
1106.000000	84.618459 
1105.000000	84.496342 
1104.000000	84.367318 
1103.000000	84.237503 
1102.000000	84.108590 
1101.000000	83.974421 
1100.000000	83.835150 
1099.000000	83.700902 
1098.000000	83.578020 
1097.000000	83.461475 
1096.000000	83.345676 
1095.000000	83.229838 
1094.000000	83.110341 
1093.000000	82.981967 
1092.000000	82.850677 
1091.000000	82.731279 
1090.000000	82.628343 
1089.000000	82.532268 
1088.000000	82.436269 
1087.000000	82.342507 
1086.000000	82.249805 
1085.000000	82.152030 
1084.000000	82.051711 
1083.000000	81.958641 
1082.000000	81.871509 
1081.000000	81.777777 
1080.000000	81.675063 
1079.000000	81.574855 
1078.000000	81.480858 
1077.000000	81.381515 
1076.000000	81.268856 
1075.000000	81.146544 
1074.000000	81.014353 
1073.000000	80.863147 
1072.000000	80.690800 
1071.000000	80.504823 
1070.000000	80.303184 
1069.000000	80.070861 
1068.000000	79.802822 
1067.000000	79.513958 
1066.000000	79.219984 
1065.000000	78.924783 
1064.000000	78.632072 
1063.000000	78.349750 
1062.000000	78.074210 
1061.000000	77.789256 
1060.000000	77.489845 
1059.000000	77.190110 
1058.000000	76.900572 
1057.000000	76.614742 
1056.000000	76.325058 
1055.000000	76.032928 
1054.000000	75.735219 
1053.000000	75.420369 
1052.000000	75.088216 
1051.000000	74.755278 
1050.000000	74.429766 
1049.000000	74.100802 
1048.000000	73.761566 
1047.000000	73.421045 
1046.000000	73.085079 
1045.000000	72.747774 
1044.000000	72.407616 
1043.000000	72.071107 
1042.000000	71.735740 
1041.000000	71.390780 
1040.000000	71.040236 
1039.000000	70.703250 
1038.000000	70.386096 
1037.000000	70.076258 
1036.000000	69.769661 
1035.000000	69.479916 
1034.000000	69.214008 
1033.000000	68.962845 
1032.000000	68.722791 
1031.000000	68.503071 
1030.000000	68.305076 
1029.000000	68.117640 
1028.000000	67.938663 
1027.000000	67.778117 
1026.000000	67.635240 
1025.000000	67.497202 
1024.000000	67.363638 
1023.000000	67.245870 
1022.000000	67.138328 
1021.000000	67.019511 
1020.000000	66.886398 
1019.000000	66.758786 
1018.000000	66.643694 
1017.000000	66.525092 
1016.000000	66.395685 
1015.000000	66.269208 
1014.000000	66.152578 
1013.000000	66.034656 
1012.000000	65.911587 
1011.000000	65.795830 
1010.000000	65.691321 
1009.000000	65.586667 
1008.000000	65.480990 
1007.000000	65.389663 
1006.000000	65.317103 
1005.000000	65.251032 
1004.000000	65.190068 
1003.000000	65.148475 
1002.000000	65.126446 
1001.000000	65.105164 
1000.000000	65.079740 
999.000000	 65.068027 
998.000000	 65.077580 
997.000000	 65.092505 
996.000000	 65.102486 
995.000000	 65.117372 
994.000000	 65.143492 
993.000000	 65.172827 
992.000000	 65.204730 
991.000000	 65.251326 
990.000000	 65.312133 
989.000000	 65.369804 
988.000000	 65.419746 
987.000000	 65.477970 
986.000000	 65.552187 
985.000000	 65.632710 
984.000000	 65.719330 
983.000000	 65.828291 
982.000000	 65.963031 
981.000000	 66.105590 
980.000000	 66.246765 
979.000000	 66.398270 
978.000000	 66.565891 
977.000000	 66.738406 
976.000000	 66.913189 
975.000000	 67.105658 
974.000000	 67.322029 
973.000000	 67.548147 
972.000000	 67.776020 
971.000000	 68.016940 
970.000000	 68.277231 
969.000000	 68.544547 
968.000000	 68.808821 
967.000000	 69.075034 
966.000000	 69.345907 
965.000000	 69.613699 
964.000000	 69.877967 
963.000000	 70.150326 
962.000000	 70.433339 
961.000000	 70.714677 
960.000000	 70.988547 
959.000000	 71.262260 
958.000000	 71.536216 
957.000000	 71.799372 
956.000000	 72.050651 
955.000000	 72.303026 
954.000000	 72.560095 
953.000000	 72.809955 
952.000000	 73.047838 
951.000000	 73.282508 
950.000000	 73.514421 
949.000000	 73.730346 
948.000000	 73.926818 
947.000000	 74.117059 
946.000000	 74.307145 
945.000000	 74.486054 
944.000000	 74.646891 
943.000000	 74.797677 
942.000000	 74.944354 
941.000000	 75.083124 
940.000000	 75.216653 
939.000000	 75.357393 
938.000000	 75.506964 
937.000000	 75.651858 
936.000000	 75.787151 
935.000000	 75.925172 
934.000000	 76.073631 
933.000000	 76.224683 
932.000000	 76.373194 
931.000000	 76.526263 
930.000000	 76.686419 
929.000000	 76.843731 
928.000000	 76.992830 
927.000000	 77.140649 
926.000000	 77.289953 
925.000000	 77.431656 
924.000000	 77.560153 
923.000000	 77.680534 
922.000000	 77.795411 
921.000000	 77.900774 
920.000000	 77.999278 
919.000000	 78.100450 
918.000000	 78.202795 
917.000000	 78.292830 
916.000000	 78.367367 
915.000000	 78.441206 
914.000000	 78.528903 
913.000000	 78.635012 
912.000000	 78.764474 
911.000000	 78.924087 
910.000000	 79.109797 
909.000000	 79.310376 
908.000000	 79.526958 
907.000000	 79.771560 
906.000000	 80.045321 
905.000000	 80.337200 
904.000000	 80.644410 
903.000000	 80.973306 
902.000000	 81.319022 
901.000000	 81.665578 
900.000000	 82.008154 
899.000000	 82.355124 
898.000000	 82.707021 
897.000000	 83.053577 
896.000000	 83.391671 
895.000000	 83.725367 
894.000000	 84.048340 
893.000000	 84.348334 
892.000000	 84.630169 
891.000000	 84.912596 
890.000000	 85.199461 
889.000000	 85.473553 
888.000000	 85.720976 
887.000000	 85.942430 
886.000000	 86.140574 
885.000000	 86.317040 
884.000000	 86.482586 
883.000000	 86.648369 
882.000000	 86.806079 
881.000000	 86.939943 
880.000000	 87.059378 
879.000000	 87.193848 
878.000000	 87.352331 
877.000000	 87.516126 
876.000000	 87.676918 
875.000000	 87.851888 
874.000000	 88.053067 
873.000000	 88.271915 
872.000000	 88.504918 
871.000000	 88.765710 
870.000000	 89.058441 
869.000000	 89.363582 
868.000000	 89.663191 
867.000000	 89.959722 
866.000000	 90.259187 
865.000000	 90.555578 
864.000000	 90.843340 
863.000000	 91.128212 
862.000000	 91.414579 
861.000000	 91.695872 
860.000000	 91.966267 
859.000000	 92.228644 
858.000000	 92.484044 
857.000000	 92.726723 
856.000000	 92.955909 
855.000000	 93.178565 
854.000000	 93.393917 
853.000000	 93.588679 
852.000000	 93.754718 
851.000000	 93.899866 
850.000000	 94.036349 
849.000000	 94.170153 
848.000000	 94.305160 
847.000000	 94.443179 
846.000000	 94.574534 
845.000000	 94.682890 
844.000000	 94.765184 
843.000000	 94.834148 
842.000000	 94.897210 
841.000000	 94.946786 
840.000000	 94.975552 
839.000000	 94.985845 
838.000000	 94.978919 
837.000000	 94.951474 
836.000000	 94.910638 
835.000000	 94.877121 
834.000000	 94.863234 
833.000000	 94.859905 
832.000000	 94.854384 
831.000000	 94.848495 
830.000000	 94.850833 
829.000000	 94.864268 
828.000000	 94.892602 
827.000000	 94.947853 
826.000000	 95.037496 
825.000000	 95.152029 
824.000000	 95.274168 
823.000000	 95.391419 
822.000000	 95.494313 
821.000000	 95.575234 
820.000000	 95.635397 
819.000000	 95.682215 
818.000000	 95.716057 
817.000000	 95.729082 
816.000000	 95.717561 
815.000000	 95.683223 
814.000000	 95.620231 
813.000000	 95.512704 
812.000000	 95.347915 
811.000000	 95.119740 
810.000000	 94.816108 
809.000000	 94.417778 
808.000000	 93.918054 
807.000000	 93.334732 
806.000000	 92.697104 
805.000000	 92.030577 
804.000000	 91.358321 
803.000000	 90.704238 
802.000000	 90.086401 
801.000000	 89.519850 
800.000000	 89.030500 
799.000000	 88.650009 
798.000000	 88.391058 
797.000000	 88.243455 
796.000000	 88.195306 
795.000000	 88.235142 
794.000000	 88.331052 
793.000000	 88.436313 
792.000000	 88.525752 
791.000000	 88.604793 
790.000000	 88.676405 
789.000000	 88.722904 
788.000000	 88.728428 
787.000000	 88.695652 
786.000000	 88.628738 
785.000000	 88.519010 
784.000000	 88.358519 
783.000000	 88.152050 
782.000000	 87.909456 
781.000000	 87.645413 
780.000000	 87.393633 
779.000000	 87.199708 
778.000000	 87.089365 
777.000000	 87.061003 
776.000000	 87.112434 
775.000000	 87.248107 
774.000000	 87.450867 
773.000000	 87.674643 
772.000000	 87.881540 
771.000000	 88.067318 
770.000000	 88.240354 
769.000000	 88.398033 
768.000000	 88.536610 
767.000000	 88.662689 
766.000000	 88.779153 
765.000000	 88.876202 
764.000000	 88.949361 
763.000000	 89.010850 
762.000000	 89.072001 
761.000000	 89.130618 
760.000000	 89.186970 
759.000000	 89.255903 
758.000000	 89.350825 
757.000000	 89.470283 
756.000000	 89.609802 
755.000000	 89.769770 
754.000000	 89.939937 
753.000000	 90.092422 
752.000000	 90.204973 
751.000000	 90.282564 
750.000000	 90.348853 
749.000000	 90.427365 
748.000000	 90.535119 
747.000000	 90.677352 
746.000000	 90.838701 
745.000000	 90.993460 
744.000000	 91.133701 
743.000000	 91.276009 
742.000000	 91.435692 
741.000000	 91.609643 
740.000000	 91.790793 
739.000000	 91.982571 
738.000000	 92.189023 
737.000000	 92.402966 
736.000000	 92.612242 
735.000000	 92.807745 
734.000000	 92.980319 
733.000000	 93.120944 
732.000000	 93.229145 
731.000000	 93.312389 
730.000000	 93.376129 
729.000000	 93.424846 
728.000000	 93.474380 
727.000000	 93.545533 
726.000000	 93.640006 
725.000000	 93.741144 
724.000000	 93.840373 
723.000000	 93.944064 
722.000000	 94.053100 
721.000000	 94.158240 
720.000000	 94.261303 
719.000000	 94.376661 
718.000000	 94.503364 
717.000000	 94.619849 
716.000000	 94.712260 
715.000000	 94.788176 
714.000000	 94.858150 
713.000000	 94.923302 
712.000000	 94.989434 
711.000000	 95.069949 
710.000000	 95.163652 
709.000000	 95.253633 
708.000000	 95.333426 
707.000000	 95.415285 
706.000000	 95.497945 
705.000000	 95.551197 
704.000000	 95.548401 
703.000000	 95.488974 
702.000000	 95.376818 
701.000000	 95.199339 
700.000000	 94.944064 
699.000000	 94.623125 
698.000000	 94.264702 
697.000000	 93.901873 
696.000000	 93.584923 
695.000000	 93.375004 
694.000000	 93.306150 
693.000000	 93.361571 
692.000000	 93.496583 
691.000000	 93.676310 
690.000000	 93.879128 
689.000000	 94.087497 
688.000000	 94.294338 
687.000000	 94.501257 
686.000000	 94.700640 
685.000000	 94.872893 
684.000000	 95.009609 
683.000000	 95.123926 
682.000000	 95.227173 
681.000000	 95.315669 
680.000000	 95.390701 
679.000000	 95.471930 
678.000000	 95.573369 
677.000000	 95.683269 
676.000000	 95.792466 
675.000000	 95.907504 
674.000000	 96.022926 
673.000000	 96.116477 
672.000000	 96.193875 
671.000000	 96.311118 
670.000000	 96.538842 
669.000000	 96.883670 
668.000000	 97.152704 
667.000000	 97.149245 
666.000000	 97.039012 
665.000000	 96.991830 
664.000000	 97.002088 
663.000000	 97.034885 
662.000000	 97.073276 
661.000000	 97.106149 
660.000000	 97.137376 
659.000000	 97.185562 
658.000000	 97.254234 
657.000000	 97.313327 
656.000000	 97.341641 
655.000000	 97.349243 
654.000000	 97.341595 
653.000000	 97.303509 
652.000000	 97.242236 
651.000000	 97.205211 
650.000000	 97.223933 

