4000.000000	99.280221 
3999.000000	99.279186 
3998.000000	99.277376 
3997.000000	99.275398 
3996.000000	99.274016 
3995.000000	99.273537 
3994.000000	99.273839 
3993.000000	99.274547 
3992.000000	99.275225 
3991.000000	99.275676 
3990.000000	99.275940 
3989.000000	99.276053 
3988.000000	99.275939 
3987.000000	99.275562 
3986.000000	99.275078 
3985.000000	99.274731 
3984.000000	99.274613 
3983.000000	99.274647 
3982.000000	99.274771 
3981.000000	99.274966 
3980.000000	99.275074 
3979.000000	99.274802 
3978.000000	99.274077 
3977.000000	99.273281 
3976.000000	99.272895 
3975.000000	99.272940 
3974.000000	99.272953 
3973.000000	99.272497 
3972.000000	99.271547 
3971.000000	99.270400 
3970.000000	99.269416 
3969.000000	99.268861 
3968.000000	99.268864 
3967.000000	99.269342 
3966.000000	99.269955 
3965.000000	99.270233 
3964.000000	99.269867 
3963.000000	99.268932 
3962.000000	99.267867 
3961.000000	99.267100 
3960.000000	99.266656 
3959.000000	99.266286 
3958.000000	99.265926 
3957.000000	99.265777 
3956.000000	99.265894 
3955.000000	99.265865 
3954.000000	99.265142 
3953.000000	99.263576 
3952.000000	99.261564 
3951.000000	99.259803 
3950.000000	99.258823 
3949.000000	99.258742 
3948.000000	99.259238 
3947.000000	99.259707 
3946.000000	99.259628 
3945.000000	99.258918 
3944.000000	99.258021 
3943.000000	99.257575 
3942.000000	99.257906 
3941.000000	99.258827 
3940.000000	99.259793 
3939.000000	99.260384 
3938.000000	99.260575 
3937.000000	99.260477 
3936.000000	99.260076 
3935.000000	99.259300 
3934.000000	99.258368 
3933.000000	99.257728 
3932.000000	99.257513 
3931.000000	99.257364 
3930.000000	99.256956 
3929.000000	99.256499 
3928.000000	99.256443 
3927.000000	99.256782 
3926.000000	99.257109 
3925.000000	99.257198 
3924.000000	99.257173 
3923.000000	99.257142 
3922.000000	99.257089 
3921.000000	99.257136 
3920.000000	99.257435 
3919.000000	99.257879 
3918.000000	99.258218 
3917.000000	99.258392 
3916.000000	99.258501 
3915.000000	99.258624 
3914.000000	99.258772 
3913.000000	99.258920 
3912.000000	99.259067 
3911.000000	99.259214 
3910.000000	99.259367 
3909.000000	99.259529 
3908.000000	99.259692 
3907.000000	99.259846 
3906.000000	99.259990 
3905.000000	99.260126 
3904.000000	99.260259 
3903.000000	99.260392 
3902.000000	99.260521 
3901.000000	99.260646 
3900.000000	99.260767 
3899.000000	99.260886 
3898.000000	99.260998 
3897.000000	99.261102 
3896.000000	99.261196 
3895.000000	99.261275 
3894.000000	99.261338 
3893.000000	99.261385 
3892.000000	99.261418 
3891.000000	99.261441 
3890.000000	99.261455 
3889.000000	99.261463 
3888.000000	99.261465 
3887.000000	99.261465 
3886.000000	99.261470 
3885.000000	99.261483 
3884.000000	99.261498 
3883.000000	99.261507 
3882.000000	99.261510 
3881.000000	99.261523 
3880.000000	99.261567 
3879.000000	99.261650 
3878.000000	99.261758 
3877.000000	99.261873 
3876.000000	99.261985 
3875.000000	99.262097 
3874.000000	99.262214 
3873.000000	99.262334 
3872.000000	99.262454 
3871.000000	99.262573 
3870.000000	99.262703 
3869.000000	99.262856 
3868.000000	99.263033 
3867.000000	99.263220 
3866.000000	99.263410 
3865.000000	99.263612 
3864.000000	99.263838 
3863.000000	99.264085 
3862.000000	99.264349 
3861.000000	99.264627 
3860.000000	99.264921 
3859.000000	99.265225 
3858.000000	99.265526 
3857.000000	99.265822 
3856.000000	99.266126 
3855.000000	99.266453 
3854.000000	99.266801 
3853.000000	99.267147 
3852.000000	99.267488 
3851.000000	99.267898 
3850.000000	99.268387 
3849.000000	99.268920 
3848.000000	99.269526 
3847.000000	99.270223 
3846.000000	99.270959 
3845.000000	99.271649 
3844.000000	99.272260 
3843.000000	99.272850 
3842.000000	99.273483 
3841.000000	99.274137 
3840.000000	99.274752 
3839.000000	99.275284 
3838.000000	99.275727 
3837.000000	99.276111 
3836.000000	99.276496 
3835.000000	99.276871 
3834.000000	99.277164 
3833.000000	99.277360 
3832.000000	99.277528 
3831.000000	99.277744 
3830.000000	99.278017 
3829.000000	99.278290 
3828.000000	99.278519 
3827.000000	99.278712 
3826.000000	99.278902 
3825.000000	99.279080 
3824.000000	99.279198 
3823.000000	99.279231 
3822.000000	99.279216 
3821.000000	99.279187 
3820.000000	99.279148 
3819.000000	99.279088 
3818.000000	99.278997 
3817.000000	99.278872 
3816.000000	99.278734 
3815.000000	99.278604 
3814.000000	99.278488 
3813.000000	99.278372 
3812.000000	99.278250 
3811.000000	99.278125 
3810.000000	99.277998 
3809.000000	99.277848 
3808.000000	99.277654 
3807.000000	99.277413 
3806.000000	99.277138 
3805.000000	99.276842 
3804.000000	99.276524 
3803.000000	99.276187 
3802.000000	99.275844 
3801.000000	99.275517 
3800.000000	99.275218 
3799.000000	99.274940 
3798.000000	99.274672 
3797.000000	99.274414 
3796.000000	99.274178 
3795.000000	99.273972 
3794.000000	99.273796 
3793.000000	99.273646 
3792.000000	99.273522 
3791.000000	99.273421 
3790.000000	99.273341 
3789.000000	99.273273 
3788.000000	99.273207 
3787.000000	99.273141 
3786.000000	99.273084 
3785.000000	99.273056 
3784.000000	99.273071 
3783.000000	99.273128 
3782.000000	99.273213 
3781.000000	99.273311 
3780.000000	99.273425 
3779.000000	99.273566 
3778.000000	99.273745 
3777.000000	99.273962 
3776.000000	99.274217 
3775.000000	99.274508 
3774.000000	99.274829 
3773.000000	99.275159 
3772.000000	99.275483 
3771.000000	99.275793 
3770.000000	99.276087 
3769.000000	99.276367 
3768.000000	99.276630 
3767.000000	99.276879 
3766.000000	99.277125 
3765.000000	99.277383 
3764.000000	99.277653 
3763.000000	99.277920 
3762.000000	99.278167 
3761.000000	99.278383 
3760.000000	99.278564 
3759.000000	99.278706 
3758.000000	99.278804 
3757.000000	99.278864 
3756.000000	99.278901 
3755.000000	99.278938 
3754.000000	99.278992 
3753.000000	99.279071 
3752.000000	99.279165 
3751.000000	99.279287 
3750.000000	99.279331 
3749.000000	99.279100 
3748.000000	99.278833 
3747.000000	99.278535 
3746.000000	99.278038 
3745.000000	99.277779 
3744.000000	99.278465 
3743.000000	99.280495 
3742.000000	99.282299 
3741.000000	99.281252 
3740.000000	99.277533 
3739.000000	99.274187 
3738.000000	99.273631 
3737.000000	99.275447 
3736.000000	99.277936 
3735.000000	99.280114 
3734.000000	99.280815 
3733.000000	99.278353 
3732.000000	99.273369 
3731.000000	99.269355 
3730.000000	99.268068 
3729.000000	99.267330 
3728.000000	99.265011 
3727.000000	99.262483 
3726.000000	99.262255 
3725.000000	99.263777 
3724.000000	99.263688 
3723.000000	99.260317 
3722.000000	99.255048 
3721.000000	99.249786 
3720.000000	99.244686 
3719.000000	99.239044 
3718.000000	99.233940 
3717.000000	99.231640 
3716.000000	99.232790 
3715.000000	99.235942 
3714.000000	99.240334 
3713.000000	99.246525 
3712.000000	99.252282 
3711.000000	99.252393 
3710.000000	99.244838 
3709.000000	99.231703 
3708.000000	99.216215 
3707.000000	99.201412 
3706.000000	99.189263 
3705.000000	99.180014 
3704.000000	99.172419 
3703.000000	99.164655 
3702.000000	99.155349 
3701.000000	99.144890 
3700.000000	99.135108 
3699.000000	99.126406 
3698.000000	99.118205 
3697.000000	99.111607 
3696.000000	99.108506 
3695.000000	99.108717 
3694.000000	99.109377 
3693.000000	99.107505 
3692.000000	99.101680 
3691.000000	99.091325 
3690.000000	99.076808 
3689.000000	99.061694 
3688.000000	99.052443 
3687.000000	99.051389 
3686.000000	99.053447 
3685.000000	99.052859 
3684.000000	99.049849 
3683.000000	99.048063 
3682.000000	99.048555 
3681.000000	99.048306 
3680.000000	99.044755 
3679.000000	99.038752 
3678.000000	99.031680 
3677.000000	99.023254 
3676.000000	99.012366 
3675.000000	99.002407 
3674.000000	98.999469 
3673.000000	99.000187 
3672.000000	98.996321 
3671.000000	98.987915 
3670.000000	98.979962 
3669.000000	98.975052 
3668.000000	98.972325 
3667.000000	98.968749 
3666.000000	98.963297 
3665.000000	98.958091 
3664.000000	98.954856 
3663.000000	98.953102 
3662.000000	98.951502 
3661.000000	98.949324 
3660.000000	98.946617 
3659.000000	98.943571 
3658.000000	98.940388 
3657.000000	98.937781 
3656.000000	98.937027 
3655.000000	98.939394 
3654.000000	98.942748 
3653.000000	98.942960 
3652.000000	98.940624 
3651.000000	98.940755 
3650.000000	98.943886 
3649.000000	98.944005 
3648.000000	98.939606 
3647.000000	98.936413 
3646.000000	98.938026 
3645.000000	98.942573 
3644.000000	98.946907 
3643.000000	98.950391 
3642.000000	98.954057 
3641.000000	98.957388 
3640.000000	98.958301 
3639.000000	98.956164 
3638.000000	98.953626 
3637.000000	98.953891 
3636.000000	98.956774 
3635.000000	98.959282 
3634.000000	98.959121 
3633.000000	98.956135 
3632.000000	98.950856 
3631.000000	98.945358 
3630.000000	98.943514 
3629.000000	98.945687 
3628.000000	98.949219 
3627.000000	98.952705 
3626.000000	98.952661 
3625.000000	98.947963 
3624.000000	98.942293 
3623.000000	98.937856 
3622.000000	98.933022 
3621.000000	98.926444 
3620.000000	98.920487 
3619.000000	98.918935 
3618.000000	98.923505 
3617.000000	98.932213 
3616.000000	98.941146 
3615.000000	98.948855 
3614.000000	98.956942 
3613.000000	98.966624 
3612.000000	98.976454 
3611.000000	98.983483 
3610.000000	98.986471 
3609.000000	98.986898 
3608.000000	98.986569 
3607.000000	98.986082 
3606.000000	98.985494 
3605.000000	98.985549 
3604.000000	98.987770 
3603.000000	98.992556 
3602.000000	98.997821 
3601.000000	99.000556 
3600.000000	98.999643 
3599.000000	98.996316 
3598.000000	98.993007 
3597.000000	98.992092 
3596.000000	98.994433 
3595.000000	98.998783 
3594.000000	99.002614 
3593.000000	99.004171 
3592.000000	99.003156 
3591.000000	99.000247 
3590.000000	98.997023 
3589.000000	98.995603 
3588.000000	98.997008 
3587.000000	99.000417 
3586.000000	99.004101 
3585.000000	99.006522 
3584.000000	99.007375 
3583.000000	99.007754 
3582.000000	99.008688 
3581.000000	99.009992 
3580.000000	99.010668 
3579.000000	99.010148 
3578.000000	99.008781 
3577.000000	99.007426 
3576.000000	99.006646 
3575.000000	99.006409 
3574.000000	99.006346 
3573.000000	99.006093 
3572.000000	99.005444 
3571.000000	99.004329 
3570.000000	99.002892 
3569.000000	99.001628 
3568.000000	99.001149 
3567.000000	99.001634 
3566.000000	99.002652 
3565.000000	99.003447 
3564.000000	99.003497 
3563.000000	99.002877 
3562.000000	99.002025 
3561.000000	99.001361 
3560.000000	99.000974 
3559.000000	99.000702 
3558.000000	99.000388 
3557.000000	99.000018 
3556.000000	98.999660 
3555.000000	98.999329 
3554.000000	98.998960 
3553.000000	98.998503 
3552.000000	98.997979 
3551.000000	98.997430 
3550.000000	98.996886 
3549.000000	98.996395 
3548.000000	98.996027 
3547.000000	98.995776 
3546.000000	98.995542 
3545.000000	98.995241 
3544.000000	98.994889 
3543.000000	98.994535 
3542.000000	98.994190 
3541.000000	98.993849 
3540.000000	98.993513 
3539.000000	98.993183 
3538.000000	98.992863 
3537.000000	98.992557 
3536.000000	98.992264 
3535.000000	98.991977 
3534.000000	98.991689 
3533.000000	98.991396 
3532.000000	98.991101 
3531.000000	98.990809 
3530.000000	98.990517 
3529.000000	98.990219 
3528.000000	98.989906 
3527.000000	98.989574 
3526.000000	98.989227 
3525.000000	98.988872 
3524.000000	98.988517 
3523.000000	98.988165 
3522.000000	98.987818 
3521.000000	98.987475 
3520.000000	98.987133 
3519.000000	98.986789 
3518.000000	98.986437 
3517.000000	98.986070 
3516.000000	98.985685 
3515.000000	98.985283 
3514.000000	98.984877 
3513.000000	98.984475 
3512.000000	98.984081 
3511.000000	98.983694 
3510.000000	98.983310 
3509.000000	98.982931 
3508.000000	98.982556 
3507.000000	98.982185 
3506.000000	98.981807 
3505.000000	98.981416 
3504.000000	98.981006 
3503.000000	98.980582 
3502.000000	98.980147 
3501.000000	98.979703 
3500.000000	98.979246 
3499.000000	98.978775 
3498.000000	98.978293 
3497.000000	98.977812 
3496.000000	98.977343 
3495.000000	98.976865 
3494.000000	98.976332 
3493.000000	98.975732 
3492.000000	98.975091 
3491.000000	98.974423 
3490.000000	98.973721 
3489.000000	98.973037 
3488.000000	98.972450 
3487.000000	98.971899 
3486.000000	98.971188 
3485.000000	98.970272 
3484.000000	98.969419 
3483.000000	98.968888 
3482.000000	98.968592 
3481.000000	98.968271 
3480.000000	98.967932 
3479.000000	98.967787 
3478.000000	98.967730 
3477.000000	98.967238 
3476.000000	98.965891 
3475.000000	98.963837 
3474.000000	98.961785 
3473.000000	98.960468 
3472.000000	98.960119 
3471.000000	98.960437 
3470.000000	98.960871 
3469.000000	98.961056 
3468.000000	98.961001 
3467.000000	98.960881 
3466.000000	98.960719 
3465.000000	98.960283 
3464.000000	98.959285 
3463.000000	98.957605 
3462.000000	98.955360 
3461.000000	98.952920 
3460.000000	98.950785 
3459.000000	98.949253 
3458.000000	98.948179 
3457.000000	98.947121 
3456.000000	98.945838 
3455.000000	98.944586 
3454.000000	98.943820 
3453.000000	98.943742 
3452.000000	98.944172 
3451.000000	98.944712 
3450.000000	98.944952 
3449.000000	98.944623 
3448.000000	98.943660 
3447.000000	98.942195 
3446.000000	98.940480 
3445.000000	98.938802 
3444.000000	98.937467 
3443.000000	98.936703 
3442.000000	98.936455 
3441.000000	98.936341 
3440.000000	98.935940 
3439.000000	98.935101 
3438.000000	98.933955 
3437.000000	98.932722 
3436.000000	98.931641 
3435.000000	98.930952 
3434.000000	98.930760 
3433.000000	98.930894 
3432.000000	98.930966 
3431.000000	98.930710 
3430.000000	98.930156 
3429.000000	98.929498 
3428.000000	98.928873 
3427.000000	98.928294 
3426.000000	98.927759 
3425.000000	98.927291 
3424.000000	98.926877 
3423.000000	98.926448 
3422.000000	98.925959 
3421.000000	98.925434 
3420.000000	98.924924 
3419.000000	98.924456 
3418.000000	98.924023 
3417.000000	98.923610 
3416.000000	98.923209 
3415.000000	98.922812 
3414.000000	98.922410 
3413.000000	98.921994 
3412.000000	98.921567 
3411.000000	98.921138 
3410.000000	98.920724 
3409.000000	98.920334 
3408.000000	98.919974 
3407.000000	98.919639 
3406.000000	98.919319 
3405.000000	98.919006 
3404.000000	98.918694 
3403.000000	98.918382 
3402.000000	98.918073 
3401.000000	98.917772 
3400.000000	98.917483 
3399.000000	98.917213 
3398.000000	98.916966 
3397.000000	98.916736 
3396.000000	98.916513 
3395.000000	98.916302 
3394.000000	98.916118 
3393.000000	98.915974 
3392.000000	98.915856 
3391.000000	98.915735 
3390.000000	98.915595 
3389.000000	98.915472 
3388.000000	98.915447 
3387.000000	98.915580 
3386.000000	98.915844 
3385.000000	98.916092 
3384.000000	98.916118 
3383.000000	98.915802 
3382.000000	98.915311 
3381.000000	98.915037 
3380.000000	98.915194 
3379.000000	98.915539 
3378.000000	98.915649 
3377.000000	98.915570 
3376.000000	98.915838 
3375.000000	98.916720 
3374.000000	98.917736 
3373.000000	98.918189 
3372.000000	98.918079 
3371.000000	98.918159 
3370.000000	98.919097 
3369.000000	98.920766 
3368.000000	98.922390 
3367.000000	98.923221 
3366.000000	98.923007 
3365.000000	98.922073 
3364.000000	98.921085 
3363.000000	98.920601 
3362.000000	98.920759 
3361.000000	98.921352 
3360.000000	98.922203 
3359.000000	98.923301 
3358.000000	98.924530 
3357.000000	98.925572 
3356.000000	98.926259 
3355.000000	98.926882 
3354.000000	98.927954 
3353.000000	98.929707 
3352.000000	98.931889 
3351.000000	98.934025 
3350.000000	98.935764 
3349.000000	98.937020 
3348.000000	98.937983 
3347.000000	98.938983 
3346.000000	98.940149 
3345.000000	98.941152 
3344.000000	98.941409 
3343.000000	98.940635 
3342.000000	98.939223 
3341.000000	98.938050 
3340.000000	98.937690 
3339.000000	98.937947 
3338.000000	98.938269 
3337.000000	98.938394 
3336.000000	98.938497 
3335.000000	98.938808 
3334.000000	98.939277 
3333.000000	98.939661 
3332.000000	98.939843 
3331.000000	98.939945 
3330.000000	98.940159 
3329.000000	98.940539 
3328.000000	98.941010 
3327.000000	98.941497 
3326.000000	98.941988 
3325.000000	98.942463 
3324.000000	98.942845 
3323.000000	98.943092 
3322.000000	98.943264 
3321.000000	98.943490 
3320.000000	98.943832 
3319.000000	98.944244 
3318.000000	98.944644 
3317.000000	98.944982 
3316.000000	98.945265 
3315.000000	98.945522 
3314.000000	98.945776 
3313.000000	98.946035 
3312.000000	98.946296 
3311.000000	98.946558 
3310.000000	98.946823 
3309.000000	98.947088 
3308.000000	98.947346 
3307.000000	98.947590 
3306.000000	98.947821 
3305.000000	98.948046 
3304.000000	98.948282 
3303.000000	98.948543 
3302.000000	98.948834 
3301.000000	98.949149 
3300.000000	98.949473 
3299.000000	98.949795 
3298.000000	98.950108 
3297.000000	98.950417 
3296.000000	98.950733 
3295.000000	98.951063 
3294.000000	98.951409 
3293.000000	98.951765 
3292.000000	98.952126 
3291.000000	98.952487 
3290.000000	98.952842 
3289.000000	98.953187 
3288.000000	98.953518 
3287.000000	98.953834 
3286.000000	98.954142 
3285.000000	98.954447 
3284.000000	98.954754 
3283.000000	98.955066 
3282.000000	98.955387 
3281.000000	98.955719 
3280.000000	98.956061 
3279.000000	98.956413 
3278.000000	98.956772 
3277.000000	98.957141 
3276.000000	98.957522 
3275.000000	98.957917 
3274.000000	98.958321 
3273.000000	98.958732 
3272.000000	98.959151 
3271.000000	98.959577 
3270.000000	98.960010 
3269.000000	98.960442 
3268.000000	98.960868 
3267.000000	98.961288 
3266.000000	98.961709 
3265.000000	98.962141 
3264.000000	98.962591 
3263.000000	98.963057 
3262.000000	98.963528 
3261.000000	98.963992 
3260.000000	98.964442 
3259.000000	98.964879 
3258.000000	98.965311 
3257.000000	98.965749 
3256.000000	98.966204 
3255.000000	98.966681 
3254.000000	98.967177 
3253.000000	98.967688 
3252.000000	98.968208 
3251.000000	98.968740 
3250.000000	98.969284 
3249.000000	98.969836 
3248.000000	98.970392 
3247.000000	98.970949 
3246.000000	98.971512 
3245.000000	98.972083 
3244.000000	98.972664 
3243.000000	98.973254 
3242.000000	98.973847 
3241.000000	98.974438 
3240.000000	98.975027 
3239.000000	98.975615 
3238.000000	98.976206 
3237.000000	98.976800 
3236.000000	98.977399 
3235.000000	98.977998 
3234.000000	98.978594 
3233.000000	98.979178 
3232.000000	98.979746 
3231.000000	98.980305 
3230.000000	98.980868 
3229.000000	98.981435 
3228.000000	98.982001 
3227.000000	98.982576 
3226.000000	98.983186 
3225.000000	98.983851 
3224.000000	98.984546 
3223.000000	98.985226 
3222.000000	98.985885 
3221.000000	98.986556 
3220.000000	98.987258 
3219.000000	98.987965 
3218.000000	98.988640 
3217.000000	98.989288 
3216.000000	98.989956 
3215.000000	98.990693 
3214.000000	98.991521 
3213.000000	98.992424 
3212.000000	98.993335 
3211.000000	98.994158 
3210.000000	98.994832 
3209.000000	98.995383 
3208.000000	98.995898 
3207.000000	98.996451 
3206.000000	98.997067 
3205.000000	98.997751 
3204.000000	98.998529 
3203.000000	98.999421 
3202.000000	99.000387 
3201.000000	99.001303 
3200.000000	99.002057 
3199.000000	99.002669 
3198.000000	99.003320 
3197.000000	99.004179 
3196.000000	99.005208 
3195.000000	99.006175 
3194.000000	99.006938 
3193.000000	99.007634 
3192.000000	99.008516 
3191.000000	99.009649 
3190.000000	99.010823 
3189.000000	99.011772 
3188.000000	99.012417 
3187.000000	99.012897 
3186.000000	99.013456 
3185.000000	99.014283 
3184.000000	99.015433 
3183.000000	99.016812 
3182.000000	99.018276 
3181.000000	99.019687 
3180.000000	99.020900 
3179.000000	99.021787 
3178.000000	99.022365 
3177.000000	99.022870 
3176.000000	99.023577 
3175.000000	99.024582 
3174.000000	99.025826 
3173.000000	99.027227 
3172.000000	99.028647 
3171.000000	99.029858 
3170.000000	99.030749 
3169.000000	99.031539 
3168.000000	99.032530 
3167.000000	99.033650 
3166.000000	99.034512 
3165.000000	99.034939 
3164.000000	99.035111 
3163.000000	99.035207 
3162.000000	99.035223 
3161.000000	99.035229 
3160.000000	99.035497 
3159.000000	99.036201 
3158.000000	99.037183 
3157.000000	99.038156 
3156.000000	99.039037 
3155.000000	99.039946 
3154.000000	99.040964 
3153.000000	99.042051 
3152.000000	99.043111 
3151.000000	99.044028 
3150.000000	99.044718 
3149.000000	99.045181 
3148.000000	99.045490 
3147.000000	99.045736 
3146.000000	99.046111 
3145.000000	99.046935 
3144.000000	99.048355 
3143.000000	99.049926 
3142.000000	99.050831 
3141.000000	99.050726 
3140.000000	99.050158 
3139.000000	99.050058 
3138.000000	99.050792 
3137.000000	99.051966 
3136.000000	99.052934 
3135.000000	99.053335 
3134.000000	99.053195 
3133.000000	99.052809 
3132.000000	99.052521 
3131.000000	99.052478 
3130.000000	99.052599 
3129.000000	99.052881 
3128.000000	99.053602 
3127.000000	99.055029 
3126.000000	99.057024 
3125.000000	99.059020 
3124.000000	99.060368 
3123.000000	99.060698 
3122.000000	99.060129 
3121.000000	99.059307 
3120.000000	99.059027 
3119.000000	99.059608 
3118.000000	99.060744 
3117.000000	99.062013 
3116.000000	99.063365 
3115.000000	99.064913 
3114.000000	99.066522 
3113.000000	99.067935 
3112.000000	99.069233 
3111.000000	99.070802 
3110.000000	99.072779 
3109.000000	99.074792 
3108.000000	99.076379 
3107.000000	99.077445 
3106.000000	99.078138 
3105.000000	99.078431 
3104.000000	99.078062 
3103.000000	99.076938 
3102.000000	99.075451 
3101.000000	99.074240 
3100.000000	99.073636 
3099.000000	99.073603 
3098.000000	99.074242 
3097.000000	99.075941 
3096.000000	99.078637 
3095.000000	99.081228 
3094.000000	99.082469 
3093.000000	99.082329 
3092.000000	99.082001 
3091.000000	99.082347 
3090.000000	99.082881 
3089.000000	99.082549 
3088.000000	99.080995 
3087.000000	99.078931 
3086.000000	99.077626 
3085.000000	99.078038 
3084.000000	99.080018 
3083.000000	99.082133 
3082.000000	99.082885 
3081.000000	99.082401 
3080.000000	99.082291 
3079.000000	99.083444 
3078.000000	99.084937 
3077.000000	99.085752 
3076.000000	99.086421 
3075.000000	99.087892 
3074.000000	99.089820 
3073.000000	99.091260 
3072.000000	99.092096 
3071.000000	99.092400 
3070.000000	99.091382 
3069.000000	99.088740 
3068.000000	99.086338 
3067.000000	99.086483 
3066.000000	99.088756 
3065.000000	99.090378 
3064.000000	99.089621 
3063.000000	99.087077 
3062.000000	99.083709 
3061.000000	99.079560 
3060.000000	99.074777 
3059.000000	99.070499 
3058.000000	99.068280 
3057.000000	99.069295 
3056.000000	99.073580 
3055.000000	99.078757 
3054.000000	99.080294 
3053.000000	99.075376 
3052.000000	99.066845 
3051.000000	99.061375 
3050.000000	99.062709 
3049.000000	99.068058 
3048.000000	99.071732 
3047.000000	99.070727 
3046.000000	99.065767 
3045.000000	99.058919 
3044.000000	99.052224 
3043.000000	99.047912 
3042.000000	99.047609 
3041.000000	99.050353 
3040.000000	99.052340 
3039.000000	99.049689 
3038.000000	99.041593 
3037.000000	99.030616 
3036.000000	99.019959 
3035.000000	99.010691 
3034.000000	99.001788 
3033.000000	98.992164 
3032.000000	98.981753 
3031.000000	98.970917 
3030.000000	98.960009 
3029.000000	98.949628 
3028.000000	98.939942 
3027.000000	98.929260 
3026.000000	98.914841 
3025.000000	98.896344 
3024.000000	98.877317 
3023.000000	98.861664 
3022.000000	98.849425 
3021.000000	98.837811 
3020.000000	98.825420 
3019.000000	98.813115 
3018.000000	98.800922 
3017.000000	98.786645 
3016.000000	98.768542 
3015.000000	98.747796 
3014.000000	98.727471 
3013.000000	98.709919 
3012.000000	98.695451 
3011.000000	98.682312 
3010.000000	98.667496 
3009.000000	98.648705 
3008.000000	98.626164 
3007.000000	98.602125 
3006.000000	98.578614 
3005.000000	98.556434 
3004.000000	98.535944 
3003.000000	98.517355 
3002.000000	98.500128 
3001.000000	98.483464 
3000.000000	98.467523 
2999.000000	98.452817 
2998.000000	98.438350 
2997.000000	98.422119 
2996.000000	98.403864 
2995.000000	98.385322 
2994.000000	98.366616 
2993.000000	98.344275 
2992.000000	98.314907 
2991.000000	98.280327 
2990.000000	98.247577 
2989.000000	98.224004 
2988.000000	98.213135 
2987.000000	98.214211 
2986.000000	98.223628 
2985.000000	98.236545 
2984.000000	98.248584 
2983.000000	98.257356 
2982.000000	98.262808 
2981.000000	98.266127 
2980.000000	98.268023 
2979.000000	98.267612 
2978.000000	98.263078 
2977.000000	98.254002 
2976.000000	98.243000 
2975.000000	98.234337 
2974.000000	98.230747 
2973.000000	98.232195 
2972.000000	98.237411 
2971.000000	98.245355 
2970.000000	98.254982 
2969.000000	98.265134 
2968.000000	98.275603 
2967.000000	98.287255 
2966.000000	98.300218 
2965.000000	98.312938 
2964.000000	98.324010 
2963.000000	98.333977 
2962.000000	98.344153 
2961.000000	98.354560 
2960.000000	98.364466 
2959.000000	98.374416 
2958.000000	98.386073 
2957.000000	98.399860 
2956.000000	98.413789 
2955.000000	98.425003 
2954.000000	98.432220 
2953.000000	98.437026 
2952.000000	98.443222 
2951.000000	98.454066 
2950.000000	98.468940 
2949.000000	98.483021 
2948.000000	98.491278 
2947.000000	98.492688 
2946.000000	98.490296 
2945.000000	98.487954 
2944.000000	98.487738 
2943.000000	98.489686 
2942.000000	98.492163 
2941.000000	98.492391 
2940.000000	98.488535 
2939.000000	98.482116 
2938.000000	98.477098 
2937.000000	98.475909 
2936.000000	98.477209 
2935.000000	98.477818 
2934.000000	98.475672 
2933.000000	98.470390 
2932.000000	98.462433 
2931.000000	98.453041 
2930.000000	98.444374 
2929.000000	98.438335 
2928.000000	98.434923 
2927.000000	98.432234 
2926.000000	98.428266 
2925.000000	98.422775 
2924.000000	98.417522 
2923.000000	98.414694 
2922.000000	98.414760 
2921.000000	98.415877 
2920.000000	98.415923 
2919.000000	98.415000 
2918.000000	98.414991 
2917.000000	98.416384 
2916.000000	98.416767 
2915.000000	98.413634 
2914.000000	98.408098 
2913.000000	98.404341 
2912.000000	98.405067 
2911.000000	98.408487 
2910.000000	98.410372 
2909.000000	98.408672 
2908.000000	98.405451 
2907.000000	98.404136 
2906.000000	98.405184 
2905.000000	98.404760 
2904.000000	98.398286 
2903.000000	98.386028 
2902.000000	98.374983 
2901.000000	98.373863 
2900.000000	98.385923 
2899.000000	98.406614 
2898.000000	98.427555 
2897.000000	98.443050 
2896.000000	98.452450 
2895.000000	98.457737 
2894.000000	98.461251 
2893.000000	98.465579 
2892.000000	98.473066 
2891.000000	98.483609 
2890.000000	98.493944 
2889.000000	98.500879 
2888.000000	98.504822 
2887.000000	98.508639 
2886.000000	98.513524 
2885.000000	98.518142 
2884.000000	98.522231 
2883.000000	98.528584 
2882.000000	98.539800 
2881.000000	98.554656 
2880.000000	98.569708 
2879.000000	98.583761 
2878.000000	98.598357 
2877.000000	98.613874 
2876.000000	98.627620 
2875.000000	98.636970 
2874.000000	98.642721 
2873.000000	98.647948 
2872.000000	98.654444 
2871.000000	98.661598 
2870.000000	98.668308 
2869.000000	98.674519 
2868.000000	98.680882 
2867.000000	98.687996 
2866.000000	98.696231 
2865.000000	98.705562 
2864.000000	98.715445 
2863.000000	98.725515 
2862.000000	98.736396 
2861.000000	98.748935 
2860.000000	98.762511 
2859.000000	98.775173 
2858.000000	98.785917 
2857.000000	98.795993 
2856.000000	98.807157 
2855.000000	98.819102 
2854.000000	98.829588 
2853.000000	98.836992 
2852.000000	98.842053 
2851.000000	98.847259 
2850.000000	98.855007 
2849.000000	98.866100 
2848.000000	98.879389 
2847.000000	98.892673 
2846.000000	98.904348 
2845.000000	98.914384 
2844.000000	98.923712 
2843.000000	98.932900 
2842.000000	98.941757 
2841.000000	98.949990 
2840.000000	98.957574 
2839.000000	98.964383 
2838.000000	98.970031 
2837.000000	98.974405 
2836.000000	98.978218 
2835.000000	98.982741 
2834.000000	98.988936 
2833.000000	98.996812 
2832.000000	99.005349 
2831.000000	99.012853 
2830.000000	99.017641 
2829.000000	99.018997 
2828.000000	99.017984 
2827.000000	99.017262 
2826.000000	99.019567 
2825.000000	99.025769 
2824.000000	99.034169 
2823.000000	99.041759 
2822.000000	99.046399 
2821.000000	99.047933 
2820.000000	99.047493 
2819.000000	99.046203 
2818.000000	99.044767 
2817.000000	99.043996 
2816.000000	99.045053 
2815.000000	99.048655 
2814.000000	99.054007 
2813.000000	99.058813 
2812.000000	99.060817 
2811.000000	99.059627 
2810.000000	99.057085 
2809.000000	99.055720 
2808.000000	99.056798 
2807.000000	99.059972 
2806.000000	99.064328 
2805.000000	99.069065 
2804.000000	99.073102 
2803.000000	99.075057 
2802.000000	99.074500 
2801.000000	99.072950 
2800.000000	99.072788 
2799.000000	99.074936 
2798.000000	99.078087 
2797.000000	99.080281 
2796.000000	99.080813 
2795.000000	99.080451 
2794.000000	99.080361 
2793.000000	99.081205 
2792.000000	99.082979 
2791.000000	99.085189 
2790.000000	99.087086 
2789.000000	99.088164 
2788.000000	99.088607 
2787.000000	99.089120 
2786.000000	99.090249 
2785.000000	99.091905 
2784.000000	99.093600 
2783.000000	99.094969 
2782.000000	99.096044 
2781.000000	99.097047 
2780.000000	99.098084 
2779.000000	99.099133 
2778.000000	99.100166 
2777.000000	99.101182 
2776.000000	99.102181 
2775.000000	99.103160 
2774.000000	99.104119 
2773.000000	99.105059 
2772.000000	99.105983 
2771.000000	99.106895 
2770.000000	99.107803 
2769.000000	99.108711 
2768.000000	99.109621 
2767.000000	99.110526 
2766.000000	99.111415 
2765.000000	99.112283 
2764.000000	99.113128 
2763.000000	99.113953 
2762.000000	99.114759 
2761.000000	99.115547 
2760.000000	99.116320 
2759.000000	99.117082 
2758.000000	99.117840 
2757.000000	99.118594 
2756.000000	99.119343 
2755.000000	99.120086 
2754.000000	99.120825 
2753.000000	99.121564 
2752.000000	99.122303 
2751.000000	99.123038 
2750.000000	99.123760 
2749.000000	99.124466 
2748.000000	99.125156 
2747.000000	99.125825 
2746.000000	99.126476 
2745.000000	99.127113 
2744.000000	99.127745 
2743.000000	99.128380 
2742.000000	99.129020 
2741.000000	99.129667 
2740.000000	99.130319 
2739.000000	99.130979 
2738.000000	99.131646 
2737.000000	99.132321 
2736.000000	99.133003 
2735.000000	99.133694 
2734.000000	99.134396 
2733.000000	99.135106 
2732.000000	99.135821 
2731.000000	99.136538 
2730.000000	99.137256 
2729.000000	99.137972 
2728.000000	99.138682 
2727.000000	99.139376 
2726.000000	99.140050 
2725.000000	99.140702 
2724.000000	99.141341 
2723.000000	99.141977 
2722.000000	99.142616 
2721.000000	99.143261 
2720.000000	99.143910 
2719.000000	99.144566 
2718.000000	99.145226 
2717.000000	99.145888 
2716.000000	99.146546 
2715.000000	99.147196 
2714.000000	99.147837 
2713.000000	99.148471 
2712.000000	99.149095 
2711.000000	99.149707 
2710.000000	99.150302 
2709.000000	99.150883 
2708.000000	99.151456 
2707.000000	99.152027 
2706.000000	99.152598 
2705.000000	99.153170 
2704.000000	99.153740 
2703.000000	99.154309 
2702.000000	99.154874 
2701.000000	99.155435 
2700.000000	99.155987 
2699.000000	99.156529 
2698.000000	99.157055 
2697.000000	99.157557 
2696.000000	99.158034 
2695.000000	99.158486 
2694.000000	99.158922 
2693.000000	99.159345 
2692.000000	99.159760 
2691.000000	99.160168 
2690.000000	99.160571 
2689.000000	99.160970 
2688.000000	99.161366 
2687.000000	99.161760 
2686.000000	99.162149 
2685.000000	99.162533 
2684.000000	99.162913 
2683.000000	99.163290 
2682.000000	99.163663 
2681.000000	99.164027 
2680.000000	99.164382 
2679.000000	99.164728 
2678.000000	99.165067 
2677.000000	99.165401 
2676.000000	99.165730 
2675.000000	99.166054 
2674.000000	99.166375 
2673.000000	99.166692 
2672.000000	99.167007 
2671.000000	99.167317 
2670.000000	99.167623 
2669.000000	99.167924 
2668.000000	99.168223 
2667.000000	99.168523 
2666.000000	99.168827 
2665.000000	99.169131 
2664.000000	99.169436 
2663.000000	99.169743 
2662.000000	99.170053 
2661.000000	99.170364 
2660.000000	99.170667 
2659.000000	99.170953 
2658.000000	99.171219 
2657.000000	99.171469 
2656.000000	99.171713 
2655.000000	99.171958 
2654.000000	99.172207 
2653.000000	99.172462 
2652.000000	99.172714 
2651.000000	99.172960 
2650.000000	99.173219 
2649.000000	99.173511 
2648.000000	99.173828 
2647.000000	99.174132 
2646.000000	99.174387 
2645.000000	99.174563 
2644.000000	99.174637 
2643.000000	99.174632 
2642.000000	99.174652 
2641.000000	99.174817 
2640.000000	99.175146 
2639.000000	99.175526 
2638.000000	99.175849 
2637.000000	99.176126 
2636.000000	99.176427 
2635.000000	99.176793 
2634.000000	99.177233 
2633.000000	99.177742 
2632.000000	99.178234 
2631.000000	99.178537 
2630.000000	99.178537 
2629.000000	99.178329 
2628.000000	99.178164 
2627.000000	99.178213 
2626.000000	99.178462 
2625.000000	99.178817 
2624.000000	99.179216 
2623.000000	99.179640 
2622.000000	99.180056 
2621.000000	99.180376 
2620.000000	99.180473 
2619.000000	99.180233 
2618.000000	99.179665 
2617.000000	99.179015 
2616.000000	99.178675 
2615.000000	99.178855 
2614.000000	99.179455 
2613.000000	99.180167 
2612.000000	99.180750 
2611.000000	99.181164 
2610.000000	99.181469 
2609.000000	99.181695 
2608.000000	99.181802 
2607.000000	99.181740 
2606.000000	99.181578 
2605.000000	99.181495 
2604.000000	99.181617 
2603.000000	99.181884 
2602.000000	99.182129 
2601.000000	99.182267 
2600.000000	99.182351 
2599.000000	99.182394 
2598.000000	99.182313 
2597.000000	99.182101 
2596.000000	99.181885 
2595.000000	99.181748 
2594.000000	99.181624 
2593.000000	99.181497 
2592.000000	99.181539 
2591.000000	99.181866 
2590.000000	99.182258 
2589.000000	99.182381 
2588.000000	99.182269 
2587.000000	99.182350 
2586.000000	99.182909 
2585.000000	99.183767 
2584.000000	99.184528 
2583.000000	99.184951 
2582.000000	99.184953 
2581.000000	99.184524 
2580.000000	99.183819 
2579.000000	99.183236 
2578.000000	99.183177 
2577.000000	99.183749 
2576.000000	99.184672 
2575.000000	99.185424 
2574.000000	99.185583 
2573.000000	99.185121 
2572.000000	99.184392 
2571.000000	99.183760 
2570.000000	99.183270 
2569.000000	99.182865 
2568.000000	99.182718 
2567.000000	99.183030 
2566.000000	99.183515 
2565.000000	99.183522 
2564.000000	99.182805 
2563.000000	99.181848 
2562.000000	99.181302 
2561.000000	99.181441 
2560.000000	99.182348 
2559.000000	99.184124 
2558.000000	99.186496 
2557.000000	99.188500 
2556.000000	99.189256 
2555.000000	99.188890 
2554.000000	99.188382 
2553.000000	99.188450 
2552.000000	99.188884 
2551.000000	99.189242 
2550.000000	99.189585 
2549.000000	99.190108 
2548.000000	99.190420 
2547.000000	99.189892 
2546.000000	99.188633 
2545.000000	99.187552 
2544.000000	99.187241 
2543.000000	99.187295 
2542.000000	99.187017 
2541.000000	99.186449 
2540.000000	99.186258 
2539.000000	99.186722 
2538.000000	99.187359 
2537.000000	99.187601 
2536.000000	99.187529 
2535.000000	99.187650 
2534.000000	99.188127 
2533.000000	99.188556 
2532.000000	99.188507 
2531.000000	99.188033 
2530.000000	99.187536 
2529.000000	99.187300 
2528.000000	99.187258 
2527.000000	99.187229 
2526.000000	99.187221 
2525.000000	99.187393 
2524.000000	99.187789 
2523.000000	99.188245 
2522.000000	99.188554 
2521.000000	99.188663 
2520.000000	99.188659 
2519.000000	99.188650 
2518.000000	99.188691 
2517.000000	99.188768 
2516.000000	99.188814 
2515.000000	99.188756 
2514.000000	99.188597 
2513.000000	99.188452 
2512.000000	99.188469 
2511.000000	99.188671 
2510.000000	99.188979 
2509.000000	99.189286 
2508.000000	99.189545 
2507.000000	99.189751 
2506.000000	99.189914 
2505.000000	99.190065 
2504.000000	99.190245 
2503.000000	99.190460 
2502.000000	99.190659 
2501.000000	99.190806 
2500.000000	99.190937 
2499.000000	99.191113 
2498.000000	99.191335 
2497.000000	99.191540 
2496.000000	99.191704 
2495.000000	99.191884 
2494.000000	99.192111 
2493.000000	99.192305 
2492.000000	99.192388 
2491.000000	99.192448 
2490.000000	99.192680 
2489.000000	99.193155 
2488.000000	99.193685 
2487.000000	99.193999 
2486.000000	99.194029 
2485.000000	99.193935 
2484.000000	99.193939 
2483.000000	99.194132 
2482.000000	99.194489 
2481.000000	99.194948 
2480.000000	99.195433 
2479.000000	99.195836 
2478.000000	99.196073 
2477.000000	99.196147 
2476.000000	99.196104 
2475.000000	99.195956 
2474.000000	99.195727 
2473.000000	99.195558 
2472.000000	99.195563 
2471.000000	99.195549 
2470.000000	99.195134 
2469.000000	99.194281 
2468.000000	99.193529 
2467.000000	99.193452 
2466.000000	99.194035 
2465.000000	99.194782 
2464.000000	99.195326 
2463.000000	99.195785 
2462.000000	99.196464 
2461.000000	99.197421 
2460.000000	99.198410 
2459.000000	99.199150 
2458.000000	99.199522 
2457.000000	99.199484 
2456.000000	99.198996 
2455.000000	99.198160 
2454.000000	99.197330 
2453.000000	99.196874 
2452.000000	99.196791 
2451.000000	99.196782 
2450.000000	99.196741 
2449.000000	99.196966 
2448.000000	99.197699 
2447.000000	99.198681 
2446.000000	99.199369 
2445.000000	99.199549 
2444.000000	99.199424 
2443.000000	99.199245 
2442.000000	99.199075 
2441.000000	99.198918 
2440.000000	99.198878 
2439.000000	99.199112 
2438.000000	99.199737 
2437.000000	99.200791 
2436.000000	99.202134 
2435.000000	99.203356 
2434.000000	99.204016 
2433.000000	99.204022 
2432.000000	99.203709 
2431.000000	99.203547 
2430.000000	99.203791 
2429.000000	99.204487 
2428.000000	99.205583 
2427.000000	99.206897 
2426.000000	99.208047 
2425.000000	99.208414 
2424.000000	99.207439 
2423.000000	99.205400 
2422.000000	99.203445 
2421.000000	99.202874 
2420.000000	99.204381 
2419.000000	99.207353 
2418.000000	99.210158 
2417.000000	99.211816 
2416.000000	99.212952 
2415.000000	99.214466 
2414.000000	99.216064 
2413.000000	99.217078 
2412.000000	99.217823 
2411.000000	99.218817 
2410.000000	99.219482 
2409.000000	99.219152 
2408.000000	99.218702 
2407.000000	99.219465 
2406.000000	99.220844 
2405.000000	99.220561 
2404.000000	99.217372 
2403.000000	99.212447 
2402.000000	99.208222 
2401.000000	99.206797 
2400.000000	99.209010 
2399.000000	99.213824 
2398.000000	99.218902 
2397.000000	99.222779 
2396.000000	99.225899 
2395.000000	99.228723 
2394.000000	99.230087 
2393.000000	99.229119 
2392.000000	99.227687 
2391.000000	99.228768 
2390.000000	99.232706 
2389.000000	99.237123 
2388.000000	99.240601 
2387.000000	99.244542 
2386.000000	99.250905 
2385.000000	99.259496 
2384.000000	99.267983 
2383.000000	99.273287 
2382.000000	99.272414 
2381.000000	99.263603 
2380.000000	99.248027 
2379.000000	99.229731 
2378.000000	99.212661 
2377.000000	99.198387 
2376.000000	99.187836 
2375.000000	99.183439 
2374.000000	99.186888 
2373.000000	99.195604 
2372.000000	99.204162 
2371.000000	99.209851 
2370.000000	99.214077 
2369.000000	99.217797 
2368.000000	99.218946 
2367.000000	99.215804 
2366.000000	99.210153 
2365.000000	99.205295 
2364.000000	99.202690 
2363.000000	99.202232 
2362.000000	99.203847 
2361.000000	99.207042 
2360.000000	99.211347 
2359.000000	99.216022 
2358.000000	99.219251 
2357.000000	99.218740 
2356.000000	99.213577 
2355.000000	99.205369 
2354.000000	99.195483 
2353.000000	99.186929 
2352.000000	99.184813 
2351.000000	99.190840 
2350.000000	99.201270 
2349.000000	99.209507 
2348.000000	99.212527 
2347.000000	99.211261 
2346.000000	99.209303 
2345.000000	99.210603 
2344.000000	99.215363 
2343.000000	99.221012 
2342.000000	99.224099 
2341.000000	99.224330 
2340.000000	99.224132 
2339.000000	99.224845 
2338.000000	99.224930 
2337.000000	99.222663 
2336.000000	99.220235 
2335.000000	99.221157 
2334.000000	99.224705 
2333.000000	99.227357 
2332.000000	99.229230 
2331.000000	99.233156 
2330.000000	99.240602 
2329.000000	99.249048 
2328.000000	99.257883 
2327.000000	99.267156 
2326.000000	99.275117 
2325.000000	99.280686 
2324.000000	99.285037 
2323.000000	99.291562 
2322.000000	99.297898 
2321.000000	99.299129 
2320.000000	99.294149 
2319.000000	99.287508 
2318.000000	99.283738 
2317.000000	99.282247 
2316.000000	99.281399 
2315.000000	99.281048 
2314.000000	99.283098 
2313.000000	99.288186 
2312.000000	99.296725 
2311.000000	99.307952 
2310.000000	99.318678 
2309.000000	99.324411 
2308.000000	99.324205 
2307.000000	99.322532 
2306.000000	99.323622 
2305.000000	99.327668 
2304.000000	99.331487 
2303.000000	99.332971 
2302.000000	99.332516 
2301.000000	99.331948 
2300.000000	99.332310 
2299.000000	99.331854 
2298.000000	99.327389 
2297.000000	99.316977 
2296.000000	99.303173 
2295.000000	99.291160 
2294.000000	99.283787 
2293.000000	99.279334 
2292.000000	99.274764 
2291.000000	99.270023 
2290.000000	99.267194 
2289.000000	99.267682 
2288.000000	99.270216 
2287.000000	99.272185 
2286.000000	99.271225 
2285.000000	99.266969 
2284.000000	99.261048 
2283.000000	99.255607 
2282.000000	99.251121 
2281.000000	99.246567 
2280.000000	99.241321 
2279.000000	99.235988 
2278.000000	99.231224 
2277.000000	99.227017 
2276.000000	99.223812 
2275.000000	99.222751 
2274.000000	99.224623 
2273.000000	99.229301 
2272.000000	99.236194 
2271.000000	99.243585 
2270.000000	99.248159 
2269.000000	99.247491 
2268.000000	99.243171 
2267.000000	99.239563 
2266.000000	99.239099 
2265.000000	99.240365 
2264.000000	99.240899 
2263.000000	99.239721 
2262.000000	99.236917 
2261.000000	99.232924 
2260.000000	99.228864 
2259.000000	99.226079 
2258.000000	99.224571 
2257.000000	99.223335 
2256.000000	99.222434 
2255.000000	99.223276 
2254.000000	99.226226 
2253.000000	99.229177 
2252.000000	99.229615 
2251.000000	99.227047 
2250.000000	99.222481 
2249.000000	99.216977 
2248.000000	99.211666 
2247.000000	99.208087 
2246.000000	99.207028 
2245.000000	99.207469 
2244.000000	99.207442 
2243.000000	99.206101 
2242.000000	99.204176 
2241.000000	99.202669 
2240.000000	99.201892 
2239.000000	99.201678 
2238.000000	99.201739 
2237.000000	99.201721 
2236.000000	99.201347 
2235.000000	99.200610 
2234.000000	99.199660 
2233.000000	99.198595 
2232.000000	99.197451 
2231.000000	99.196299 
2230.000000	99.195190 
2229.000000	99.194080 
2228.000000	99.192946 
2227.000000	99.191937 
2226.000000	99.191204 
2225.000000	99.190638 
2224.000000	99.189897 
2223.000000	99.188830 
2222.000000	99.187611 
2221.000000	99.186528 
2220.000000	99.185653 
2219.000000	99.184836 
2218.000000	99.183944 
2217.000000	99.183012 
2216.000000	99.182159 
2215.000000	99.181429 
2214.000000	99.180753 
2213.000000	99.180044 
2212.000000	99.179320 
2211.000000	99.178673 
2210.000000	99.178145 
2209.000000	99.177701 
2208.000000	99.177290 
2207.000000	99.176877 
2206.000000	99.176447 
2205.000000	99.175991 
2204.000000	99.175505 
2203.000000	99.174994 
2202.000000	99.174484 
2201.000000	99.173978 
2200.000000	99.173389 
2199.000000	99.172598 
2198.000000	99.171565 
2197.000000	99.170416 
2196.000000	99.169371 
2195.000000	99.168537 
2194.000000	99.167852 
2193.000000	99.167257 
2192.000000	99.166870 
2191.000000	99.166803 
2190.000000	99.166890 
2189.000000	99.166814 
2188.000000	99.166505 
2187.000000	99.166157 
2186.000000	99.165771 
2185.000000	99.164996 
2184.000000	99.163700 
2183.000000	99.162510 
2182.000000	99.162279 
2181.000000	99.163168 
2180.000000	99.164435 
2179.000000	99.165123 
2178.000000	99.164964 
2177.000000	99.164311 
2176.000000	99.163708 
2175.000000	99.163455 
2174.000000	99.163563 
2173.000000	99.164066 
2172.000000	99.165231 
2171.000000	99.167237 
2170.000000	99.169509 
2169.000000	99.170785 
2168.000000	99.170322 
2167.000000	99.168774 
2166.000000	99.167635 
2165.000000	99.167428 
2164.000000	99.167225 
2163.000000	99.166250 
2162.000000	99.165399 
2161.000000	99.166243 
2160.000000	99.168975 
2159.000000	99.172264 
2158.000000	99.175125 
2157.000000	99.177958 
2156.000000	99.181292 
2155.000000	99.184590 
2154.000000	99.186937 
2153.000000	99.188379 
2152.000000	99.189868 
2151.000000	99.191826 
2150.000000	99.193451 
2149.000000	99.193904 
2148.000000	99.193590 
2147.000000	99.193614 
2146.000000	99.194336 
2145.000000	99.195400 
2144.000000	99.197031 
2143.000000	99.200084 
2142.000000	99.204427 
2141.000000	99.208193 
2140.000000	99.209624 
2139.000000	99.209113 
2138.000000	99.208969 
2137.000000	99.210969 
2136.000000	99.214628 
2135.000000	99.217738 
2134.000000	99.218481 
2133.000000	99.216881 
2132.000000	99.214764 
2131.000000	99.214274 
2130.000000	99.216135 
2129.000000	99.219393 
2128.000000	99.222428 
2127.000000	99.224361 
2126.000000	99.225387 
2125.000000	99.226172 
2124.000000	99.227101 
2123.000000	99.227862 
2122.000000	99.227728 
2121.000000	99.226298 
2120.000000	99.224022 
2119.000000	99.221847 
2118.000000	99.220406 
2117.000000	99.219808 
2116.000000	99.219996 
2115.000000	99.220716 
2114.000000	99.221057 
2113.000000	99.219914 
2112.000000	99.217445 
2111.000000	99.215428 
2110.000000	99.215408 
2109.000000	99.217041 
2108.000000	99.218790 
2107.000000	99.219708 
2106.000000	99.219853 
2105.000000	99.219603 
2104.000000	99.219518 
2103.000000	99.220244 
2102.000000	99.221391 
2101.000000	99.221098 
2100.000000	99.218155 
2099.000000	99.214376 
2098.000000	99.213263 
2097.000000	99.216119 
2096.000000	99.220846 
2095.000000	99.224739 
2094.000000	99.227082 
2093.000000	99.228563 
2092.000000	99.229583 
2091.000000	99.230175 
2090.000000	99.230812 
2089.000000	99.232040 
2088.000000	99.233369 
2087.000000	99.233255 
2086.000000	99.230478 
2085.000000	99.225477 
2084.000000	99.220371 
2083.000000	99.217278 
2082.000000	99.216622 
2081.000000	99.217503 
2080.000000	99.219499 
2079.000000	99.223121 
2078.000000	99.227833 
2077.000000	99.230910 
2076.000000	99.229946 
2075.000000	99.225666 
2074.000000	99.221212 
2073.000000	99.218340 
2072.000000	99.215919 
2071.000000	99.212586 
2070.000000	99.208877 
2069.000000	99.206214 
2068.000000	99.205085 
2067.000000	99.204867 
2066.000000	99.204761 
2065.000000	99.204171 
2064.000000	99.202723 
2063.000000	99.200647 
2062.000000	99.198996 
2061.000000	99.198947 
2060.000000	99.200714 
2059.000000	99.203478 
2058.000000	99.206017 
2057.000000	99.207349 
2056.000000	99.207144 
2055.000000	99.205639 
2054.000000	99.203527 
2053.000000	99.201697 
2052.000000	99.200669 
2051.000000	99.200211 
2050.000000	99.199622 
2049.000000	99.198528 
2048.000000	99.197337 
2047.000000	99.196737 
2046.000000	99.196882 
2045.000000	99.197339 
2044.000000	99.197683 
2043.000000	99.197865 
2042.000000	99.197998 
2041.000000	99.198124 
2040.000000	99.198342 
2039.000000	99.198940 
2038.000000	99.200092 
2037.000000	99.201443 
2036.000000	99.202265 
2035.000000	99.202086 
2034.000000	99.201180 
2033.000000	99.200553 
2032.000000	99.201179 
2031.000000	99.203007 
2030.000000	99.204625 
2029.000000	99.204461 
2028.000000	99.202400 
2027.000000	99.200024 
2026.000000	99.198957 
2025.000000	99.199324 
2024.000000	99.200261 
2023.000000	99.201427 
2022.000000	99.203357 
2021.000000	99.206154 
2020.000000	99.208462 
2019.000000	99.208332 
2018.000000	99.204919 
2017.000000	99.199260 
2016.000000	99.193804 
2015.000000	99.190417 
2014.000000	99.188908 
2013.000000	99.187570 
2012.000000	99.185469 
2011.000000	99.183923 
2010.000000	99.184736 
2009.000000	99.187609 
2008.000000	99.190272 
2007.000000	99.191164 
2006.000000	99.190799 
2005.000000	99.190277 
2004.000000	99.189811 
2003.000000	99.189391 
2002.000000	99.189668 
2001.000000	99.190904 
2000.000000	99.191553 
1999.000000	99.189263 
1998.000000	99.183403 
1997.000000	99.175885 
1996.000000	99.169663 
1995.000000	99.166440 
1994.000000	99.166040 
1993.000000	99.166996 
1992.000000	99.167488 
1991.000000	99.166737 
1990.000000	99.165673 
1989.000000	99.165866 
1988.000000	99.167589 
1987.000000	99.169203 
1986.000000	99.168754 
1985.000000	99.166026 
1984.000000	99.162515 
1983.000000	99.159729 
1982.000000	99.157962 
1981.000000	99.156801 
1980.000000	99.156102 
1979.000000	99.155927 
1978.000000	99.155878 
1977.000000	99.155163 
1976.000000	99.153492 
1975.000000	99.151641 
1974.000000	99.150912 
1973.000000	99.152030 
1972.000000	99.154515 
1971.000000	99.157011 
1970.000000	99.158350 
1969.000000	99.158220 
1968.000000	99.157026 
1967.000000	99.155529 
1966.000000	99.154543 
1965.000000	99.154679 
1964.000000	99.156140 
1963.000000	99.158647 
1962.000000	99.161554 
1961.000000	99.163993 
1960.000000	99.165136 
1959.000000	99.164681 
1958.000000	99.163324 
1957.000000	99.162537 
1956.000000	99.163233 
1955.000000	99.164871 
1954.000000	99.166024 
1953.000000	99.165966 
1952.000000	99.165234 
1951.000000	99.164709 
1950.000000	99.164664 
1949.000000	99.165066 
1948.000000	99.166058 
1947.000000	99.167587 
1946.000000	99.168953 
1945.000000	99.169400 
1944.000000	99.168967 
1943.000000	99.168314 
1942.000000	99.167864 
1941.000000	99.167566 
1940.000000	99.167419 
1939.000000	99.167573 
1938.000000	99.168064 
1937.000000	99.168905 
1936.000000	99.170204 
1935.000000	99.171803 
1934.000000	99.173154 
1933.000000	99.174035 
1932.000000	99.175003 
1931.000000	99.176628 
1930.000000	99.178540 
1929.000000	99.179821 
1928.000000	99.180258 
1927.000000	99.180431 
1926.000000	99.180666 
1925.000000	99.180683 
1924.000000	99.180457 
1923.000000	99.180536 
1922.000000	99.181129 
1921.000000	99.181745 
1920.000000	99.182030 
1919.000000	99.182142 
1918.000000	99.182140 
1917.000000	99.181852 
1916.000000	99.181453 
1915.000000	99.181412 
1914.000000	99.181861 
1913.000000	99.182405 
1912.000000	99.182644 
1911.000000	99.182653 
1910.000000	99.182724 
1909.000000	99.183003 
1908.000000	99.183416 
1907.000000	99.183801 
1906.000000	99.184037 
1905.000000	99.184142 
1904.000000	99.184216 
1903.000000	99.184350 
1902.000000	99.184546 
1901.000000	99.184765 
1900.000000	99.184982 
1899.000000	99.185188 
1898.000000	99.185378 
1897.000000	99.185541 
1896.000000	99.185669 
1895.000000	99.185757 
1894.000000	99.185808 
1893.000000	99.185832 
1892.000000	99.185849 
1891.000000	99.185885 
1890.000000	99.185959 
1889.000000	99.186074 
1888.000000	99.186225 
1887.000000	99.186412 
1886.000000	99.186633 
1885.000000	99.186883 
1884.000000	99.187154 
1883.000000	99.187452 
1882.000000	99.187792 
1881.000000	99.188188 
1880.000000	99.188642 
1879.000000	99.189144 
1878.000000	99.189680 
1877.000000	99.190247 
1876.000000	99.190854 
1875.000000	99.191511 
1874.000000	99.192214 
1873.000000	99.192942 
1872.000000	99.193674 
1871.000000	99.194405 
1870.000000	99.195137 
1869.000000	99.195879 
1868.000000	99.196642 
1867.000000	99.197440 
1866.000000	99.198280 
1865.000000	99.199158 
1864.000000	99.200078 
1863.000000	99.201048 
1862.000000	99.202071 
1861.000000	99.203138 
1860.000000	99.204228 
1859.000000	99.205327 
1858.000000	99.206434 
1857.000000	99.207548 
1856.000000	99.208671 
1855.000000	99.209804 
1854.000000	99.210949 
1853.000000	99.212110 
1852.000000	99.213290 
1851.000000	99.214493 
1850.000000	99.215720 
1849.000000	99.216959 
1848.000000	99.218187 
1847.000000	99.219391 
1846.000000	99.220577 
1845.000000	99.221760 
1844.000000	99.222936 
1843.000000	99.224107 
1842.000000	99.225271 
1841.000000	99.226380 
1840.000000	99.227433 
1839.000000	99.228531 
1838.000000	99.229718 
1837.000000	99.230834 
1836.000000	99.231713 
1835.000000	99.232479 
1834.000000	99.233392 
1833.000000	99.234413 
1832.000000	99.235269 
1831.000000	99.235849 
1830.000000	99.236390 
1829.000000	99.237213 
1828.000000	99.238355 
1827.000000	99.239690 
1826.000000	99.241158 
1825.000000	99.242586 
1824.000000	99.243601 
1823.000000	99.244076 
1822.000000	99.244268 
1821.000000	99.244382 
1820.000000	99.244415 
1819.000000	99.244466 
1818.000000	99.244806 
1817.000000	99.245448 
1816.000000	99.246094 
1815.000000	99.246595 
1814.000000	99.247109 
1813.000000	99.247728 
1812.000000	99.248265 
1811.000000	99.248568 
1810.000000	99.248765 
1809.000000	99.249028 
1808.000000	99.249372 
1807.000000	99.249753 
1806.000000	99.250136 
1805.000000	99.250479 
1804.000000	99.250774 
1803.000000	99.251096 
1802.000000	99.251501 
1801.000000	99.251926 
1800.000000	99.252264 
1799.000000	99.252541 
1798.000000	99.252870 
1797.000000	99.253263 
1796.000000	99.253639 
1795.000000	99.253963 
1794.000000	99.254289 
1793.000000	99.254652 
1792.000000	99.255014 
1791.000000	99.255370 
1790.000000	99.255738 
1789.000000	99.256106 
1788.000000	99.256466 
1787.000000	99.256826 
1786.000000	99.257187 
1785.000000	99.257531 
1784.000000	99.257846 
1783.000000	99.258146 
1782.000000	99.258451 
1781.000000	99.258783 
1780.000000	99.259156 
1779.000000	99.259573 
1778.000000	99.260023 
1777.000000	99.260486 
1776.000000	99.260938 
1775.000000	99.261353 
1774.000000	99.261722 
1773.000000	99.262075 
1772.000000	99.262450 
1771.000000	99.262863 
1770.000000	99.263312 
1769.000000	99.263797 
1768.000000	99.264316 
1767.000000	99.264826 
1766.000000	99.265261 
1765.000000	99.265615 
1764.000000	99.265930 
1763.000000	99.266244 
1762.000000	99.266578 
1761.000000	99.266948 
1760.000000	99.267361 
1759.000000	99.267800 
1758.000000	99.268263 
1757.000000	99.268804 
1756.000000	99.269450 
1755.000000	99.270055 
1754.000000	99.270399 
1753.000000	99.270428 
1752.000000	99.270393 
1751.000000	99.270614 
1750.000000	99.271126 
1749.000000	99.271664 
1748.000000	99.271968 
1747.000000	99.271958 
1746.000000	99.271728 
1745.000000	99.271639 
1744.000000	99.271984 
1743.000000	99.272516 
1742.000000	99.272682 
1741.000000	99.272363 
1740.000000	99.272080 
1739.000000	99.272489 
1738.000000	99.273532 
1737.000000	99.274398 
1736.000000	99.274672 
1735.000000	99.274881 
1734.000000	99.274823 
1733.000000	99.274041 
1732.000000	99.273303 
1731.000000	99.273506 
1730.000000	99.275203 
1729.000000	99.277816 
1728.000000	99.279556 
1727.000000	99.279289 
1726.000000	99.277579 
1725.000000	99.276145 
1724.000000	99.276033 
1723.000000	99.277252 
1722.000000	99.279295 
1721.000000	99.281118 
1720.000000	99.281605 
1719.000000	99.280777 
1718.000000	99.279918 
1717.000000	99.279094 
1716.000000	99.277344 
1715.000000	99.275454 
1714.000000	99.274543 
1713.000000	99.273867 
1712.000000	99.272248 
1711.000000	99.270166 
1710.000000	99.268939 
1709.000000	99.268356 
1708.000000	99.267017 
1707.000000	99.264858 
1706.000000	99.263422 
1705.000000	99.262693 
1704.000000	99.260977 
1703.000000	99.257756 
1702.000000	99.254795 
1701.000000	99.253567 
1700.000000	99.251579 
1699.000000	99.248402 
1698.000000	99.246387 
1697.000000	99.245110 
1696.000000	99.243709 
1695.000000	99.242497 
1694.000000	99.241724 
1693.000000	99.240580 
1692.000000	99.238286 
1691.000000	99.235153 
1690.000000	99.231782 
1689.000000	99.228546 
1688.000000	99.225565 
1687.000000	99.222801 
1686.000000	99.220629 
1685.000000	99.218966 
1684.000000	99.216470 
1683.000000	99.213205 
1682.000000	99.209944 
1681.000000	99.206842 
1680.000000	99.204332 
1679.000000	99.202341 
1678.000000	99.200262 
1677.000000	99.197832 
1676.000000	99.195219 
1675.000000	99.192413 
1674.000000	99.189247 
1673.000000	99.185884 
1672.000000	99.182615 
1671.000000	99.179695 
1670.000000	99.177047 
1669.000000	99.174505 
1668.000000	99.172341 
1667.000000	99.170493 
1666.000000	99.168452 
1665.000000	99.166012 
1664.000000	99.163466 
1663.000000	99.161186 
1662.000000	99.158965 
1661.000000	99.156459 
1660.000000	99.153845 
1659.000000	99.151406 
1658.000000	99.148984 
1657.000000	99.146277 
1656.000000	99.143378 
1655.000000	99.140734 
1654.000000	99.138510 
1653.000000	99.134921 
1652.000000	99.130679 
1651.000000	99.128072 
1650.000000	99.125822 
1649.000000	99.122939 
1648.000000	99.120343 
1647.000000	99.118648 
1646.000000	99.117610 
1645.000000	99.116530 
1644.000000	99.115019 
1643.000000	99.113308 
1642.000000	99.111784 
1641.000000	99.110481 
1640.000000	99.109169 
1639.000000	99.107441 
1638.000000	99.104898 
1637.000000	99.101847 
1636.000000	99.098961 
1635.000000	99.096729 
1634.000000	99.095549 
1633.000000	99.094524 
1632.000000	99.092770 
1631.000000	99.090964 
1630.000000	99.089441 
1629.000000	99.087761 
1628.000000	99.086342 
1627.000000	99.086024 
1626.000000	99.085854 
1625.000000	99.084339 
1624.000000	99.082298 
1623.000000	99.081708 
1622.000000	99.082294 
1621.000000	99.082092 
1620.000000	99.080443 
1619.000000	99.078206 
1618.000000	99.075905 
1617.000000	99.072081 
1616.000000	99.068051 
1615.000000	99.067128 
1614.000000	99.067424 
1613.000000	99.065360 
1612.000000	99.061413 
1611.000000	99.058016 
1610.000000	99.055942 
1609.000000	99.055571 
1608.000000	99.058565 
1607.000000	99.064186 
1606.000000	99.067931 
1605.000000	99.067650 
1604.000000	99.066282 
1603.000000	99.066372 
1602.000000	99.066960 
1601.000000	99.067334 
1600.000000	99.069024 
1599.000000	99.072460 
1598.000000	99.075172 
1597.000000	99.075358 
1596.000000	99.074451 
1595.000000	99.074713 
1594.000000	99.076262 
1593.000000	99.078176 
1592.000000	99.080475 
1591.000000	99.083219 
1590.000000	99.085460 
1589.000000	99.086858 
1588.000000	99.088665 
1587.000000	99.091701 
1586.000000	99.094796 
1585.000000	99.096723 
1584.000000	99.098420 
1583.000000	99.100936 
1582.000000	99.103424 
1581.000000	99.105161 
1580.000000	99.107052 
1579.000000	99.109782 
1578.000000	99.112942 
1577.000000	99.116237 
1576.000000	99.119780 
1575.000000	99.123704 
1574.000000	99.127279 
1573.000000	99.130136 
1572.000000	99.133370 
1571.000000	99.137872 
1570.000000	99.141500 
1569.000000	99.142312 
1568.000000	99.142367 
1567.000000	99.143186 
1566.000000	99.144054 
1565.000000	99.144747 
1564.000000	99.146149 
1563.000000	99.147563 
1562.000000	99.148093 
1561.000000	99.148386 
1560.000000	99.153424 
1559.000000	99.158341 
1558.000000	99.156020 
1557.000000	99.153015 
1556.000000	99.153754 
1555.000000	99.157586 
1554.000000	99.162512 
1553.000000	99.165616 
1552.000000	99.166468 
1551.000000	99.166281 
1550.000000	99.166541 
1549.000000	99.167222 
1548.000000	99.167650 
1547.000000	99.167860 
1546.000000	99.167900 
1545.000000	99.167430 
1544.000000	99.166544 
1543.000000	99.166116 
1542.000000	99.166791 
1541.000000	99.166676 
1540.000000	99.162286 
1539.000000	99.156558 
1538.000000	99.153689 
1537.000000	99.151599 
1536.000000	99.148294 
1535.000000	99.145126 
1534.000000	99.143380 
1533.000000	99.142159 
1532.000000	99.140120 
1531.000000	99.137052 
1530.000000	99.133191 
1529.000000	99.128715 
1528.000000	99.124223 
1527.000000	99.120900 
1526.000000	99.118599 
1525.000000	99.115209 
1524.000000	99.109705 
1523.000000	99.104028 
1522.000000	99.100566 
1521.000000	99.098155 
1520.000000	99.093504 
1519.000000	99.085809 
1518.000000	99.077113 
1517.000000	99.070098 
1516.000000	99.065794 
1515.000000	99.063214 
1514.000000	99.061025 
1513.000000	99.058285 
1512.000000	99.053797 
1511.000000	99.046997 
1510.000000	99.039224 
1509.000000	99.032446 
1508.000000	99.028006 
1507.000000	99.024677 
1506.000000	99.019639 
1505.000000	99.012449 
1504.000000	99.004719 
1503.000000	98.997316 
1502.000000	98.990513 
1501.000000	98.984322 
1500.000000	98.978301 
1499.000000	98.972069 
1498.000000	98.965890 
1497.000000	98.960061 
1496.000000	98.954233 
1495.000000	98.948696 
1494.000000	98.944169 
1493.000000	98.940645 
1492.000000	98.937566 
1491.000000	98.934370 
1490.000000	98.930552 
1489.000000	98.925293 
1488.000000	98.918074 
1487.000000	98.910369 
1486.000000	98.903652 
1485.000000	98.896798 
1484.000000	98.888648 
1483.000000	98.880211 
1482.000000	98.873547 
1481.000000	98.868756 
1480.000000	98.863651 
1479.000000	98.857217 
1478.000000	98.850838 
1477.000000	98.845505 
1476.000000	98.840289 
1475.000000	98.834786 
1474.000000	98.830181 
1473.000000	98.827190 
1472.000000	98.824572 
1471.000000	98.821030 
1470.000000	98.816213 
1469.000000	98.809668 
1468.000000	98.801217 
1467.000000	98.792392 
1466.000000	98.786340 
1465.000000	98.784819 
1464.000000	98.785738 
1463.000000	98.784893 
1462.000000	98.780224 
1461.000000	98.772434 
1460.000000	98.763691 
1459.000000	98.756496 
1458.000000	98.753275 
1457.000000	98.753349 
1456.000000	98.751530 
1455.000000	98.744105 
1454.000000	98.732826 
1453.000000	98.722126 
1452.000000	98.715226 
1451.000000	98.712798 
1450.000000	98.714729 
1449.000000	98.720809 
1448.000000	98.728391 
1447.000000	98.733479 
1446.000000	98.734514 
1445.000000	98.733608 
1444.000000	98.733326 
1443.000000	98.733713 
1442.000000	98.733574 
1441.000000	98.732056 
1440.000000	98.728581 
1439.000000	98.723480 
1438.000000	98.720618 
1437.000000	98.724158 
1436.000000	98.730626 
1435.000000	98.732577 
1434.000000	98.729799 
1433.000000	98.726918 
1432.000000	98.726560 
1431.000000	98.727732 
1430.000000	98.729127 
1429.000000	98.730719 
1428.000000	98.730608 
1427.000000	98.727042 
1426.000000	98.722140 
1425.000000	98.721202 
1424.000000	98.725120 
1423.000000	98.726746 
1422.000000	98.721353 
1421.000000	98.713576 
1420.000000	98.710296 
1419.000000	98.709615 
1418.000000	98.705495 
1417.000000	98.698182 
1416.000000	98.690994 
1415.000000	98.684528 
1414.000000	98.676737 
1413.000000	98.666910 
1412.000000	98.657386 
1411.000000	98.650288 
1410.000000	98.645812 
1409.000000	98.643367 
1408.000000	98.642805 
1407.000000	98.645311 
1406.000000	98.652412 
1405.000000	98.664954 
1404.000000	98.680822 
1403.000000	98.694664 
1402.000000	98.704261 
1401.000000	98.713906 
1400.000000	98.729233 
1399.000000	98.748327 
1398.000000	98.761161 
1397.000000	98.760197 
1396.000000	98.747993 
1395.000000	98.736323 
1394.000000	98.737629 
1393.000000	98.754938 
1392.000000	98.781065 
1391.000000	98.806040 
1390.000000	98.824031 
1389.000000	98.834761 
1388.000000	98.840710 
1387.000000	98.843631 
1386.000000	98.844012 
1385.000000	98.843711 
1384.000000	98.846167 
1383.000000	98.852981 
1382.000000	98.862519 
1381.000000	98.872403 
1380.000000	98.882513 
1379.000000	98.894192 
1378.000000	98.907378 
1377.000000	98.920458 
1376.000000	98.932513 
1375.000000	98.944329 
1374.000000	98.957433 
1373.000000	98.972767 
1372.000000	98.989709 
1371.000000	99.006838 
1370.000000	99.022901 
1369.000000	99.037420 
1368.000000	99.050604 
1367.000000	99.062157 
1366.000000	99.071816 
1365.000000	99.080914 
1364.000000	99.091591 
1363.000000	99.104120 
1362.000000	99.116128 
1361.000000	99.125934 
1360.000000	99.135257 
1359.000000	99.146675 
1358.000000	99.159908 
1357.000000	99.172470 
1356.000000	99.182861 
1355.000000	99.191486 
1354.000000	99.199469 
1353.000000	99.207800 
1352.000000	99.216833 
1351.000000	99.226347 
1350.000000	99.235138 
1349.000000	99.241746 
1348.000000	99.246025 
1347.000000	99.249394 
1346.000000	99.253796 
1345.000000	99.259882 
1344.000000	99.266202 
1343.000000	99.270503 
1342.000000	99.271986 
1341.000000	99.272141 
1340.000000	99.273230 
1339.000000	99.275883 
1338.000000	99.278927 
1337.000000	99.281418 
1336.000000	99.282985 
1335.000000	99.282832 
1334.000000	99.280532 
1333.000000	99.277435 
1332.000000	99.275652 
1331.000000	99.275776 
1330.000000	99.276814 
1329.000000	99.278146 
1328.000000	99.280096 
1327.000000	99.282591 
1326.000000	99.284496 
1325.000000	99.284667 
1324.000000	99.282666 
1323.000000	99.278324 
1322.000000	99.272213 
1321.000000	99.266508 
1320.000000	99.263902 
1319.000000	99.265241 
1318.000000	99.268991 
1317.000000	99.272905 
1316.000000	99.275189 
1315.000000	99.274624 
1314.000000	99.271556 
1313.000000	99.268834 
1312.000000	99.269587 
1311.000000	99.273459 
1310.000000	99.276822 
1309.000000	99.277224 
1308.000000	99.276102 
1307.000000	99.276483 
1306.000000	99.279182 
1305.000000	99.282506 
1304.000000	99.284648 
1303.000000	99.284785 
1302.000000	99.282830 
1301.000000	99.279584 
1300.000000	99.276976 
1299.000000	99.276925 
1298.000000	99.279435 
1297.000000	99.282257 
1296.000000	99.282843 
1295.000000	99.280693 
1294.000000	99.277737 
1293.000000	99.276320 
1292.000000	99.276800 
1291.000000	99.277457 
1290.000000	99.276844 
1289.000000	99.275407 
1288.000000	99.274163 
1287.000000	99.272655 
1286.000000	99.269502 
1285.000000	99.264753 
1284.000000	99.260338 
1283.000000	99.257775 
1282.000000	99.256224 
1281.000000	99.253474 
1280.000000	99.248615 
1279.000000	99.243047 
1278.000000	99.238983 
1277.000000	99.237382 
1276.000000	99.237026 
1275.000000	99.235486 
1274.000000	99.231209 
1273.000000	99.224777 
1272.000000	99.217933 
1271.000000	99.211512 
1270.000000	99.204743 
1269.000000	99.196629 
1268.000000	99.187328 
1267.000000	99.177774 
1266.000000	99.168493 
1265.000000	99.159450 
1264.000000	99.150877 
1263.000000	99.143450 
1262.000000	99.137224 
1261.000000	99.131018 
1260.000000	99.123878 
1259.000000	99.116847 
1258.000000	99.111946 
1257.000000	99.108969 
1256.000000	99.104642 
1255.000000	99.096352 
1254.000000	99.085816 
1253.000000	99.077069 
1252.000000	99.071245 
1251.000000	99.065889 
1250.000000	99.059829 
1249.000000	99.055993 
1248.000000	99.057625 
1247.000000	99.063439 
1246.000000	99.068244 
1245.000000	99.067409 
1244.000000	99.059810 
1243.000000	99.048532 
1242.000000	99.040385 
1241.000000	99.042098 
1240.000000	99.053772 
1239.000000	99.066759 
1238.000000	99.070973 
1237.000000	99.063949 
1236.000000	99.050732 
1235.000000	99.036534 
1234.000000	99.022536 
1233.000000	99.008387 
1232.000000	98.994852 
1231.000000	98.982733 
1230.000000	98.971992 
1229.000000	98.963169 
1228.000000	98.957341 
1227.000000	98.953393 
1226.000000	98.947467 
1225.000000	98.936752 
1224.000000	98.922418 
1223.000000	98.907605 
1222.000000	98.893653 
1221.000000	98.879514 
1220.000000	98.863953 
1219.000000	98.847089 
1218.000000	98.830069 
1217.000000	98.813651 
1216.000000	98.796776 
1215.000000	98.776879 
1214.000000	98.752896 
1213.000000	98.727798 
1212.000000	98.706128 
1211.000000	98.688311 
1210.000000	98.669237 
1209.000000	98.643889 
1208.000000	98.613092 
1207.000000	98.582510 
1206.000000	98.556568 
1205.000000	98.534230 
1204.000000	98.510568 
1203.000000	98.481754 
1202.000000	98.448712 
1201.000000	98.416153 
1200.000000	98.387741 
1199.000000	98.362565 
1198.000000	98.337142 
1197.000000	98.310224 
1196.000000	98.283924 
1195.000000	98.260218 
1194.000000	98.238288 
1193.000000	98.215852 
1192.000000	98.191623 
1191.000000	98.165801 
1190.000000	98.139338 
1189.000000	98.113149 
1188.000000	98.086944 
1187.000000	98.058842 
1186.000000	98.027598 
1185.000000	97.995049 
1184.000000	97.964370 
1183.000000	97.935853 
1182.000000	97.906805 
1181.000000	97.875984 
1180.000000	97.845203 
1179.000000	97.815398 
1178.000000	97.784031 
1177.000000	97.748257 
1176.000000	97.708235 
1175.000000	97.665519 
1174.000000	97.620721 
1173.000000	97.574941 
1172.000000	97.530878 
1171.000000	97.489442 
1170.000000	97.447269 
1169.000000	97.400926 
1168.000000	97.352280 
1167.000000	97.306648 
1166.000000	97.267183 
1165.000000	97.234673 
1164.000000	97.211622 
1163.000000	97.201934 
1162.000000	97.205923 
1161.000000	97.218656 
1160.000000	97.233652 
1159.000000	97.245921 
1158.000000	97.251725 
1157.000000	97.248255 
1156.000000	97.234129 
1155.000000	97.208856 
1154.000000	97.172600 
1153.000000	97.128184 
1152.000000	97.081913 
1151.000000	97.039480 
1150.000000	97.001261 
1149.000000	96.963982 
1148.000000	96.926044 
1147.000000	96.888019 
1146.000000	96.848681 
1145.000000	96.804696 
1144.000000	96.755219 
1143.000000	96.703804 
1142.000000	96.654404 
1141.000000	96.607379 
1140.000000	96.560406 
1139.000000	96.511672 
1138.000000	96.461511 
1137.000000	96.412027 
1136.000000	96.365069 
1135.000000	96.319499 
1134.000000	96.271204 
1133.000000	96.217357 
1132.000000	96.159701 
1131.000000	96.101754 
1130.000000	96.044137 
1129.000000	95.985147 
1128.000000	95.924490 
1127.000000	95.863038 
1126.000000	95.799674 
1125.000000	95.732047 
1124.000000	95.660580 
1123.000000	95.588828 
1122.000000	95.519651 
1121.000000	95.453317 
1120.000000	95.388942 
1119.000000	95.325151 
1118.000000	95.259867 
1117.000000	95.192394 
1116.000000	95.125367 
1115.000000	95.062111 
1114.000000	95.002648 
1113.000000	94.944608 
1112.000000	94.886797 
1111.000000	94.829091 
1110.000000	94.770597 
1109.000000	94.711177 
1108.000000	94.652616 
1107.000000	94.595321 
1106.000000	94.536361 
1105.000000	94.474140 
1104.000000	94.412494 
1103.000000	94.356038 
1102.000000	94.303635 
1101.000000	94.250918 
1100.000000	94.196982 
1099.000000	94.144599 
1098.000000	94.095462 
1097.000000	94.049640 
1096.000000	94.007549 
1095.000000	93.967166 
1094.000000	93.921172 
1093.000000	93.862889 
1092.000000	93.795103 
1091.000000	93.728289 
1090.000000	93.669974 
1089.000000	93.619732 
1088.000000	93.573448 
1087.000000	93.527330 
1086.000000	93.478194 
1085.000000	93.425191 
1084.000000	93.371990 
1083.000000	93.323201 
1082.000000	93.278720 
1081.000000	93.235564 
1080.000000	93.194484 
1079.000000	93.159634 
1078.000000	93.131771 
1077.000000	93.106960 
1076.000000	93.082317 
1075.000000	93.058150 
1074.000000	93.034612 
1073.000000	93.011374 
1072.000000	92.989332 
1071.000000	92.965382 
1070.000000	92.926218 
1069.000000	92.857379 
1068.000000	92.762020 
1067.000000	92.664789 
1066.000000	92.592175 
1065.000000	92.551952 
1064.000000	92.533183 
1063.000000	92.517842 
1062.000000	92.488578 
1061.000000	92.433376 
1060.000000	92.352036 
1059.000000	92.258360 
1058.000000	92.171047 
1057.000000	92.100472 
1056.000000	92.044150 
1055.000000	91.992041 
1054.000000	91.934998 
1053.000000	91.871261 
1052.000000	91.806633 
1051.000000	91.746771 
1050.000000	91.689632 
1049.000000	91.628254 
1048.000000	91.559261 
1047.000000	91.484469 
1046.000000	91.406511 
1045.000000	91.328033 
1044.000000	91.253237 
1043.000000	91.184486 
1042.000000	91.118043 
1041.000000	91.048015 
1040.000000	90.974324 
1039.000000	90.903448 
1038.000000	90.842996 
1037.000000	90.798754 
1036.000000	90.773363 
1035.000000	90.762832 
1034.000000	90.757600 
1033.000000	90.751531 
1032.000000	90.744825 
1031.000000	90.733840 
1030.000000	90.707896 
1029.000000	90.666574 
1028.000000	90.632114 
1027.000000	90.630028 
1026.000000	90.660220 
1025.000000	90.698885 
1024.000000	90.726905 
1023.000000	90.743930 
1022.000000	90.755884 
1021.000000	90.763787 
1020.000000	90.767766 
1019.000000	90.770571 
1018.000000	90.773558 
1017.000000	90.777086 
1016.000000	90.785692 
1015.000000	90.804434 
1014.000000	90.829839 
1013.000000	90.853146 
1012.000000	90.872621 
1011.000000	90.894177 
1010.000000	90.920643 
1009.000000	90.949814 
1008.000000	90.982532 
1007.000000	91.022931 
1006.000000	91.070642 
1005.000000	91.121878 
1004.000000	91.177684 
1003.000000	91.241368 
1002.000000	91.308339 
1001.000000	91.369229 
1000.000000	91.424034 
999.000000	 91.482921 
998.000000	 91.551558 
997.000000	 91.625120 
996.000000	 91.698245 
995.000000	 91.771869 
994.000000	 91.848243 
993.000000	 91.927371 
992.000000	 92.009984 
991.000000	 92.096456 
990.000000	 92.182110 
989.000000	 92.261455 
988.000000	 92.337603 
987.000000	 92.419324 
986.000000	 92.508766 
985.000000	 92.601075 
984.000000	 92.696252 
983.000000	 92.800975 
982.000000	 92.916555 
981.000000	 93.034216 
980.000000	 93.145545 
979.000000	 93.250438 
978.000000	 93.352131 
977.000000	 93.452034 
976.000000	 93.552580 
975.000000	 93.658128 
974.000000	 93.769129 
973.000000	 93.880468 
972.000000	 93.988404 
971.000000	 94.094577 
970.000000	 94.201177 
969.000000	 94.306720 
968.000000	 94.408567 
967.000000	 94.505856 
966.000000	 94.598787 
965.000000	 94.688626 
964.000000	 94.778922 
963.000000	 94.872787 
962.000000	 94.968389 
961.000000	 95.060718 
960.000000	 95.147456 
959.000000	 95.229391 
958.000000	 95.306017 
957.000000	 95.375397 
956.000000	 95.438360 
955.000000	 95.498947 
954.000000	 95.560604 
953.000000	 95.624727 
952.000000	 95.691310 
951.000000	 95.756923 
950.000000	 95.814291 
949.000000	 95.859448 
948.000000	 95.898065 
947.000000	 95.939365 
946.000000	 95.984582 
945.000000	 96.027093 
944.000000	 96.062919 
943.000000	 96.094730 
942.000000	 96.125744 
941.000000	 96.156220 
940.000000	 96.187100 
939.000000	 96.221305 
938.000000	 96.259590 
937.000000	 96.299464 
936.000000	 96.339164 
935.000000	 96.378593 
934.000000	 96.416110 
933.000000	 96.449256 
932.000000	 96.479396 
931.000000	 96.511252 
930.000000	 96.546666 
929.000000	 96.582435 
928.000000	 96.615227 
927.000000	 96.645364 
926.000000	 96.675000 
925.000000	 96.705064 
924.000000	 96.734068 
923.000000	 96.758085 
922.000000	 96.773333 
921.000000	 96.781732 
920.000000	 96.791960 
919.000000	 96.810986 
918.000000	 96.835547 
917.000000	 96.855556 
916.000000	 96.865485 
915.000000	 96.869703 
914.000000	 96.877968 
913.000000	 96.898488 
912.000000	 96.933481 
911.000000	 96.977525 
910.000000	 97.021308 
909.000000	 97.060621 
908.000000	 97.100200 
907.000000	 97.146313 
906.000000	 97.198938 
905.000000	 97.254366 
904.000000	 97.311322 
903.000000	 97.369644 
902.000000	 97.426473 
901.000000	 97.479436 
900.000000	 97.531176 
899.000000	 97.585966 
898.000000	 97.643606 
897.000000	 97.700724 
896.000000	 97.754742 
895.000000	 97.802322 
894.000000	 97.838613 
893.000000	 97.864253 
892.000000	 97.889750 
891.000000	 97.925907 
890.000000	 97.971465 
889.000000	 98.015954 
888.000000	 98.051863 
887.000000	 98.078070 
886.000000	 98.095590 
885.000000	 98.107718 
884.000000	 98.120976 
883.000000	 98.137236 
882.000000	 98.148096 
881.000000	 98.147435 
880.000000	 98.147356 
879.000000	 98.168850 
878.000000	 98.215851 
877.000000	 98.270295 
876.000000	 98.314864 
875.000000	 98.349562 
874.000000	 98.382000 
873.000000	 98.414621 
872.000000	 98.448235 
871.000000	 98.487268 
870.000000	 98.533192 
869.000000	 98.579804 
868.000000	 98.621428 
867.000000	 98.659822 
866.000000	 98.698033 
865.000000	 98.733875 
864.000000	 98.765255 
863.000000	 98.796759 
862.000000	 98.834792 
861.000000	 98.879399 
860.000000	 98.925673 
859.000000	 98.970024 
858.000000	 99.010885 
857.000000	 99.046337 
856.000000	 99.075164 
855.000000	 99.098205 
854.000000	 99.115761 
853.000000	 99.126225 
852.000000	 99.130110 
851.000000	 99.133110 
850.000000	 99.142410 
849.000000	 99.161240 
848.000000	 99.187642 
847.000000	 99.215808 
846.000000	 99.238713 
845.000000	 99.253479 
844.000000	 99.264423 
843.000000	 99.277080 
842.000000	 99.289883 
841.000000	 99.296625 
840.000000	 99.295833 
839.000000	 99.290969 
838.000000	 99.282188 
837.000000	 99.266572 
836.000000	 99.248155 
835.000000	 99.238798 
834.000000	 99.244197 
833.000000	 99.255553 
832.000000	 99.259893 
831.000000	 99.253364 
830.000000	 99.240787 
829.000000	 99.228269 
828.000000	 99.221559 
827.000000	 99.226043 
826.000000	 99.241044 
825.000000	 99.257561 
824.000000	 99.267830 
823.000000	 99.273906 
822.000000	 99.281925 
821.000000	 99.292407 
820.000000	 99.301384 
819.000000	 99.306320 
818.000000	 99.305349 
817.000000	 99.293688 
816.000000	 99.266164 
815.000000	 99.223198 
814.000000	 99.171521 
813.000000	 99.118344 
812.000000	 99.065093 
811.000000	 99.005183 
810.000000	 98.926952 
809.000000	 98.820623 
808.000000	 98.684239 
807.000000	 98.523551 
806.000000	 98.348006 
805.000000	 98.168540 
804.000000	 97.996551 
803.000000	 97.839626 
802.000000	 97.698746 
801.000000	 97.575099 
800.000000	 97.478999 
799.000000	 97.424925 
798.000000	 97.416687 
797.000000	 97.443359 
796.000000	 97.489643 
795.000000	 97.543648 
794.000000	 97.595757 
793.000000	 97.639743 
792.000000	 97.677268 
791.000000	 97.713808 
790.000000	 97.747972 
789.000000	 97.770649 
788.000000	 97.775094 
787.000000	 97.761017 
786.000000	 97.728360 
785.000000	 97.674723 
784.000000	 97.601325 
783.000000	 97.515973 
782.000000	 97.429245 
781.000000	 97.353362 
780.000000	 97.303531 
779.000000	 97.290909 
778.000000	 97.312227 
777.000000	 97.354022 
776.000000	 97.408422 
775.000000	 97.476647 
774.000000	 97.556637 
773.000000	 97.637947 
772.000000	 97.711832 
771.000000	 97.777570 
770.000000	 97.836421 
769.000000	 97.888054 
768.000000	 97.934884 
767.000000	 97.980355 
766.000000	 98.020196 
765.000000	 98.045560 
764.000000	 98.058883 
763.000000	 98.076579 
762.000000	 98.110076 
761.000000	 98.152484 
760.000000	 98.189701 
759.000000	 98.216742 
758.000000	 98.237578 
757.000000	 98.257405 
756.000000	 98.282812 
755.000000	 98.322502 
754.000000	 98.378133 
753.000000	 98.437074 
752.000000	 98.481371 
751.000000	 98.503682 
750.000000	 98.512175 
749.000000	 98.522283 
748.000000	 98.545101 
747.000000	 98.579921 
746.000000	 98.615407 
745.000000	 98.641539 
744.000000	 98.661671 
743.000000	 98.688025 
742.000000	 98.724611 
741.000000	 98.761836 
740.000000	 98.790419 
739.000000	 98.813143 
738.000000	 98.838708 
737.000000	 98.869556 
736.000000	 98.900524 
735.000000	 98.925748 
734.000000	 98.943388 
733.000000	 98.956821 
732.000000	 98.972882 
731.000000	 98.994779 
730.000000	 99.016314 
729.000000	 99.029214 
728.000000	 99.033573 
727.000000	 99.036145 
726.000000	 99.042881 
725.000000	 99.057531 
724.000000	 99.084330 
723.000000	 99.123831 
722.000000	 99.166053 
721.000000	 99.195683 
720.000000	 99.206305 
719.000000	 99.204665 
718.000000	 99.200377 
717.000000	 99.198613 
716.000000	 99.204102 
715.000000	 99.220164 
714.000000	 99.239723 
713.000000	 99.249379 
712.000000	 99.246915 
711.000000	 99.242039 
710.000000	 99.238261 
709.000000	 99.235896 
708.000000	 99.232831 
707.000000	 99.228055 
706.000000	 99.221742 
705.000000	 99.211847 
704.000000	 99.196537 
703.000000	 99.178125 
702.000000	 99.159402 
701.000000	 99.138941 
700.000000	 99.113805 
699.000000	 99.083182 
698.000000	 99.049674 
697.000000	 99.018198 
696.000000	 98.993952 
695.000000	 98.981383 
694.000000	 98.981492 
693.000000	 98.991428 
692.000000	 99.007580 
691.000000	 99.026286 
690.000000	 99.043845 
689.000000	 99.057542 
688.000000	 99.066943 
687.000000	 99.073559 
686.000000	 99.077970 
685.000000	 99.079816 
684.000000	 99.080502 
683.000000	 99.082364 
682.000000	 99.085837 
681.000000	 99.089610 
680.000000	 99.093162 
679.000000	 99.096672 
678.000000	 99.099511 
677.000000	 99.102051 
676.000000	 99.105730 
675.000000	 99.111538 
674.000000	 99.118106 
673.000000	 99.121491 
672.000000	 99.118274 
671.000000	 99.106533 
670.000000	 99.085119 
669.000000	 99.058138 
668.000000	 99.048475 
667.000000	 99.072841 
666.000000	 99.114241 
665.000000	 99.146023 
664.000000	 99.166056 
663.000000	 99.179498 
662.000000	 99.190511 
661.000000	 99.201123 
660.000000	 99.211669 
659.000000	 99.222143 
658.000000	 99.232471 
657.000000	 99.242604 
656.000000	 99.251337 
655.000000	 99.257311 
654.000000	 99.260718 
653.000000	 99.263027 
652.000000	 99.265724 
651.000000	 99.270391 
650.000000	 99.278065 

