4000.000000	96.041481 
3999.000000	96.039253 
3998.000000	96.035179 
3997.000000	96.031098 
3996.000000	96.028340 
3995.000000	96.027263 
3994.000000	96.027568 
3993.000000	96.028456 
3992.000000	96.028917 
3991.000000	96.028424 
3990.000000	96.027363 
3989.000000	96.026424 
3988.000000	96.025653 
3987.000000	96.024718 
3986.000000	96.023935 
3985.000000	96.024246 
3984.000000	96.025957 
3983.000000	96.028097 
3982.000000	96.029547 
3981.000000	96.030224 
3980.000000	96.030603 
3979.000000	96.030581 
3978.000000	96.029613 
3977.000000	96.027798 
3976.000000	96.026073 
3975.000000	96.025055 
3974.000000	96.024371 
3973.000000	96.023269 
3972.000000	96.021385 
3971.000000	96.018915 
3970.000000	96.016480 
3969.000000	96.014967 
3968.000000	96.014925 
3967.000000	96.016062 
3966.000000	96.017405 
3965.000000	96.017950 
3964.000000	96.017178 
3963.000000	96.015211 
3962.000000	96.012786 
3961.000000	96.010840 
3960.000000	96.009678 
3959.000000	96.008865 
3958.000000	96.008039 
3957.000000	96.007552 
3956.000000	96.007774 
3955.000000	96.008346 
3954.000000	96.008574 
3953.000000	96.008188 
3952.000000	96.007413 
3951.000000	96.006367 
3950.000000	96.004891 
3949.000000	96.002870 
3948.000000	96.000585 
3947.000000	95.998700 
3946.000000	95.997676 
3945.000000	95.997240 
3944.000000	95.996657 
3943.000000	95.995809 
3942.000000	95.995497 
3941.000000	95.996322 
3940.000000	95.997787 
3939.000000	95.998774 
3938.000000	95.998727 
3937.000000	95.998185 
3936.000000	95.997705 
3935.000000	95.996844 
3934.000000	95.994916 
3933.000000	95.992298 
3932.000000	95.990331 
3931.000000	95.989499 
3930.000000	95.989156 
3929.000000	95.989022 
3928.000000	95.989614 
3927.000000	95.990916 
3926.000000	95.991573 
3925.000000	95.990722 
3924.000000	95.989318 
3923.000000	95.988406 
3922.000000	95.987556 
3921.000000	95.986130 
3920.000000	95.984649 
3919.000000	95.984044 
3918.000000	95.984148 
3917.000000	95.984188 
3916.000000	95.984052 
3915.000000	95.984098 
3914.000000	95.984245 
3913.000000	95.984139 
3912.000000	95.983714 
3911.000000	95.983203 
3910.000000	95.982666 
3909.000000	95.982053 
3908.000000	95.981366 
3907.000000	95.980636 
3906.000000	95.979866 
3905.000000	95.979125 
3904.000000	95.978476 
3903.000000	95.977875 
3902.000000	95.977297 
3901.000000	95.976753 
3900.000000	95.976243 
3899.000000	95.975766 
3898.000000	95.975322 
3897.000000	95.974901 
3896.000000	95.974487 
3895.000000	95.974076 
3894.000000	95.973671 
3893.000000	95.973275 
3892.000000	95.972880 
3891.000000	95.972475 
3890.000000	95.972060 
3889.000000	95.971645 
3888.000000	95.971231 
3887.000000	95.970812 
3886.000000	95.970383 
3885.000000	95.969954 
3884.000000	95.969526 
3883.000000	95.969095 
3882.000000	95.968655 
3881.000000	95.968222 
3880.000000	95.967826 
3879.000000	95.967483 
3878.000000	95.967180 
3877.000000	95.966890 
3876.000000	95.966591 
3875.000000	95.966279 
3874.000000	95.965967 
3873.000000	95.965668 
3872.000000	95.965383 
3871.000000	95.965103 
3870.000000	95.964839 
3869.000000	95.964618 
3868.000000	95.964450 
3867.000000	95.964317 
3866.000000	95.964203 
3865.000000	95.964117 
3864.000000	95.964075 
3863.000000	95.964069 
3862.000000	95.964070 
3861.000000	95.964061 
3860.000000	95.964047 
3859.000000	95.964030 
3858.000000	95.964005 
3857.000000	95.963969 
3856.000000	95.963924 
3855.000000	95.963874 
3854.000000	95.963825 
3853.000000	95.963791 
3852.000000	95.963776 
3851.000000	95.963773 
3850.000000	95.963785 
3849.000000	95.963816 
3848.000000	95.963870 
3847.000000	95.963940 
3846.000000	95.964016 
3845.000000	95.964089 
3844.000000	95.964159 
3843.000000	95.964232 
3842.000000	95.964326 
3841.000000	95.964457 
3840.000000	95.964627 
3839.000000	95.964826 
3838.000000	95.965031 
3837.000000	95.965227 
3836.000000	95.965412 
3835.000000	95.965601 
3834.000000	95.965805 
3833.000000	95.966033 
3832.000000	95.966285 
3831.000000	95.966558 
3830.000000	95.966849 
3829.000000	95.967156 
3828.000000	95.967477 
3827.000000	95.967801 
3826.000000	95.968119 
3825.000000	95.968433 
3824.000000	95.968751 
3823.000000	95.969073 
3822.000000	95.969393 
3821.000000	95.969724 
3820.000000	95.970094 
3819.000000	95.970517 
3818.000000	95.970979 
3817.000000	95.971450 
3816.000000	95.971921 
3815.000000	95.972396 
3814.000000	95.972867 
3813.000000	95.973317 
3812.000000	95.973738 
3811.000000	95.974146 
3810.000000	95.974560 
3809.000000	95.974980 
3808.000000	95.975391 
3807.000000	95.975779 
3806.000000	95.976157 
3805.000000	95.976543 
3804.000000	95.976946 
3803.000000	95.977357 
3802.000000	95.977775 
3801.000000	95.978207 
3800.000000	95.978647 
3799.000000	95.979072 
3798.000000	95.979461 
3797.000000	95.979821 
3796.000000	95.980168 
3795.000000	95.980499 
3794.000000	95.980793 
3793.000000	95.981031 
3792.000000	95.981210 
3791.000000	95.981327 
3790.000000	95.981377 
3789.000000	95.981356 
3788.000000	95.981271 
3787.000000	95.981129 
3786.000000	95.980933 
3785.000000	95.980696 
3784.000000	95.980430 
3783.000000	95.980136 
3782.000000	95.979802 
3781.000000	95.979420 
3780.000000	95.978997 
3779.000000	95.978533 
3778.000000	95.978007 
3777.000000	95.977392 
3776.000000	95.976687 
3775.000000	95.975917 
3774.000000	95.975113 
3773.000000	95.974289 
3772.000000	95.973450 
3771.000000	95.972599 
3770.000000	95.971743 
3769.000000	95.970880 
3768.000000	95.969990 
3767.000000	95.969075 
3766.000000	95.968141 
3765.000000	95.967120 
3764.000000	95.966114 
3763.000000	95.965407 
3762.000000	95.964854 
3761.000000	95.963795 
3760.000000	95.962348 
3759.000000	95.961645 
3758.000000	95.961161 
3757.000000	95.959169 
3756.000000	95.955939 
3755.000000	95.952925 
3754.000000	95.949590 
3753.000000	95.944612 
3752.000000	95.940996 
3751.000000	95.941753 
3750.000000	95.941168 
3749.000000	95.934201 
3748.000000	95.927927 
3747.000000	95.930746 
3746.000000	95.936882 
3745.000000	95.935500 
3744.000000	95.933350 
3743.000000	95.938350 
3742.000000	95.941781 
3741.000000	95.934629 
3740.000000	95.920990 
3739.000000	95.914685 
3738.000000	95.918485 
3737.000000	95.918911 
3736.000000	95.910261 
3735.000000	95.906243 
3734.000000	95.916469 
3733.000000	95.929205 
3732.000000	95.931802 
3731.000000	95.927055 
3730.000000	95.923248 
3729.000000	95.920912 
3728.000000	95.913869 
3727.000000	95.901493 
3726.000000	95.892897 
3725.000000	95.892643 
3724.000000	95.894358 
3723.000000	95.892657 
3722.000000	95.890395 
3721.000000	95.890381 
3720.000000	95.889274 
3719.000000	95.883340 
3718.000000	95.871688 
3717.000000	95.858189 
3716.000000	95.847274 
3715.000000	95.836345 
3714.000000	95.818875 
3713.000000	95.795752 
3712.000000	95.778143 
3711.000000	95.772032 
3710.000000	95.769076 
3709.000000	95.759583 
3708.000000	95.740744 
3707.000000	95.715206 
3706.000000	95.688080 
3705.000000	95.662841 
3704.000000	95.639086 
3703.000000	95.614102 
3702.000000	95.585849 
3701.000000	95.554052 
3700.000000	95.520855 
3699.000000	95.489875 
3698.000000	95.462391 
3697.000000	95.439333 
3696.000000	95.425291 
3695.000000	95.420869 
3694.000000	95.418012 
3693.000000	95.410667 
3692.000000	95.404032 
3691.000000	95.406974 
3690.000000	95.417242 
3689.000000	95.424132 
3688.000000	95.422149 
3687.000000	95.414679 
3686.000000	95.404548 
3685.000000	95.388621 
3684.000000	95.366511 
3683.000000	95.346595 
3682.000000	95.333707 
3681.000000	95.317692 
3680.000000	95.288856 
3679.000000	95.254641 
3678.000000	95.227023 
3677.000000	95.196162 
3676.000000	95.149941 
3675.000000	95.102697 
3674.000000	95.069396 
3673.000000	95.044626 
3672.000000	95.011336 
3671.000000	94.962134 
3670.000000	94.916403 
3669.000000	94.890661 
3668.000000	94.871202 
3667.000000	94.841793 
3666.000000	94.804135 
3665.000000	94.766842 
3664.000000	94.732652 
3663.000000	94.696999 
3662.000000	94.653833 
3661.000000	94.603247 
3660.000000	94.552547 
3659.000000	94.506552 
3658.000000	94.460776 
3657.000000	94.405222 
3656.000000	94.340577 
3655.000000	94.278827 
3654.000000	94.228410 
3653.000000	94.185426 
3652.000000	94.137214 
3651.000000	94.077586 
3650.000000	94.015332 
3649.000000	93.957554 
3648.000000	93.902053 
3647.000000	93.852666 
3646.000000	93.817510 
3645.000000	93.795604 
3644.000000	93.776835 
3643.000000	93.752911 
3642.000000	93.723315 
3641.000000	93.692076 
3640.000000	93.659171 
3639.000000	93.620705 
3638.000000	93.577309 
3637.000000	93.533678 
3636.000000	93.489999 
3635.000000	93.440147 
3634.000000	93.385185 
3633.000000	93.337596 
3632.000000	93.304868 
3631.000000	93.273012 
3630.000000	93.220067 
3629.000000	93.154267 
3628.000000	93.102588 
3627.000000	93.069391 
3626.000000	93.043486 
3625.000000	93.020636 
3624.000000	93.005816 
3623.000000	93.004051 
3622.000000	93.009852 
3621.000000	93.009842 
3620.000000	92.999234 
3619.000000	92.988147 
3618.000000	92.987565 
3617.000000	93.001498 
3616.000000	93.029731 
3615.000000	93.066419 
3614.000000	93.103545 
3613.000000	93.137903 
3612.000000	93.170336 
3611.000000	93.199710 
3610.000000	93.222830 
3609.000000	93.240149 
3608.000000	93.256875 
3607.000000	93.276109 
3606.000000	93.295679 
3605.000000	93.314823 
3604.000000	93.336583 
3603.000000	93.362733 
3602.000000	93.389587 
3601.000000	93.410401 
3600.000000	93.423630 
3599.000000	93.432549 
3598.000000	93.440570 
3597.000000	93.450034 
3596.000000	93.462618 
3595.000000	93.475937 
3594.000000	93.486566 
3593.000000	93.493709 
3592.000000	93.499724 
3591.000000	93.506388 
3590.000000	93.510207 
3589.000000	93.505962 
3588.000000	93.496506 
3587.000000	93.491709 
3586.000000	93.495744 
3585.000000	93.505107 
3584.000000	93.516126 
3583.000000	93.527018 
3582.000000	93.536034 
3581.000000	93.540462 
3580.000000	93.539241 
3579.000000	93.533935 
3578.000000	93.527019 
3577.000000	93.519628 
3576.000000	93.511448 
3575.000000	93.501879 
3574.000000	93.490917 
3573.000000	93.479688 
3572.000000	93.469149 
3571.000000	93.459266 
3570.000000	93.447271 
3569.000000	93.428551 
3568.000000	93.403523 
3567.000000	93.380390 
3566.000000	93.365073 
3565.000000	93.355541 
3564.000000	93.347966 
3563.000000	93.341103 
3562.000000	93.335379 
3561.000000	93.331121 
3560.000000	93.327840 
3559.000000	93.324838 
3558.000000	93.321537 
3557.000000	93.317953 
3556.000000	93.314426 
3555.000000	93.310479 
3554.000000	93.304097 
3553.000000	93.294035 
3552.000000	93.282459 
3551.000000	93.273425 
3550.000000	93.268877 
3549.000000	93.267092 
3548.000000	93.264819 
3547.000000	93.259710 
3546.000000	93.250857 
3545.000000	93.239408 
3544.000000	93.229282 
3543.000000	93.225000 
3542.000000	93.227871 
3541.000000	93.235510 
3540.000000	93.244247 
3539.000000	93.251025 
3538.000000	93.253728 
3537.000000	93.251948 
3536.000000	93.247693 
3535.000000	93.243381 
3534.000000	93.239976 
3533.000000	93.237627 
3532.000000	93.237946 
3531.000000	93.243035 
3530.000000	93.251772 
3529.000000	93.259001 
3528.000000	93.260119 
3527.000000	93.255508 
3526.000000	93.249148 
3525.000000	93.244530 
3524.000000	93.243053 
3523.000000	93.244854 
3522.000000	93.249102 
3521.000000	93.254253 
3520.000000	93.259261 
3519.000000	93.264346 
3518.000000	93.270044 
3517.000000	93.275336 
3516.000000	93.277829 
3515.000000	93.276335 
3514.000000	93.273043 
3513.000000	93.271613 
3512.000000	93.273031 
3511.000000	93.274636 
3510.000000	93.273692 
3509.000000	93.270912 
3508.000000	93.269640 
3507.000000	93.271794 
3506.000000	93.275393 
3505.000000	93.276368 
3504.000000	93.272573 
3503.000000	93.265589 
3502.000000	93.259018 
3501.000000	93.255589 
3500.000000	93.255836 
3499.000000	93.258390 
3498.000000	93.260834 
3497.000000	93.260971 
3496.000000	93.258033 
3495.000000	93.253223 
3494.000000	93.249179 
3493.000000	93.248078 
3492.000000	93.249459 
3491.000000	93.250357 
3490.000000	93.248288 
3489.000000	93.243555 
3488.000000	93.237992 
3487.000000	93.232130 
3486.000000	93.225087 
3485.000000	93.217309 
3484.000000	93.211350 
3483.000000	93.208879 
3482.000000	93.208426 
3481.000000	93.207243 
3480.000000	93.204476 
3479.000000	93.201048 
3478.000000	93.197208 
3477.000000	93.191938 
3476.000000	93.184784 
3475.000000	93.176986 
3474.000000	93.170226 
3473.000000	93.165087 
3472.000000	93.160840 
3471.000000	93.156248 
3470.000000	93.150559 
3469.000000	93.143971 
3468.000000	93.137219 
3467.000000	93.130895 
3466.000000	93.125051 
3465.000000	93.119147 
3464.000000	93.112113 
3463.000000	93.102665 
3462.000000	93.090330 
3461.000000	93.076472 
3460.000000	93.063680 
3459.000000	93.053378 
3458.000000	93.044337 
3457.000000	93.034090 
3456.000000	93.021817 
3455.000000	93.009335 
3454.000000	92.999175 
3453.000000	92.991969 
3452.000000	92.986625 
3451.000000	92.981872 
3450.000000	92.976447 
3449.000000	92.968337 
3448.000000	92.955514 
3447.000000	92.938224 
3446.000000	92.919459 
3445.000000	92.902673 
3444.000000	92.889326 
3443.000000	92.878597 
3442.000000	92.868564 
3441.000000	92.857405 
3440.000000	92.844248 
3439.000000	92.829457 
3438.000000	92.814080 
3437.000000	92.798770 
3436.000000	92.783735 
3435.000000	92.769701 
3434.000000	92.757978 
3433.000000	92.748811 
3432.000000	92.740606 
3431.000000	92.731055 
3430.000000	92.718661 
3429.000000	92.703192 
3428.000000	92.685181 
3427.000000	92.665829 
3426.000000	92.647200 
3425.000000	92.631603 
3424.000000	92.619623 
3423.000000	92.608739 
3422.000000	92.595068 
3421.000000	92.577180 
3420.000000	92.557458 
3419.000000	92.539126 
3418.000000	92.523043 
3417.000000	92.508253 
3416.000000	92.494398 
3415.000000	92.481840 
3414.000000	92.469800 
3413.000000	92.456287 
3412.000000	92.440472 
3411.000000	92.423972 
3410.000000	92.409270 
3409.000000	92.397791 
3408.000000	92.389663 
3407.000000	92.384157 
3406.000000	92.379817 
3405.000000	92.375051 
3404.000000	92.369194 
3403.000000	92.362760 
3402.000000	92.356776 
3401.000000	92.351966 
3400.000000	92.348343 
3399.000000	92.345075 
3398.000000	92.341225 
3397.000000	92.337211 
3396.000000	92.335134 
3395.000000	92.337040 
3394.000000	92.342757 
3393.000000	92.349669 
3392.000000	92.354589 
3391.000000	92.356069 
3390.000000	92.355339 
3389.000000	92.355334 
3388.000000	92.358552 
3387.000000	92.365382 
3386.000000	92.374113 
3385.000000	92.382202 
3384.000000	92.387622 
3383.000000	92.389945 
3382.000000	92.391198 
3381.000000	92.394911 
3380.000000	92.402897 
3379.000000	92.413042 
3378.000000	92.421738 
3377.000000	92.428484 
3376.000000	92.436080 
3375.000000	92.446075 
3374.000000	92.456248 
3373.000000	92.463756 
3372.000000	92.469158 
3371.000000	92.475719 
3370.000000	92.485362 
3369.000000	92.496587 
3368.000000	92.506095 
3367.000000	92.511707 
3366.000000	92.513966 
3365.000000	92.515582 
3364.000000	92.519157 
3363.000000	92.524963 
3362.000000	92.531140 
3361.000000	92.536259 
3360.000000	92.541177 
3359.000000	92.547892 
3358.000000	92.557080 
3357.000000	92.567372 
3356.000000	92.576775 
3355.000000	92.584272 
3354.000000	92.590269 
3353.000000	92.596049 
3352.000000	92.602753 
3351.000000	92.610514 
3350.000000	92.618476 
3349.000000	92.625760 
3348.000000	92.632407 
3347.000000	92.639302 
3346.000000	92.647150 
3345.000000	92.655579 
3344.000000	92.663343 
3343.000000	92.669533 
3342.000000	92.674489 
3341.000000	92.679461 
3340.000000	92.685346 
3339.000000	92.691917 
3338.000000	92.698524 
3337.000000	92.704904 
3336.000000	92.711195 
3335.000000	92.717558 
3334.000000	92.724013 
3333.000000	92.730501 
3332.000000	92.736983 
3331.000000	92.743451 
3330.000000	92.749902 
3329.000000	92.756334 
3328.000000	92.762749 
3327.000000	92.769148 
3326.000000	92.775529 
3325.000000	92.781888 
3324.000000	92.788222 
3323.000000	92.794531 
3322.000000	92.800817 
3321.000000	92.807082 
3320.000000	92.813330 
3319.000000	92.819563 
3318.000000	92.825779 
3317.000000	92.831980 
3316.000000	92.838164 
3315.000000	92.844326 
3314.000000	92.850465 
3313.000000	92.856584 
3312.000000	92.862692 
3311.000000	92.868795 
3310.000000	92.874896 
3309.000000	92.880986 
3308.000000	92.887054 
3307.000000	92.893087 
3306.000000	92.899081 
3305.000000	92.905041 
3304.000000	92.910983 
3303.000000	92.916923 
3302.000000	92.922868 
3301.000000	92.928813 
3300.000000	92.934749 
3299.000000	92.940664 
3298.000000	92.946555 
3297.000000	92.952428 
3296.000000	92.958294 
3295.000000	92.964165 
3294.000000	92.970040 
3293.000000	92.975913 
3292.000000	92.981776 
3291.000000	92.987623 
3290.000000	92.993446 
3289.000000	92.999242 
3288.000000	93.005012 
3287.000000	93.010758 
3286.000000	93.016488 
3285.000000	93.022208 
3284.000000	93.027924 
3283.000000	93.033642 
3282.000000	93.039371 
3281.000000	93.045123 
3280.000000	93.050899 
3279.000000	93.056683 
3278.000000	93.062444 
3277.000000	93.068188 
3276.000000	93.073969 
3275.000000	93.079825 
3274.000000	93.085699 
3273.000000	93.091509 
3272.000000	93.097280 
3271.000000	93.103129 
3270.000000	93.109097 
3269.000000	93.115052 
3268.000000	93.120805 
3267.000000	93.126298 
3266.000000	93.131714 
3265.000000	93.137402 
3264.000000	93.143642 
3263.000000	93.150384 
3262.000000	93.157220 
3261.000000	93.163731 
3260.000000	93.169741 
3259.000000	93.175262 
3258.000000	93.180412 
3257.000000	93.185555 
3256.000000	93.191291 
3255.000000	93.197885 
3254.000000	93.204821 
3253.000000	93.211299 
3252.000000	93.217233 
3251.000000	93.223282 
3250.000000	93.229824 
3249.000000	93.236357 
3248.000000	93.242199 
3247.000000	93.247499 
3246.000000	93.253170 
3245.000000	93.259869 
3244.000000	93.267336 
3243.000000	93.274703 
3242.000000	93.281288 
3241.000000	93.287070 
3240.000000	93.292584 
3239.000000	93.298569 
3238.000000	93.305600 
3237.000000	93.313882 
3236.000000	93.323204 
3235.000000	93.332993 
3234.000000	93.342487 
3233.000000	93.351005 
3232.000000	93.358211 
3231.000000	93.364291 
3230.000000	93.369932 
3229.000000	93.375957 
3228.000000	93.382845 
3227.000000	93.390553 
3226.000000	93.398728 
3225.000000	93.406981 
3224.000000	93.415041 
3223.000000	93.422824 
3222.000000	93.430503 
3221.000000	93.438395 
3220.000000	93.446600 
3219.000000	93.454859 
3218.000000	93.462843 
3217.000000	93.470511 
3216.000000	93.478071 
3215.000000	93.485751 
3214.000000	93.493675 
3213.000000	93.501813 
3212.000000	93.509984 
3211.000000	93.518019 
3210.000000	93.525994 
3209.000000	93.534153 
3208.000000	93.542563 
3207.000000	93.551012 
3206.000000	93.559309 
3205.000000	93.567519 
3204.000000	93.575816 
3203.000000	93.584228 
3202.000000	93.592655 
3201.000000	93.601029 
3200.000000	93.609372 
3199.000000	93.617725 
3198.000000	93.626101 
3197.000000	93.634490 
3196.000000	93.642892 
3195.000000	93.651305 
3194.000000	93.659730 
3193.000000	93.668173 
3192.000000	93.676637 
3191.000000	93.685121 
3190.000000	93.693620 
3189.000000	93.702130 
3188.000000	93.710651 
3187.000000	93.719189 
3186.000000	93.727748 
3185.000000	93.736330 
3184.000000	93.744929 
3183.000000	93.753537 
3182.000000	93.762149 
3181.000000	93.770759 
3180.000000	93.779365 
3179.000000	93.787964 
3178.000000	93.796555 
3177.000000	93.805146 
3176.000000	93.813745 
3175.000000	93.822358 
3174.000000	93.830977 
3173.000000	93.839586 
3172.000000	93.848168 
3171.000000	93.856705 
3170.000000	93.865183 
3169.000000	93.873633 
3168.000000	93.882118 
3167.000000	93.890685 
3166.000000	93.899306 
3165.000000	93.907893 
3164.000000	93.916377 
3163.000000	93.924734 
3162.000000	93.932967 
3161.000000	93.941101 
3160.000000	93.949224 
3159.000000	93.957476 
3158.000000	93.965963 
3157.000000	93.974681 
3156.000000	93.983491 
3155.000000	93.992206 
3154.000000	94.000733 
3153.000000	94.009130 
3152.000000	94.017472 
3151.000000	94.025665 
3150.000000	94.033558 
3149.000000	94.041180 
3148.000000	94.048762 
3147.000000	94.056515 
3146.000000	94.064570 
3145.000000	94.073092 
3144.000000	94.082202 
3143.000000	94.091577 
3142.000000	94.100483 
3141.000000	94.108530 
3140.000000	94.116086 
3139.000000	94.123780 
3138.000000	94.131765 
3137.000000	94.139758 
3136.000000	94.147498 
3135.000000	94.154838 
3134.000000	94.161664 
3133.000000	94.168092 
3132.000000	94.174587 
3131.000000	94.181611 
3130.000000	94.189306 
3129.000000	94.197608 
3128.000000	94.206425 
3127.000000	94.215513 
3126.000000	94.224452 
3125.000000	94.232991 
3124.000000	94.241283 
3123.000000	94.249491 
3122.000000	94.257396 
3121.000000	94.264770 
3120.000000	94.271859 
3119.000000	94.279129 
3118.000000	94.286763 
3117.000000	94.294685 
3116.000000	94.302734 
3115.000000	94.310495 
3114.000000	94.317369 
3113.000000	94.323398 
3112.000000	94.329847 
3111.000000	94.338184 
3110.000000	94.348339 
3109.000000	94.358445 
3108.000000	94.366747 
3107.000000	94.373300 
3106.000000	94.379412 
3105.000000	94.385804 
3104.000000	94.392023 
3103.000000	94.397561 
3102.000000	94.402627 
3101.000000	94.407665 
3100.000000	94.412695 
3099.000000	94.417667 
3098.000000	94.423185 
3097.000000	94.430188 
3096.000000	94.438787 
3095.000000	94.447811 
3094.000000	94.455954 
3093.000000	94.463046 
3092.000000	94.469737 
3091.000000	94.476246 
3090.000000	94.482102 
3089.000000	94.487158 
3088.000000	94.492106 
3087.000000	94.497776 
3086.000000	94.504286 
3085.000000	94.511050 
3084.000000	94.517344 
3083.000000	94.522792 
3082.000000	94.527709 
3081.000000	94.533061 
3080.000000	94.539554 
3079.000000	94.546705 
3078.000000	94.553284 
3077.000000	94.558758 
3076.000000	94.563707 
3075.000000	94.568780 
3074.000000	94.573868 
3073.000000	94.578698 
3072.000000	94.583606 
3071.000000	94.589055 
3070.000000	94.594842 
3069.000000	94.600439 
3068.000000	94.605781 
3067.000000	94.611147 
3066.000000	94.616415 
3065.000000	94.621084 
3064.000000	94.624991 
3063.000000	94.628507 
3062.000000	94.632135 
3061.000000	94.636234 
3060.000000	94.640987 
3059.000000	94.646270 
3058.000000	94.651677 
3057.000000	94.657020 
3056.000000	94.662598 
3055.000000	94.668528 
3054.000000	94.674105 
3053.000000	94.678501 
3052.000000	94.682028 
3051.000000	94.686036 
3050.000000	94.691279 
3049.000000	94.696924 
3048.000000	94.701539 
3047.000000	94.704704 
3046.000000	94.707252 
3045.000000	94.710286 
3044.000000	94.714381 
3043.000000	94.719646 
3042.000000	94.725928 
3041.000000	94.732537 
3040.000000	94.738157 
3039.000000	94.741757 
3038.000000	94.743670 
3037.000000	94.745543 
3036.000000	94.748718 
3035.000000	94.752754 
3034.000000	94.756087 
3033.000000	94.757965 
3032.000000	94.759257 
3031.000000	94.761360 
3030.000000	94.764706 
3029.000000	94.768667 
3028.000000	94.772407 
3027.000000	94.775428 
3026.000000	94.777566 
3025.000000	94.779026 
3024.000000	94.780415 
3023.000000	94.782326 
3022.000000	94.784841 
3021.000000	94.787789 
3020.000000	94.791375 
3019.000000	94.795966 
3018.000000	94.801133 
3017.000000	94.805480 
3016.000000	94.807873 
3015.000000	94.808584 
3014.000000	94.809116 
3013.000000	94.810960 
3012.000000	94.814449 
3011.000000	94.818520 
3010.000000	94.821534 
3009.000000	94.822604 
3008.000000	94.822203 
3007.000000	94.821506 
3006.000000	94.821215 
3005.000000	94.821321 
3004.000000	94.821848 
3003.000000	94.823247 
3002.000000	94.825951 
3001.000000	94.829904 
3000.000000	94.834602 
2999.000000	94.839225 
2998.000000	94.842722 
2997.000000	94.844303 
2996.000000	94.844150 
2995.000000	94.843503 
2994.000000	94.843773 
2993.000000	94.845593 
2992.000000	94.848559 
2991.000000	94.851594 
2990.000000	94.853631 
2989.000000	94.854426 
2988.000000	94.854871 
2987.000000	94.856218 
2986.000000	94.859018 
2985.000000	94.863090 
2984.000000	94.868215 
2983.000000	94.874316 
2982.000000	94.880992 
2981.000000	94.887400 
2980.000000	94.892736 
2979.000000	94.896495 
2978.000000	94.898381 
2977.000000	94.898641 
2976.000000	94.898557 
2975.000000	94.899928 
2974.000000	94.903701 
2973.000000	94.909449 
2972.000000	94.916131 
2971.000000	94.922883 
2970.000000	94.928957 
2969.000000	94.933693 
2968.000000	94.937007 
2967.000000	94.939448 
2966.000000	94.941547 
2965.000000	94.943617 
2964.000000	94.946365 
2963.000000	94.950902 
2962.000000	94.957533 
2961.000000	94.965041 
2960.000000	94.971793 
2959.000000	94.977259 
2958.000000	94.981923 
2957.000000	94.986153 
2956.000000	94.989834 
2955.000000	94.992886 
2954.000000	94.995551 
2953.000000	94.998337 
2952.000000	95.002148 
2951.000000	95.008085 
2950.000000	95.016237 
2949.000000	95.024754 
2948.000000	95.031055 
2947.000000	95.034097 
2946.000000	95.035044 
2945.000000	95.035781 
2944.000000	95.037170 
2943.000000	95.038915 
2942.000000	95.040432 
2941.000000	95.041339 
2940.000000	95.041607 
2939.000000	95.041727 
2938.000000	95.042506 
2937.000000	95.044306 
2936.000000	95.046561 
2935.000000	95.048282 
2934.000000	95.049070 
2933.000000	95.049523 
2932.000000	95.050709 
2931.000000	95.053240 
2930.000000	95.056772 
2929.000000	95.060413 
2928.000000	95.063672 
2927.000000	95.066889 
2926.000000	95.070559 
2925.000000	95.074528 
2924.000000	95.078233 
2923.000000	95.081568 
2922.000000	95.084931 
2921.000000	95.088414 
2920.000000	95.091612 
2919.000000	95.094459 
2918.000000	95.097577 
2917.000000	95.101284 
2916.000000	95.104780 
2915.000000	95.107063 
2914.000000	95.108406 
2913.000000	95.110268 
2912.000000	95.113576 
2911.000000	95.117653 
2910.000000	95.121084 
2909.000000	95.123384 
2908.000000	95.125400 
2907.000000	95.128196 
2906.000000	95.131881 
2905.000000	95.135692 
2904.000000	95.138799 
2903.000000	95.141068 
2902.000000	95.143118 
2901.000000	95.145762 
2900.000000	95.149356 
2899.000000	95.153612 
2898.000000	95.158021 
2897.000000	95.162350 
2896.000000	95.166601 
2895.000000	95.170639 
2894.000000	95.174220 
2893.000000	95.177407 
2892.000000	95.180645 
2891.000000	95.184231 
2890.000000	95.187935 
2889.000000	95.191404 
2888.000000	95.194753 
2887.000000	95.198404 
2886.000000	95.202400 
2885.000000	95.206261 
2884.000000	95.209674 
2883.000000	95.212963 
2882.000000	95.216582 
2881.000000	95.220387 
2880.000000	95.223861 
2879.000000	95.227026 
2878.000000	95.230612 
2877.000000	95.235151 
2876.000000	95.240271 
2875.000000	95.245105 
2874.000000	95.249262 
2873.000000	95.252959 
2872.000000	95.256410 
2871.000000	95.259617 
2870.000000	95.262678 
2869.000000	95.265813 
2868.000000	95.268986 
2867.000000	95.271900 
2866.000000	95.274488 
2865.000000	95.277084 
2864.000000	95.280030 
2863.000000	95.283410 
2862.000000	95.287245 
2861.000000	95.291556 
2860.000000	95.296069 
2859.000000	95.300236 
2858.000000	95.303799 
2857.000000	95.307137 
2856.000000	95.310821 
2855.000000	95.314892 
2854.000000	95.318756 
2853.000000	95.321839 
2852.000000	95.324143 
2851.000000	95.326254 
2850.000000	95.328893 
2849.000000	95.332388 
2848.000000	95.336501 
2847.000000	95.340626 
2846.000000	95.344320 
2845.000000	95.347616 
2844.000000	95.350836 
2843.000000	95.354222 
2842.000000	95.357852 
2841.000000	95.361750 
2840.000000	95.365845 
2839.000000	95.369883 
2838.000000	95.373573 
2837.000000	95.376792 
2836.000000	95.379566 
2835.000000	95.381958 
2834.000000	95.384215 
2833.000000	95.386833 
2832.000000	95.390141 
2831.000000	95.393834 
2830.000000	95.397160 
2829.000000	95.399652 
2828.000000	95.401527 
2827.000000	95.403457 
2826.000000	95.406066 
2825.000000	95.409570 
2824.000000	95.413650 
2823.000000	95.417558 
2822.000000	95.420677 
2821.000000	95.423052 
2820.000000	95.425258 
2819.000000	95.427700 
2818.000000	95.430227 
2817.000000	95.432536 
2816.000000	95.434668 
2815.000000	95.436893 
2814.000000	95.439258 
2813.000000	95.441462 
2812.000000	95.443172 
2811.000000	95.444359 
2810.000000	95.445404 
2809.000000	95.446884 
2808.000000	95.449195 
2807.000000	95.452351 
2806.000000	95.456044 
2805.000000	95.459865 
2804.000000	95.463428 
2803.000000	95.466421 
2802.000000	95.468781 
2801.000000	95.470820 
2800.000000	95.472987 
2799.000000	95.475401 
2798.000000	95.477760 
2797.000000	95.479765 
2796.000000	95.481452 
2795.000000	95.483108 
2794.000000	95.484999 
2793.000000	95.487222 
2792.000000	95.489728 
2791.000000	95.492353 
2790.000000	95.494868 
2789.000000	95.497118 
2788.000000	95.499116 
2787.000000	95.501007 
2786.000000	95.502955 
2785.000000	95.505054 
2784.000000	95.507304 
2783.000000	95.509630 
2782.000000	95.511917 
2781.000000	95.514088 
2780.000000	95.516158 
2779.000000	95.518208 
2778.000000	95.520310 
2777.000000	95.522462 
2776.000000	95.524602 
2775.000000	95.526674 
2774.000000	95.528687 
2773.000000	95.530689 
2772.000000	95.532703 
2771.000000	95.534708 
2770.000000	95.536689 
2769.000000	95.538677 
2768.000000	95.540705 
2767.000000	95.542763 
2766.000000	95.544801 
2765.000000	95.546790 
2764.000000	95.548738 
2763.000000	95.550660 
2762.000000	95.552536 
2761.000000	95.554338 
2760.000000	95.556095 
2759.000000	95.557892 
2758.000000	95.559782 
2757.000000	95.561706 
2756.000000	95.563519 
2755.000000	95.565134 
2754.000000	95.566637 
2753.000000	95.568241 
2752.000000	95.570057 
2751.000000	95.571982 
2750.000000	95.573835 
2749.000000	95.575607 
2748.000000	95.577418 
2747.000000	95.579236 
2746.000000	95.580831 
2745.000000	95.582089 
2744.000000	95.583153 
2743.000000	95.584255 
2742.000000	95.585504 
2741.000000	95.586892 
2740.000000	95.588374 
2739.000000	95.589872 
2738.000000	95.591293 
2737.000000	95.592638 
2736.000000	95.594030 
2735.000000	95.595577 
2734.000000	95.597229 
2733.000000	95.598838 
2732.000000	95.600316 
2731.000000	95.601697 
2730.000000	95.603076 
2729.000000	95.604521 
2728.000000	95.606019 
2727.000000	95.607468 
2726.000000	95.608775 
2725.000000	95.609956 
2724.000000	95.611116 
2723.000000	95.612336 
2722.000000	95.613601 
2721.000000	95.614854 
2720.000000	95.616078 
2719.000000	95.617303 
2718.000000	95.618551 
2717.000000	95.619811 
2716.000000	95.621055 
2715.000000	95.622274 
2714.000000	95.623485 
2713.000000	95.624713 
2712.000000	95.625961 
2711.000000	95.627216 
2710.000000	95.628461 
2709.000000	95.629693 
2708.000000	95.630917 
2707.000000	95.632135 
2706.000000	95.633350 
2705.000000	95.634563 
2704.000000	95.635773 
2703.000000	95.636978 
2702.000000	95.638170 
2701.000000	95.639357 
2700.000000	95.640558 
2699.000000	95.641789 
2698.000000	95.643035 
2697.000000	95.644236 
2696.000000	95.645338 
2695.000000	95.646332 
2694.000000	95.647269 
2693.000000	95.648214 
2692.000000	95.649185 
2691.000000	95.650160 
2690.000000	95.651111 
2689.000000	95.652026 
2688.000000	95.652895 
2687.000000	95.653704 
2686.000000	95.654467 
2685.000000	95.655245 
2684.000000	95.656084 
2683.000000	95.656957 
2682.000000	95.657770 
2681.000000	95.658478 
2680.000000	95.659135 
2679.000000	95.659822 
2678.000000	95.660521 
2677.000000	95.661164 
2676.000000	95.661738 
2675.000000	95.662276 
2674.000000	95.662753 
2673.000000	95.663134 
2672.000000	95.663492 
2671.000000	95.663937 
2670.000000	95.664446 
2669.000000	95.664879 
2668.000000	95.665158 
2667.000000	95.665325 
2666.000000	95.665431 
2665.000000	95.665484 
2664.000000	95.665499 
2663.000000	95.665536 
2662.000000	95.665665 
2661.000000	95.665886 
2660.000000	95.666106 
2659.000000	95.666190 
2658.000000	95.666102 
2657.000000	95.665962 
2656.000000	95.665936 
2655.000000	95.666076 
2654.000000	95.666265 
2653.000000	95.666322 
2652.000000	95.666181 
2651.000000	95.665940 
2650.000000	95.665777 
2649.000000	95.665785 
2648.000000	95.665909 
2647.000000	95.665987 
2646.000000	95.665877 
2645.000000	95.665556 
2644.000000	95.665131 
2643.000000	95.664760 
2642.000000	95.664526 
2641.000000	95.664388 
2640.000000	95.664239 
2639.000000	95.664025 
2638.000000	95.663801 
2637.000000	95.663666 
2636.000000	95.663655 
2635.000000	95.663741 
2634.000000	95.663926 
2633.000000	95.664216 
2632.000000	95.664488 
2631.000000	95.664486 
2630.000000	95.664073 
2629.000000	95.663424 
2628.000000	95.662929 
2627.000000	95.662786 
2626.000000	95.662904 
2625.000000	95.663179 
2624.000000	95.663681 
2623.000000	95.664425 
2622.000000	95.665140 
2621.000000	95.665428 
2620.000000	95.665057 
2619.000000	95.664000 
2618.000000	95.662447 
2617.000000	95.660925 
2616.000000	95.660082 
2615.000000	95.660139 
2614.000000	95.660694 
2613.000000	95.661103 
2612.000000	95.661125 
2611.000000	95.660985 
2610.000000	95.660992 
2609.000000	95.661269 
2608.000000	95.661704 
2607.000000	95.661979 
2606.000000	95.661800 
2605.000000	95.661227 
2604.000000	95.660614 
2603.000000	95.660188 
2602.000000	95.659924 
2601.000000	95.659869 
2600.000000	95.660187 
2599.000000	95.660753 
2598.000000	95.661073 
2597.000000	95.660896 
2596.000000	95.660522 
2595.000000	95.660246 
2594.000000	95.659882 
2593.000000	95.659228 
2592.000000	95.658638 
2591.000000	95.658544 
2590.000000	95.658697 
2589.000000	95.658542 
2588.000000	95.658194 
2587.000000	95.658391 
2586.000000	95.659459 
2585.000000	95.660977 
2584.000000	95.662314 
2583.000000	95.663167 
2582.000000	95.663514 
2581.000000	95.663474 
2580.000000	95.663321 
2579.000000	95.663403 
2578.000000	95.663893 
2577.000000	95.664709 
2576.000000	95.665605 
2575.000000	95.666313 
2574.000000	95.666710 
2573.000000	95.666890 
2572.000000	95.667053 
2571.000000	95.667268 
2570.000000	95.667441 
2569.000000	95.667552 
2568.000000	95.667750 
2567.000000	95.668138 
2566.000000	95.668614 
2565.000000	95.668993 
2564.000000	95.669227 
2563.000000	95.669418 
2562.000000	95.669672 
2561.000000	95.670012 
2560.000000	95.670430 
2559.000000	95.670916 
2558.000000	95.671437 
2557.000000	95.671919 
2556.000000	95.672304 
2555.000000	95.672588 
2554.000000	95.672804 
2553.000000	95.672987 
2552.000000	95.673156 
2551.000000	95.673326 
2550.000000	95.673524 
2549.000000	95.673759 
2548.000000	95.674007 
2547.000000	95.674203 
2546.000000	95.674306 
2545.000000	95.674322 
2544.000000	95.674306 
2543.000000	95.674313 
2542.000000	95.674368 
2541.000000	95.674490 
2540.000000	95.674711 
2539.000000	95.675020 
2538.000000	95.675310 
2537.000000	95.675478 
2536.000000	95.675537 
2535.000000	95.675605 
2534.000000	95.675758 
2533.000000	95.675938 
2532.000000	95.676074 
2531.000000	95.676217 
2530.000000	95.676492 
2529.000000	95.676927 
2528.000000	95.677376 
2527.000000	95.677672 
2526.000000	95.677817 
2525.000000	95.678001 
2524.000000	95.678409 
2523.000000	95.679027 
2522.000000	95.679642 
2521.000000	95.680025 
2520.000000	95.680127 
2519.000000	95.680084 
2518.000000	95.680069 
2517.000000	95.680093 
2516.000000	95.679941 
2515.000000	95.679409 
2514.000000	95.678698 
2513.000000	95.678405 
2512.000000	95.678937 
2511.000000	95.680116 
2510.000000	95.681488 
2509.000000	95.682821 
2508.000000	95.684040 
2507.000000	95.684907 
2506.000000	95.685277 
2505.000000	95.685548 
2504.000000	95.686345 
2503.000000	95.687660 
2502.000000	95.688732 
2501.000000	95.689003 
2500.000000	95.688693 
2499.000000	95.688441 
2498.000000	95.688586 
2497.000000	95.689093 
2496.000000	95.689938 
2495.000000	95.691138 
2494.000000	95.692472 
2493.000000	95.693496 
2492.000000	95.693982 
2491.000000	95.694118 
2490.000000	95.694302 
2489.000000	95.694699 
2488.000000	95.695111 
2487.000000	95.695245 
2486.000000	95.695052 
2485.000000	95.694803 
2484.000000	95.694811 
2483.000000	95.695110 
2482.000000	95.695464 
2481.000000	95.695697 
2480.000000	95.695898 
2479.000000	95.696265 
2478.000000	95.696841 
2477.000000	95.697478 
2476.000000	95.697948 
2475.000000	95.698084 
2474.000000	95.697876 
2473.000000	95.697529 
2472.000000	95.697341 
2471.000000	95.697418 
2470.000000	95.697643 
2469.000000	95.697896 
2468.000000	95.698186 
2467.000000	95.698533 
2466.000000	95.698816 
2465.000000	95.698878 
2464.000000	95.698703 
2463.000000	95.698439 
2462.000000	95.698289 
2461.000000	95.698452 
2460.000000	95.699047 
2459.000000	95.699931 
2458.000000	95.700634 
2457.000000	95.700725 
2456.000000	95.700178 
2455.000000	95.699359 
2454.000000	95.698702 
2453.000000	95.698351 
2452.000000	95.698194 
2451.000000	95.698089 
2450.000000	95.698079 
2449.000000	95.698370 
2448.000000	95.699053 
2447.000000	95.699935 
2446.000000	95.700692 
2445.000000	95.701196 
2444.000000	95.701557 
2443.000000	95.701883 
2442.000000	95.702177 
2441.000000	95.702444 
2440.000000	95.702770 
2439.000000	95.703244 
2438.000000	95.703906 
2437.000000	95.704766 
2436.000000	95.705772 
2435.000000	95.706739 
2434.000000	95.707469 
2433.000000	95.707944 
2432.000000	95.708349 
2431.000000	95.708906 
2430.000000	95.709676 
2429.000000	95.710579 
2428.000000	95.711474 
2427.000000	95.712227 
2426.000000	95.712764 
2425.000000	95.713130 
2424.000000	95.713516 
2423.000000	95.714107 
2422.000000	95.714933 
2421.000000	95.715919 
2420.000000	95.717059 
2419.000000	95.718396 
2418.000000	95.719826 
2417.000000	95.721102 
2416.000000	95.722127 
2415.000000	95.723036 
2414.000000	95.723866 
2413.000000	95.724654 
2412.000000	95.725774 
2411.000000	95.727405 
2410.000000	95.728946 
2409.000000	95.729788 
2408.000000	95.730399 
2407.000000	95.731697 
2406.000000	95.733597 
2405.000000	95.735019 
2404.000000	95.735189 
2403.000000	95.734236 
2402.000000	95.732791 
2401.000000	95.731772 
2400.000000	95.732263 
2399.000000	95.734734 
2398.000000	95.738407 
2397.000000	95.742065 
2396.000000	95.745162 
2395.000000	95.747470 
2394.000000	95.748382 
2393.000000	95.747648 
2392.000000	95.746410 
2391.000000	95.746217 
2390.000000	95.747054 
2389.000000	95.747529 
2388.000000	95.746980 
2387.000000	95.746123 
2386.000000	95.745593 
2385.000000	95.745167 
2384.000000	95.744771 
2383.000000	95.745156 
2382.000000	95.747085 
2381.000000	95.750774 
2380.000000	95.756345 
2379.000000	95.763695 
2378.000000	95.771164 
2377.000000	95.775489 
2376.000000	95.774603 
2375.000000	95.769754 
2374.000000	95.764069 
2373.000000	95.758988 
2372.000000	95.753853 
2371.000000	95.748965 
2370.000000	95.746630 
2369.000000	95.748169 
2368.000000	95.751365 
2367.000000	95.752374 
2366.000000	95.750257 
2365.000000	95.747797 
2364.000000	95.747660 
2363.000000	95.749290 
2362.000000	95.750482 
2361.000000	95.750508 
2360.000000	95.749687 
2359.000000	95.747707 
2358.000000	95.744576 
2357.000000	95.742372 
2356.000000	95.743398 
2355.000000	95.747063 
2354.000000	95.750062 
2353.000000	95.749611 
2352.000000	95.745908 
2351.000000	95.740417 
2350.000000	95.733961 
2349.000000	95.727863 
2348.000000	95.724494 
2347.000000	95.724493 
2346.000000	95.724603 
2345.000000	95.721866 
2344.000000	95.716906 
2343.000000	95.711712 
2342.000000	95.708309 
2341.000000	95.708827 
2340.000000	95.713787 
2339.000000	95.719939 
2338.000000	95.722701 
2337.000000	95.720471 
2336.000000	95.715931 
2335.000000	95.712430 
2334.000000	95.710183 
2333.000000	95.706443 
2332.000000	95.699741 
2331.000000	95.691346 
2330.000000	95.682718 
2329.000000	95.673548 
2328.000000	95.663498 
2327.000000	95.653966 
2326.000000	95.645783 
2325.000000	95.638848 
2324.000000	95.634331 
2323.000000	95.634500 
2322.000000	95.638348 
2321.000000	95.640742 
2320.000000	95.639126 
2319.000000	95.637064 
2318.000000	95.639001 
2317.000000	95.644537 
2316.000000	95.650088 
2315.000000	95.653077 
2314.000000	95.652411 
2313.000000	95.647757 
2312.000000	95.640449 
2311.000000	95.634069 
2310.000000	95.630798 
2309.000000	95.629120 
2308.000000	95.626461 
2307.000000	95.623232 
2306.000000	95.621618 
2305.000000	95.622185 
2304.000000	95.623594 
2303.000000	95.624811 
2302.000000	95.625827 
2301.000000	95.626906 
2300.000000	95.628634 
2299.000000	95.631389 
2298.000000	95.633858 
2297.000000	95.633683 
2296.000000	95.630679 
2295.000000	95.628295 
2294.000000	95.629866 
2293.000000	95.635150 
2292.000000	95.641296 
2291.000000	95.646410 
2290.000000	95.650317 
2289.000000	95.653290 
2288.000000	95.655334 
2287.000000	95.656498 
2286.000000	95.656698 
2285.000000	95.655904 
2284.000000	95.654794 
2283.000000	95.654564 
2282.000000	95.655684 
2281.000000	95.657335 
2280.000000	95.658445 
2279.000000	95.658658 
2278.000000	95.658371 
2277.000000	95.658366 
2276.000000	95.659499 
2275.000000	95.662007 
2274.000000	95.665091 
2273.000000	95.667802 
2272.000000	95.670169 
2271.000000	95.672564 
2270.000000	95.674241 
2269.000000	95.673922 
2268.000000	95.671872 
2267.000000	95.670049 
2266.000000	95.669815 
2265.000000	95.670658 
2264.000000	95.671416 
2263.000000	95.671552 
2262.000000	95.670846 
2261.000000	95.669039 
2260.000000	95.666436 
2259.000000	95.664061 
2258.000000	95.662707 
2257.000000	95.662428 
2256.000000	95.663143 
2255.000000	95.664912 
2254.000000	95.667261 
2253.000000	95.668921 
2252.000000	95.668890 
2251.000000	95.667119 
2250.000000	95.663971 
2249.000000	95.659855 
2248.000000	95.655853 
2247.000000	95.653627 
2246.000000	95.653913 
2245.000000	95.655520 
2244.000000	95.656216 
2243.000000	95.654950 
2242.000000	95.652450 
2241.000000	95.650199 
2240.000000	95.649224 
2239.000000	95.649638 
2238.000000	95.650640 
2237.000000	95.651114 
2236.000000	95.650832 
2235.000000	95.650813 
2234.000000	95.651967 
2233.000000	95.653772 
2232.000000	95.655014 
2231.000000	95.655373 
2230.000000	95.655366 
2229.000000	95.655101 
2228.000000	95.654283 
2227.000000	95.653306 
2226.000000	95.653057 
2225.000000	95.653362 
2224.000000	95.652747 
2223.000000	95.650300 
2222.000000	95.647088 
2221.000000	95.645138 
2220.000000	95.645155 
2219.000000	95.646040 
2218.000000	95.646376 
2217.000000	95.645981 
2216.000000	95.645597 
2215.000000	95.645396 
2214.000000	95.644508 
2213.000000	95.642374 
2212.000000	95.640129 
2211.000000	95.639806 
2210.000000	95.642149 
2209.000000	95.645999 
2208.000000	95.649523 
2207.000000	95.651730 
2206.000000	95.652678 
2205.000000	95.652992 
2204.000000	95.653496 
2203.000000	95.654758 
2202.000000	95.656565 
2201.000000	95.657958 
2200.000000	95.658015 
2199.000000	95.656530 
2198.000000	95.653993 
2197.000000	95.651442 
2196.000000	95.649952 
2195.000000	95.649540 
2194.000000	95.649017 
2193.000000	95.647770 
2192.000000	95.647192 
2191.000000	95.648999 
2190.000000	95.652499 
2189.000000	95.654965 
2188.000000	95.654981 
2187.000000	95.653563 
2186.000000	95.651713 
2185.000000	95.648898 
2184.000000	95.645284 
2183.000000	95.643526 
2182.000000	95.645907 
2181.000000	95.651103 
2180.000000	95.655275 
2179.000000	95.656704 
2178.000000	95.657045 
2177.000000	95.658309 
2176.000000	95.660518 
2175.000000	95.662542 
2174.000000	95.663829 
2173.000000	95.664776 
2172.000000	95.666276 
2171.000000	95.668992 
2170.000000	95.672237 
2169.000000	95.673756 
2168.000000	95.671851 
2167.000000	95.667770 
2166.000000	95.664799 
2165.000000	95.664485 
2164.000000	95.665275 
2163.000000	95.665506 
2162.000000	95.666528 
2161.000000	95.671378 
2160.000000	95.681132 
2159.000000	95.693410 
2158.000000	95.704011 
2157.000000	95.710116 
2156.000000	95.711794 
2155.000000	95.711225 
2154.000000	95.710947 
2153.000000	95.712323 
2152.000000	95.714911 
2151.000000	95.716875 
2150.000000	95.716590 
2149.000000	95.714626 
2148.000000	95.713793 
2147.000000	95.716173 
2146.000000	95.720690 
2145.000000	95.724756 
2144.000000	95.728020 
2143.000000	95.732475 
2142.000000	95.738651 
2141.000000	95.744076 
2140.000000	95.746595 
2139.000000	95.747541 
2138.000000	95.750127 
2137.000000	95.755501 
2136.000000	95.761632 
2135.000000	95.765380 
2134.000000	95.764811 
2133.000000	95.760488 
2132.000000	95.755639 
2131.000000	95.754095 
2130.000000	95.757045 
2129.000000	95.762180 
2128.000000	95.766114 
2127.000000	95.767439 
2126.000000	95.767136 
2125.000000	95.767032 
2124.000000	95.768392 
2123.000000	95.771091 
2122.000000	95.773365 
2121.000000	95.772946 
2120.000000	95.769177 
2119.000000	95.763891 
2118.000000	95.759950 
2117.000000	95.758906 
2116.000000	95.760067 
2115.000000	95.761238 
2114.000000	95.760293 
2113.000000	95.757065 
2112.000000	95.753984 
2111.000000	95.753811 
2110.000000	95.756440 
2109.000000	95.759047 
2108.000000	95.759825 
2107.000000	95.759981 
2106.000000	95.761252 
2105.000000	95.763411 
2104.000000	95.765391 
2103.000000	95.767152 
2102.000000	95.768825 
2101.000000	95.769306 
2100.000000	95.767666 
2099.000000	95.765325 
2098.000000	95.765087 
2097.000000	95.768020 
2096.000000	95.772706 
2095.000000	95.777106 
2094.000000	95.780240 
2093.000000	95.782071 
2092.000000	95.782825 
2091.000000	95.782915 
2090.000000	95.783010 
2089.000000	95.783721 
2088.000000	95.785208 
2087.000000	95.787028 
2086.000000	95.788404 
2085.000000	95.788876 
2084.000000	95.788767 
2083.000000	95.788883 
2082.000000	95.789691 
2081.000000	95.791007 
2080.000000	95.792457 
2079.000000	95.793858 
2078.000000	95.795089 
2077.000000	95.796005 
2076.000000	95.796715 
2075.000000	95.797655 
2074.000000	95.799019 
2073.000000	95.800432 
2072.000000	95.801438 
2071.000000	95.802129 
2070.000000	95.802888 
2069.000000	95.803886 
2068.000000	95.805006 
2067.000000	95.806100 
2066.000000	95.807108 
2065.000000	95.808030 
2064.000000	95.808909 
2063.000000	95.809810 
2062.000000	95.810787 
2061.000000	95.811869 
2060.000000	95.813063 
2059.000000	95.814358 
2058.000000	95.815720 
2057.000000	95.817076 
2056.000000	95.818354 
2055.000000	95.819516 
2054.000000	95.820572 
2053.000000	95.821570 
2052.000000	95.822576 
2051.000000	95.823634 
2050.000000	95.824743 
2049.000000	95.825880 
2048.000000	95.827062 
2047.000000	95.828347 
2046.000000	95.829765 
2045.000000	95.831261 
2044.000000	95.832751 
2043.000000	95.834217 
2042.000000	95.835712 
2041.000000	95.837302 
2040.000000	95.839024 
2039.000000	95.840868 
2038.000000	95.842728 
2037.000000	95.844396 
2036.000000	95.845692 
2035.000000	95.846626 
2034.000000	95.847465 
2033.000000	95.848604 
2032.000000	95.850259 
2031.000000	95.852155 
2030.000000	95.853510 
2029.000000	95.853691 
2028.000000	95.852883 
2027.000000	95.852157 
2026.000000	95.852299 
2025.000000	95.853098 
2024.000000	95.853927 
2023.000000	95.854952 
2022.000000	95.857079 
2021.000000	95.860562 
2020.000000	95.864072 
2019.000000	95.865690 
2018.000000	95.864584 
2017.000000	95.861598 
2016.000000	95.858682 
2015.000000	95.857215 
2014.000000	95.856874 
2013.000000	95.856118 
2012.000000	95.854044 
2011.000000	95.851742 
2010.000000	95.851219 
2009.000000	95.853138 
2008.000000	95.856207 
2007.000000	95.858615 
2006.000000	95.859629 
2005.000000	95.859403 
2004.000000	95.858274 
2003.000000	95.856774 
2002.000000	95.855757 
2001.000000	95.855664 
2000.000000	95.855763 
1999.000000	95.854526 
1998.000000	95.850916 
1997.000000	95.845463 
1996.000000	95.840247 
1995.000000	95.837383 
1994.000000	95.837363 
1993.000000	95.838818 
1992.000000	95.839839 
1991.000000	95.839841 
1990.000000	95.839723 
1989.000000	95.840428 
1988.000000	95.841786 
1987.000000	95.842569 
1986.000000	95.841555 
1985.000000	95.838823 
1984.000000	95.836067 
1983.000000	95.835189 
1982.000000	95.836525 
1981.000000	95.838931 
1980.000000	95.841352 
1979.000000	95.843671 
1978.000000	95.845797 
1977.000000	95.846999 
1976.000000	95.846701 
1975.000000	95.845390 
1974.000000	95.844299 
1973.000000	95.844359 
1972.000000	95.845640 
1971.000000	95.847491 
1970.000000	95.848918 
1969.000000	95.849141 
1968.000000	95.848073 
1967.000000	95.846361 
1966.000000	95.845014 
1965.000000	95.844613 
1964.000000	95.845132 
1963.000000	95.846242 
1962.000000	95.847558 
1961.000000	95.848668 
1960.000000	95.849143 
1959.000000	95.848758 
1958.000000	95.847812 
1957.000000	95.847076 
1956.000000	95.847094 
1955.000000	95.847636 
1954.000000	95.847918 
1953.000000	95.847462 
1952.000000	95.846465 
1951.000000	95.845382 
1950.000000	95.844468 
1949.000000	95.843854 
1948.000000	95.843751 
1947.000000	95.844205 
1946.000000	95.844701 
1945.000000	95.844449 
1944.000000	95.843137 
1943.000000	95.841118 
1942.000000	95.838865 
1941.000000	95.836544 
1940.000000	95.834345 
1939.000000	95.832582 
1938.000000	95.831254 
1937.000000	95.830081 
1936.000000	95.829049 
1935.000000	95.828300 
1934.000000	95.827491 
1933.000000	95.826388 
1932.000000	95.825840 
1931.000000	95.826989 
1930.000000	95.829436 
1929.000000	95.831185 
1928.000000	95.831619 
1927.000000	95.831977 
1926.000000	95.832562 
1925.000000	95.831700 
1924.000000	95.828436 
1923.000000	95.824776 
1922.000000	95.822954 
1921.000000	95.822021 
1920.000000	95.820178 
1919.000000	95.817941 
1918.000000	95.816593 
1917.000000	95.814933 
1916.000000	95.810934 
1915.000000	95.805623 
1914.000000	95.801674 
1913.000000	95.799803 
1912.000000	95.798464 
1911.000000	95.796639 
1910.000000	95.794886 
1909.000000	95.793707 
1908.000000	95.793339 
1907.000000	95.793835 
1906.000000	95.794284 
1905.000000	95.792611 
1904.000000	95.787642 
1903.000000	95.781422 
1902.000000	95.777033 
1901.000000	95.774786 
1900.000000	95.773081 
1899.000000	95.771362 
1898.000000	95.770326 
1897.000000	95.769907 
1896.000000	95.768716 
1895.000000	95.766017 
1894.000000	95.762531 
1893.000000	95.759225 
1892.000000	95.756631 
1891.000000	95.755008 
1890.000000	95.753996 
1889.000000	95.752541 
1888.000000	95.750302 
1887.000000	95.748586 
1886.000000	95.748435 
1885.000000	95.748650 
1884.000000	95.746952 
1883.000000	95.743073 
1882.000000	95.739261 
1881.000000	95.737582 
1880.000000	95.738006 
1879.000000	95.738697 
1878.000000	95.737688 
1877.000000	95.735005 
1876.000000	95.732933 
1875.000000	95.733838 
1874.000000	95.737836 
1873.000000	95.742502 
1872.000000	95.745353 
1871.000000	95.746055 
1870.000000	95.745435 
1869.000000	95.743945 
1868.000000	95.742172 
1867.000000	95.741662 
1866.000000	95.742956 
1865.000000	95.744183 
1864.000000	95.743644 
1863.000000	95.742603 
1862.000000	95.743642 
1861.000000	95.747040 
1860.000000	95.750811 
1859.000000	95.753853 
1858.000000	95.756606 
1857.000000	95.759004 
1856.000000	95.760621 
1855.000000	95.762194 
1854.000000	95.764711 
1853.000000	95.767243 
1852.000000	95.768751 
1851.000000	95.770256 
1850.000000	95.772913 
1849.000000	95.775887 
1848.000000	95.777414 
1847.000000	95.777645 
1846.000000	95.778409 
1845.000000	95.780722 
1844.000000	95.784027 
1843.000000	95.787516 
1842.000000	95.790858 
1841.000000	95.793582 
1840.000000	95.795723 
1839.000000	95.797996 
1838.000000	95.800679 
1837.000000	95.802562 
1836.000000	95.802494 
1835.000000	95.801519 
1834.000000	95.801565 
1833.000000	95.803005 
1832.000000	95.805157 
1831.000000	95.807242 
1830.000000	95.808665 
1829.000000	95.809426 
1828.000000	95.810019 
1827.000000	95.811020 
1826.000000	95.812494 
1825.000000	95.813963 
1824.000000	95.814803 
1823.000000	95.814928 
1822.000000	95.814792 
1821.000000	95.814561 
1820.000000	95.814137 
1819.000000	95.813894 
1818.000000	95.814896 
1817.000000	95.817291 
1816.000000	95.819353 
1815.000000	95.819886 
1814.000000	95.819697 
1813.000000	95.820297 
1812.000000	95.821638 
1811.000000	95.822162 
1810.000000	95.821543 
1809.000000	95.820709 
1808.000000	95.820119 
1807.000000	95.820069 
1806.000000	95.821197 
1805.000000	95.823302 
1804.000000	95.824591 
1803.000000	95.823747 
1802.000000	95.821389 
1801.000000	95.819634 
1800.000000	95.819554 
1799.000000	95.820335 
1798.000000	95.821138 
1797.000000	95.821081 
1796.000000	95.819502 
1795.000000	95.817717 
1794.000000	95.818156 
1793.000000	95.821191 
1792.000000	95.823425 
1791.000000	95.822408 
1790.000000	95.820733 
1789.000000	95.821325 
1788.000000	95.824004 
1787.000000	95.827177 
1786.000000	95.829864 
1785.000000	95.831599 
1784.000000	95.831992 
1783.000000	95.832445 
1782.000000	95.834305 
1781.000000	95.837361 
1780.000000	95.840433 
1779.000000	95.842669 
1778.000000	95.845193 
1777.000000	95.848638 
1776.000000	95.852238 
1775.000000	95.854844 
1774.000000	95.855883 
1773.000000	95.856529 
1772.000000	95.858128 
1771.000000	95.859310 
1770.000000	95.859230 
1769.000000	95.859366 
1768.000000	95.861092 
1767.000000	95.864176 
1766.000000	95.866857 
1765.000000	95.868486 
1764.000000	95.869966 
1763.000000	95.871906 
1762.000000	95.873400 
1761.000000	95.874011 
1760.000000	95.874081 
1759.000000	95.874053 
1758.000000	95.874350 
1757.000000	95.875020 
1756.000000	95.877246 
1755.000000	95.879429 
1754.000000	95.877428 
1753.000000	95.869772 
1752.000000	95.861487 
1751.000000	95.860481 
1750.000000	95.868075 
1749.000000	95.877014 
1748.000000	95.880703 
1747.000000	95.879464 
1746.000000	95.875566 
1745.000000	95.871909 
1744.000000	95.870389 
1743.000000	95.868896 
1742.000000	95.865039 
1741.000000	95.861633 
1740.000000	95.863194 
1739.000000	95.868269 
1738.000000	95.869686 
1737.000000	95.863381 
1736.000000	95.851162 
1735.000000	95.839426 
1734.000000	95.835036 
1733.000000	95.833984 
1732.000000	95.831348 
1731.000000	95.829683 
1730.000000	95.830920 
1729.000000	95.831656 
1728.000000	95.828868 
1727.000000	95.823156 
1726.000000	95.815630 
1725.000000	95.808219 
1724.000000	95.802292 
1723.000000	95.798392 
1722.000000	95.797250 
1721.000000	95.797039 
1720.000000	95.794792 
1719.000000	95.788488 
1718.000000	95.778519 
1717.000000	95.765205 
1716.000000	95.745541 
1715.000000	95.723228 
1714.000000	95.707040 
1713.000000	95.697351 
1712.000000	95.687368 
1711.000000	95.676229 
1710.000000	95.667907 
1709.000000	95.661166 
1708.000000	95.651106 
1707.000000	95.637477 
1706.000000	95.624281 
1705.000000	95.610194 
1704.000000	95.587077 
1703.000000	95.553455 
1702.000000	95.516523 
1701.000000	95.489954 
1700.000000	95.479457 
1699.000000	95.470270 
1698.000000	95.460229 
1697.000000	95.449900 
1696.000000	95.432488 
1695.000000	95.408914 
1694.000000	95.386416 
1693.000000	95.367665 
1692.000000	95.349992 
1691.000000	95.330524 
1690.000000	95.307704 
1689.000000	95.280151 
1688.000000	95.250304 
1687.000000	95.222714 
1686.000000	95.201939 
1685.000000	95.190605 
1684.000000	95.179286 
1683.000000	95.160856 
1682.000000	95.143811 
1681.000000	95.131485 
1680.000000	95.123476 
1679.000000	95.117359 
1678.000000	95.108571 
1677.000000	95.095499 
1676.000000	95.082853 
1675.000000	95.075532 
1674.000000	95.067709 
1673.000000	95.055240 
1672.000000	95.041847 
1671.000000	95.031650 
1670.000000	95.023422 
1669.000000	95.012360 
1668.000000	95.001137 
1667.000000	94.994002 
1666.000000	94.987350 
1665.000000	94.977834 
1664.000000	94.967751 
1663.000000	94.961482 
1662.000000	94.955141 
1661.000000	94.940963 
1660.000000	94.922761 
1659.000000	94.908413 
1658.000000	94.897358 
1657.000000	94.884212 
1656.000000	94.867255 
1655.000000	94.849766 
1654.000000	94.835071 
1653.000000	94.824536 
1652.000000	94.808466 
1651.000000	94.794507 
1650.000000	94.787265 
1649.000000	94.786971 
1648.000000	94.787757 
1647.000000	94.781605 
1646.000000	94.767309 
1645.000000	94.752196 
1644.000000	94.740938 
1643.000000	94.734037 
1642.000000	94.730590 
1641.000000	94.726978 
1640.000000	94.722372 
1639.000000	94.717572 
1638.000000	94.714455 
1637.000000	94.713076 
1636.000000	94.710793 
1635.000000	94.706414 
1634.000000	94.701283 
1633.000000	94.696411 
1632.000000	94.689593 
1631.000000	94.682793 
1630.000000	94.678852 
1629.000000	94.675185 
1628.000000	94.665864 
1627.000000	94.651164 
1626.000000	94.635085 
1625.000000	94.619756 
1624.000000	94.607318 
1623.000000	94.601399 
1622.000000	94.602819 
1621.000000	94.608987 
1620.000000	94.621931 
1619.000000	94.647808 
1618.000000	94.691084 
1617.000000	94.744886 
1616.000000	94.793777 
1615.000000	94.833185 
1614.000000	94.868851 
1613.000000	94.903108 
1612.000000	94.936066 
1611.000000	94.970110 
1610.000000	95.005661 
1609.000000	95.040222 
1608.000000	95.073599 
1607.000000	95.106837 
1606.000000	95.136270 
1605.000000	95.159055 
1604.000000	95.179998 
1603.000000	95.202605 
1602.000000	95.223415 
1601.000000	95.239332 
1600.000000	95.254015 
1599.000000	95.272402 
1598.000000	95.293147 
1597.000000	95.312361 
1596.000000	95.329506 
1595.000000	95.346449 
1594.000000	95.363247 
1593.000000	95.378522 
1592.000000	95.392971 
1591.000000	95.408406 
1590.000000	95.424057 
1589.000000	95.437848 
1588.000000	95.451006 
1587.000000	95.466094 
1586.000000	95.481712 
1585.000000	95.493085 
1584.000000	95.501540 
1583.000000	95.512925 
1582.000000	95.527406 
1581.000000	95.540799 
1580.000000	95.552332 
1579.000000	95.564343 
1578.000000	95.578010 
1577.000000	95.594343 
1576.000000	95.612533 
1575.000000	95.627361 
1574.000000	95.634771 
1573.000000	95.637358 
1572.000000	95.641433 
1571.000000	95.651719 
1570.000000	95.665119 
1569.000000	95.672356 
1568.000000	95.674929 
1567.000000	95.679679 
1566.000000	95.686608 
1565.000000	95.692684 
1564.000000	95.698455 
1563.000000	95.701953 
1562.000000	95.701251 
1561.000000	95.695377 
1560.000000	95.702731 
1559.000000	95.725188 
1558.000000	95.735013 
1557.000000	95.732401 
1556.000000	95.731019 
1555.000000	95.733719 
1554.000000	95.738457 
1553.000000	95.743329 
1552.000000	95.748173 
1551.000000	95.750587 
1550.000000	95.749795 
1549.000000	95.748120 
1548.000000	95.748233 
1547.000000	95.750113 
1546.000000	95.751142 
1545.000000	95.749659 
1544.000000	95.747424 
1543.000000	95.747423 
1542.000000	95.752314 
1541.000000	95.761348 
1540.000000	95.765257 
1539.000000	95.760226 
1538.000000	95.751860 
1537.000000	95.743439 
1536.000000	95.735671 
1535.000000	95.730878 
1534.000000	95.730318 
1533.000000	95.731501 
1532.000000	95.730771 
1531.000000	95.727764 
1530.000000	95.724395 
1529.000000	95.721408 
1528.000000	95.717648 
1527.000000	95.712795 
1526.000000	95.708250 
1525.000000	95.705419 
1524.000000	95.704449 
1523.000000	95.704679 
1522.000000	95.704486 
1521.000000	95.701091 
1520.000000	95.694013 
1519.000000	95.686313 
1518.000000	95.680469 
1517.000000	95.676435 
1516.000000	95.672667 
1515.000000	95.669022 
1514.000000	95.666540 
1513.000000	95.665624 
1512.000000	95.664758 
1511.000000	95.661117 
1510.000000	95.654455 
1509.000000	95.646858 
1508.000000	95.641506 
1507.000000	95.638327 
1506.000000	95.636657 
1505.000000	95.634384 
1504.000000	95.629318 
1503.000000	95.621546 
1502.000000	95.612864 
1501.000000	95.605253 
1500.000000	95.599825 
1499.000000	95.595188 
1498.000000	95.589163 
1497.000000	95.582883 
1496.000000	95.578201 
1495.000000	95.575410 
1494.000000	95.574784 
1493.000000	95.576411 
1492.000000	95.578957 
1491.000000	95.579868 
1490.000000	95.576776 
1489.000000	95.569997 
1488.000000	95.560661 
1487.000000	95.550194 
1486.000000	95.541392 
1485.000000	95.533260 
1484.000000	95.524568 
1483.000000	95.516977 
1482.000000	95.511785 
1481.000000	95.507797 
1480.000000	95.501756 
1479.000000	95.492758 
1478.000000	95.482857 
1477.000000	95.473879 
1476.000000	95.464190 
1475.000000	95.452360 
1474.000000	95.440542 
1473.000000	95.431911 
1472.000000	95.426719 
1471.000000	95.422090 
1470.000000	95.416350 
1469.000000	95.408559 
1468.000000	95.397197 
1467.000000	95.382687 
1466.000000	95.369182 
1465.000000	95.360794 
1464.000000	95.357409 
1463.000000	95.353452 
1462.000000	95.345000 
1461.000000	95.333149 
1460.000000	95.321076 
1459.000000	95.309292 
1458.000000	95.294132 
1457.000000	95.276959 
1456.000000	95.266296 
1455.000000	95.261168 
1454.000000	95.253501 
1453.000000	95.242974 
1452.000000	95.234177 
1451.000000	95.229296 
1450.000000	95.227730 
1449.000000	95.228961 
1448.000000	95.229848 
1447.000000	95.226338 
1446.000000	95.217138 
1445.000000	95.205879 
1444.000000	95.197601 
1443.000000	95.191426 
1442.000000	95.184677 
1441.000000	95.176533 
1440.000000	95.166372 
1439.000000	95.150535 
1438.000000	95.128449 
1437.000000	95.109853 
1436.000000	95.105131 
1435.000000	95.109000 
1434.000000	95.111059 
1433.000000	95.110152 
1432.000000	95.110162 
1431.000000	95.112575 
1430.000000	95.115100 
1429.000000	95.117069 
1428.000000	95.118423 
1427.000000	95.119471 
1426.000000	95.121523 
1425.000000	95.127927 
1424.000000	95.140962 
1423.000000	95.152603 
1422.000000	95.154787 
1421.000000	95.152260 
1420.000000	95.157088 
1419.000000	95.167525 
1418.000000	95.170723 
1417.000000	95.170189 
1416.000000	95.178350 
1415.000000	95.195662 
1414.000000	95.212691 
1413.000000	95.223391 
1412.000000	95.230959 
1411.000000	95.239220 
1410.000000	95.247902 
1409.000000	95.257996 
1408.000000	95.270863 
1407.000000	95.285446 
1406.000000	95.299451 
1405.000000	95.314424 
1404.000000	95.335177 
1403.000000	95.358502 
1402.000000	95.377358 
1401.000000	95.393480 
1400.000000	95.414939 
1399.000000	95.442552 
1398.000000	95.467574 
1397.000000	95.485758 
1396.000000	95.501472 
1395.000000	95.519332 
1394.000000	95.537756 
1393.000000	95.555522 
1392.000000	95.575911 
1391.000000	95.598593 
1390.000000	95.618940 
1389.000000	95.634332 
1388.000000	95.646306 
1387.000000	95.657171 
1386.000000	95.667539 
1385.000000	95.678605 
1384.000000	95.693052 
1383.000000	95.710405 
1382.000000	95.726545 
1381.000000	95.738289 
1380.000000	95.746002 
1379.000000	95.753043 
1378.000000	95.762647 
1377.000000	95.775330 
1376.000000	95.788732 
1375.000000	95.799774 
1374.000000	95.807484 
1373.000000	95.815423 
1372.000000	95.826958 
1371.000000	95.841073 
1370.000000	95.854021 
1369.000000	95.863468 
1368.000000	95.871692 
1367.000000	95.881217 
1366.000000	95.891558 
1365.000000	95.901379 
1364.000000	95.909169 
1363.000000	95.912849 
1362.000000	95.913011 
1361.000000	95.914625 
1360.000000	95.922160 
1359.000000	95.935341 
1358.000000	95.949928 
1357.000000	95.961564 
1356.000000	95.968776 
1355.000000	95.972574 
1354.000000	95.974917 
1353.000000	95.978616 
1352.000000	95.984686 
1351.000000	95.992867 
1350.000000	96.002073 
1349.000000	96.009962 
1348.000000	96.015255 
1347.000000	96.018330 
1346.000000	96.020896 
1345.000000	96.024799 
1344.000000	96.030655 
1343.000000	96.037435 
1342.000000	96.043244 
1341.000000	96.046083 
1340.000000	96.044702 
1339.000000	96.040274 
1338.000000	96.036319 
1337.000000	96.035846 
1336.000000	96.038440 
1335.000000	96.040719 
1334.000000	96.040275 
1333.000000	96.038343 
1332.000000	96.037513 
1331.000000	96.038405 
1330.000000	96.039611 
1329.000000	96.040434 
1328.000000	96.041547 
1327.000000	96.043575 
1326.000000	96.045601 
1325.000000	96.045918 
1324.000000	96.044288 
1323.000000	96.041351 
1322.000000	96.037732 
1321.000000	96.034630 
1320.000000	96.033598 
1319.000000	96.034577 
1318.000000	96.035844 
1317.000000	96.036573 
1316.000000	96.037199 
1315.000000	96.037159 
1314.000000	96.035177 
1313.000000	96.032632 
1312.000000	96.033055 
1311.000000	96.036979 
1310.000000	96.040384 
1309.000000	96.040357 
1308.000000	96.038837 
1307.000000	96.039481 
1306.000000	96.042639 
1305.000000	96.045874 
1304.000000	96.047925 
1303.000000	96.048511 
1302.000000	96.046692 
1301.000000	96.042316 
1300.000000	96.038065 
1299.000000	96.037040 
1298.000000	96.038952 
1297.000000	96.040771 
1296.000000	96.040590 
1295.000000	96.039215 
1294.000000	96.038333 
1293.000000	96.039034 
1292.000000	96.041456 
1291.000000	96.044282 
1290.000000	96.045365 
1289.000000	96.044063 
1288.000000	96.042033 
1287.000000	96.040672 
1286.000000	96.039142 
1285.000000	96.036586 
1284.000000	96.034516 
1283.000000	96.034439 
1282.000000	96.034614 
1281.000000	96.031786 
1280.000000	96.025961 
1279.000000	96.021131 
1278.000000	96.021073 
1277.000000	96.025957 
1276.000000	96.032787 
1275.000000	96.037973 
1274.000000	96.039723 
1273.000000	96.039423 
1272.000000	96.040381 
1271.000000	96.043975 
1270.000000	96.047681 
1269.000000	96.048100 
1268.000000	96.044988 
1267.000000	96.040489 
1266.000000	96.035828 
1265.000000	96.031520 
1264.000000	96.029495 
1263.000000	96.031661 
1262.000000	96.036566 
1261.000000	96.040255 
1260.000000	96.041311 
1259.000000	96.042522 
1258.000000	96.046379 
1257.000000	96.051155 
1256.000000	96.052785 
1255.000000	96.049900 
1254.000000	96.045915 
1253.000000	96.045533 
1252.000000	96.049229 
1251.000000	96.052226 
1250.000000	96.049889 
1249.000000	96.043396 
1248.000000	96.038408 
1247.000000	96.038139 
1246.000000	96.040298 
1245.000000	96.041767 
1244.000000	96.042971 
1243.000000	96.045528 
1242.000000	96.048350 
1241.000000	96.049007 
1240.000000	96.047164 
1239.000000	96.043800 
1238.000000	96.038386 
1237.000000	96.029730 
1236.000000	96.018719 
1235.000000	96.007392 
1234.000000	95.995729 
1233.000000	95.981857 
1232.000000	95.965025 
1231.000000	95.945882 
1230.000000	95.924297 
1229.000000	95.899296 
1228.000000	95.870675 
1227.000000	95.838290 
1226.000000	95.800189 
1225.000000	95.754097 
1224.000000	95.700823 
1223.000000	95.643755 
1222.000000	95.584555 
1221.000000	95.521544 
1220.000000	95.452864 
1219.000000	95.379063 
1218.000000	95.301699 
1217.000000	95.221202 
1216.000000	95.136887 
1215.000000	95.048063 
1214.000000	94.955251 
1213.000000	94.861390 
1212.000000	94.770386 
1211.000000	94.681944 
1210.000000	94.589457 
1209.000000	94.486688 
1208.000000	94.375815 
1207.000000	94.265108 
1206.000000	94.158919 
1205.000000	94.054072 
1204.000000	93.946303 
1203.000000	93.835631 
1202.000000	93.724368 
1201.000000	93.613537 
1200.000000	93.502843 
1199.000000	93.391484 
1198.000000	93.277775 
1197.000000	93.160460 
1196.000000	93.040724 
1195.000000	92.920540 
1194.000000	92.799194 
1193.000000	92.674013 
1192.000000	92.544090 
1191.000000	92.410462 
1190.000000	92.273397 
1189.000000	92.132562 
1188.000000	91.988586 
1187.000000	91.841019 
1186.000000	91.686511 
1185.000000	91.523304 
1184.000000	91.355739 
1183.000000	91.189526 
1182.000000	91.024260 
1181.000000	90.855723 
1180.000000	90.683479 
1179.000000	90.509699 
1178.000000	90.332112 
1177.000000	90.145721 
1176.000000	89.951034 
1175.000000	89.753440 
1174.000000	89.554684 
1173.000000	89.352304 
1172.000000	89.147180 
1171.000000	88.943223 
1170.000000	88.739322 
1169.000000	88.530562 
1168.000000	88.318931 
1167.000000	88.115104 
1166.000000	87.929424 
1165.000000	87.770244 
1164.000000	87.651055 
1163.000000	87.587131 
1162.000000	87.580448 
1161.000000	87.614526 
1160.000000	87.664977 
1159.000000	87.707833 
1158.000000	87.719654 
1157.000000	87.682552 
1156.000000	87.593570 
1155.000000	87.462970 
1154.000000	87.302462 
1153.000000	87.121049 
1152.000000	86.930270 
1151.000000	86.742095 
1150.000000	86.559139 
1149.000000	86.376291 
1148.000000	86.193316 
1147.000000	86.015928 
1146.000000	85.843726 
1145.000000	85.668929 
1144.000000	85.489595 
1143.000000	85.312931 
1142.000000	85.142773 
1141.000000	84.974863 
1140.000000	84.807157 
1139.000000	84.643254 
1138.000000	84.482588 
1137.000000	84.318631 
1136.000000	84.149824 
1135.000000	83.980948 
1134.000000	83.811052 
1133.000000	83.632044 
1132.000000	83.442360 
1131.000000	83.249960 
1130.000000	83.058465 
1129.000000	82.862342 
1128.000000	82.659057 
1127.000000	82.453482 
1126.000000	82.246803 
1125.000000	82.033620 
1124.000000	81.813701 
1123.000000	81.594265 
1122.000000	81.377638 
1121.000000	81.159782 
1120.000000	80.943480 
1119.000000	80.737951 
1118.000000	80.542635 
1117.000000	80.347813 
1116.000000	80.154662 
1115.000000	79.977488 
1114.000000	79.821447 
1113.000000	79.675187 
1112.000000	79.530200 
1111.000000	79.389861 
1110.000000	79.254311 
1109.000000	79.115049 
1108.000000	78.969821 
1107.000000	78.825571 
1106.000000	78.682363 
1105.000000	78.531366 
1104.000000	78.372132 
1103.000000	78.214141 
1102.000000	78.057660 
1101.000000	77.892881 
1100.000000	77.720165 
1099.000000	77.551991 
1098.000000	77.391929 
1097.000000	77.230862 
1096.000000	77.068025 
1095.000000	76.914176 
1094.000000	76.770316 
1093.000000	76.624960 
1092.000000	76.477082 
1091.000000	76.339926 
1090.000000	76.217360 
1089.000000	76.098309 
1088.000000	75.978873 
1087.000000	75.867430 
1086.000000	75.763598 
1085.000000	75.655825 
1084.000000	75.544927 
1083.000000	75.446046 
1082.000000	75.360988 
1081.000000	75.271842 
1080.000000	75.168504 
1079.000000	75.059842 
1078.000000	74.951623 
1077.000000	74.835701 
1076.000000	74.706984 
1075.000000	74.568668 
1074.000000	74.415381 
1073.000000	74.233574 
1072.000000	74.022864 
1071.000000	73.794298 
1070.000000	73.544118 
1069.000000	73.254034 
1068.000000	72.922338 
1067.000000	72.570225 
1066.000000	72.212415 
1065.000000	71.846570 
1064.000000	71.476976 
1063.000000	71.119763 
1062.000000	70.775473 
1061.000000	70.423753 
1060.000000	70.055272 
1059.000000	69.683759 
1058.000000	69.318366 
1057.000000	68.949873 
1056.000000	68.572361 
1055.000000	68.191754 
1054.000000	67.803857 
1053.000000	67.390874 
1052.000000	66.950757 
1051.000000	66.503612 
1050.000000	66.057934 
1049.000000	65.599949 
1048.000000	65.126421 
1047.000000	64.654649 
1046.000000	64.191099 
1045.000000	63.722703 
1044.000000	63.245591 
1043.000000	62.771466 
1042.000000	62.300156 
1041.000000	61.817036 
1040.000000	61.324529 
1039.000000	60.845191 
1038.000000	60.386578 
1037.000000	59.934755 
1036.000000	59.488669 
1035.000000	59.067112 
1034.000000	58.674586 
1033.000000	58.295075 
1032.000000	57.926914 
1031.000000	57.588346 
1030.000000	57.281014 
1029.000000	56.984812 
1028.000000	56.697145 
1027.000000	56.439704 
1026.000000	56.216748 
1025.000000	56.004055 
1024.000000	55.789077 
1023.000000	55.585277 
1022.000000	55.396693 
1021.000000	55.205495 
1020.000000	55.004904 
1019.000000	54.808717 
1018.000000	54.619234 
1017.000000	54.421726 
1016.000000	54.218201 
1015.000000	54.029423 
1014.000000	53.855656 
1013.000000	53.673107 
1012.000000	53.476918 
1011.000000	53.289357 
1010.000000	53.117966 
1009.000000	52.945317 
1008.000000	52.768429 
1007.000000	52.608506 
1006.000000	52.472798 
1005.000000	52.346557 
1004.000000	52.230808 
1003.000000	52.147194 
1002.000000	52.096315 
1001.000000	52.052432 
1000.000000	52.009072 
999.000000	 51.988698 
998.000000	 51.997135 
997.000000	 52.010319 
996.000000	 52.017356 
995.000000	 52.035908 
994.000000	 52.073153 
993.000000	 52.112100 
992.000000	 52.148355 
991.000000	 52.200543 
990.000000	 52.272151 
989.000000	 52.342463 
988.000000	 52.407281 
987.000000	 52.489914 
986.000000	 52.600190 
985.000000	 52.721204 
984.000000	 52.847300 
983.000000	 52.996224 
982.000000	 53.172335 
981.000000	 53.356929 
980.000000	 53.546485 
979.000000	 53.761751 
978.000000	 54.007353 
977.000000	 54.261368 
976.000000	 54.516971 
975.000000	 54.796240 
974.000000	 55.109941 
973.000000	 55.440898 
972.000000	 55.779320 
971.000000	 56.138090 
970.000000	 56.520271 
969.000000	 56.907025 
968.000000	 57.290408 
967.000000	 57.684475 
966.000000	 58.092583 
965.000000	 58.497297 
964.000000	 58.893535 
963.000000	 59.298507 
962.000000	 59.718071 
961.000000	 60.135232 
960.000000	 60.541639 
959.000000	 60.948522 
958.000000	 61.357222 
957.000000	 61.750939 
956.000000	 62.125438 
955.000000	 62.497213 
954.000000	 62.872207 
953.000000	 63.236134 
952.000000	 63.583213 
951.000000	 63.923724 
950.000000	 64.256229 
949.000000	 64.563426 
948.000000	 64.842678 
947.000000	 65.109781 
946.000000	 65.366132 
945.000000	 65.594047 
944.000000	 65.792046 
943.000000	 65.982510 
942.000000	 66.175466 
941.000000	 66.356229 
940.000000	 66.518766 
939.000000	 66.679648 
938.000000	 66.848230 
937.000000	 67.013330 
936.000000	 67.170894 
935.000000	 67.335359 
934.000000	 67.512124 
933.000000	 67.687195 
932.000000	 67.855220 
931.000000	 68.030202 
930.000000	 68.217903 
929.000000	 68.404340 
928.000000	 68.581450 
927.000000	 68.757955 
926.000000	 68.935971 
925.000000	 69.102541 
924.000000	 69.252156 
923.000000	 69.392538 
922.000000	 69.522673 
921.000000	 69.632021 
920.000000	 69.726353 
919.000000	 69.825384 
918.000000	 69.928946 
917.000000	 70.015507 
916.000000	 70.081474 
915.000000	 70.152331 
914.000000	 70.247570 
913.000000	 70.365516 
912.000000	 70.510626 
911.000000	 70.703014 
910.000000	 70.949336 
909.000000	 71.234115 
908.000000	 71.550590 
907.000000	 71.911447 
906.000000	 72.319532 
905.000000	 72.757008 
904.000000	 73.212645 
903.000000	 73.692193 
902.000000	 74.194050 
901.000000	 74.702364 
900.000000	 75.211052 
899.000000	 75.728014 
898.000000	 76.250507 
897.000000	 76.762614 
896.000000	 77.259872 
895.000000	 77.749264 
894.000000	 78.223625 
893.000000	 78.665566 
892.000000	 79.079247 
891.000000	 79.488618 
890.000000	 79.900302 
889.000000	 80.296712 
888.000000	 80.669143 
887.000000	 81.027956 
886.000000	 81.376182 
885.000000	 81.703683 
884.000000	 82.013198 
883.000000	 82.321930 
882.000000	 82.630785 
881.000000	 82.922768 
880.000000	 83.199374 
879.000000	 83.486863 
878.000000	 83.796844 
877.000000	 84.111734 
876.000000	 84.419614 
875.000000	 84.732526 
874.000000	 85.060144 
873.000000	 85.395970 
872.000000	 85.739852 
871.000000	 86.104550 
870.000000	 86.489674 
869.000000	 86.875746 
868.000000	 87.251787 
867.000000	 87.623572 
866.000000	 87.990217 
865.000000	 88.340005 
864.000000	 88.675443 
863.000000	 89.015299 
862.000000	 89.363214 
861.000000	 89.699258 
860.000000	 90.011105 
859.000000	 90.309334 
858.000000	 90.603468 
857.000000	 90.886502 
856.000000	 91.152929 
855.000000	 91.409150 
854.000000	 91.654841 
853.000000	 91.874865 
852.000000	 92.061802 
851.000000	 92.229166 
850.000000	 92.392019 
849.000000	 92.550080 
848.000000	 92.697791 
847.000000	 92.834037 
846.000000	 92.954260 
845.000000	 93.049679 
844.000000	 93.121334 
843.000000	 93.178915 
842.000000	 93.220213 
841.000000	 93.228536 
840.000000	 93.195590 
839.000000	 93.130230 
838.000000	 93.041535 
837.000000	 92.932696 
836.000000	 92.816537 
835.000000	 92.715646 
834.000000	 92.637629 
833.000000	 92.568725 
832.000000	 92.500798 
831.000000	 92.446505 
830.000000	 92.419400 
829.000000	 92.419047 
828.000000	 92.446767 
827.000000	 92.515548 
826.000000	 92.629524 
825.000000	 92.770716 
824.000000	 92.918715 
823.000000	 93.066916 
822.000000	 93.211444 
821.000000	 93.344165 
820.000000	 93.463810 
819.000000	 93.575348 
818.000000	 93.673441 
817.000000	 93.741972 
816.000000	 93.771561 
815.000000	 93.762607 
814.000000	 93.710452 
813.000000	 93.602337 
812.000000	 93.428149 
811.000000	 93.177325 
810.000000	 92.826243 
809.000000	 92.349058 
808.000000	 91.744392 
807.000000	 91.034950 
806.000000	 90.241297 
805.000000	 89.377924 
804.000000	 88.477774 
803.000000	 87.593983 
802.000000	 86.768493 
801.000000	 86.023642 
800.000000	 85.390899 
799.000000	 84.915626 
798.000000	 84.619353 
797.000000	 84.483874 
796.000000	 84.481724 
795.000000	 84.593310 
794.000000	 84.786726 
793.000000	 85.014571 
792.000000	 85.244052 
791.000000	 85.465013 
790.000000	 85.662498 
789.000000	 85.809324 
788.000000	 85.890899 
787.000000	 85.908793 
786.000000	 85.854595 
785.000000	 85.709486 
784.000000	 85.476672 
783.000000	 85.186881 
782.000000	 84.866756 
781.000000	 84.532461 
780.000000	 84.220631 
779.000000	 83.989883 
778.000000	 83.877197 
777.000000	 83.880794 
776.000000	 83.992651 
775.000000	 84.212183 
774.000000	 84.516272 
773.000000	 84.852394 
772.000000	 85.179688 
771.000000	 85.490240 
770.000000	 85.780126 
769.000000	 86.031092 
768.000000	 86.233597 
767.000000	 86.398158 
766.000000	 86.530083 
765.000000	 86.620459 
764.000000	 86.675312 
763.000000	 86.725930 
762.000000	 86.794614 
761.000000	 86.873773 
760.000000	 86.951247 
759.000000	 87.031227 
758.000000	 87.118562 
757.000000	 87.209082 
756.000000	 87.308382 
755.000000	 87.434064 
754.000000	 87.585274 
753.000000	 87.733751 
752.000000	 87.857870 
751.000000	 87.964468 
750.000000	 88.069203 
749.000000	 88.180131 
748.000000	 88.308483 
747.000000	 88.467551 
746.000000	 88.649158 
745.000000	 88.827542 
744.000000	 88.998670 
743.000000	 89.190028 
742.000000	 89.420123 
741.000000	 89.675363 
740.000000	 89.938022 
739.000000	 90.207959 
738.000000	 90.482632 
737.000000	 90.742996 
736.000000	 90.976057 
735.000000	 91.190084 
734.000000	 91.394662 
733.000000	 91.585730 
732.000000	 91.759149 
731.000000	 91.917255 
730.000000	 92.053685 
729.000000	 92.154468 
728.000000	 92.224555 
727.000000	 92.290725 
726.000000	 92.370144 
725.000000	 92.459562 
724.000000	 92.558507 
723.000000	 92.674949 
722.000000	 92.803395 
721.000000	 92.927632 
720.000000	 93.053113 
719.000000	 93.203870 
718.000000	 93.378124 
717.000000	 93.542790 
716.000000	 93.679211 
715.000000	 93.800175 
714.000000	 93.914221 
713.000000	 94.007524 
712.000000	 94.075967 
711.000000	 94.140820 
710.000000	 94.213827 
709.000000	 94.277007 
708.000000	 94.315782 
707.000000	 94.341609 
706.000000	 94.360656 
705.000000	 94.351976 
704.000000	 94.298042 
703.000000	 94.205269 
702.000000	 94.072447 
701.000000	 93.865501 
700.000000	 93.548198 
699.000000	 93.122903 
698.000000	 92.628216 
697.000000	 92.124584 
696.000000	 91.695075 
695.000000	 91.422003 
694.000000	 91.336975 
693.000000	 91.407554 
692.000000	 91.581298 
691.000000	 91.821668 
690.000000	 92.092995 
689.000000	 92.350761 
688.000000	 92.572047 
687.000000	 92.767113 
686.000000	 92.943135 
685.000000	 93.086246 
684.000000	 93.193758 
683.000000	 93.288433 
682.000000	 93.383584 
681.000000	 93.469217 
680.000000	 93.545003 
679.000000	 93.631494 
678.000000	 93.727715 
677.000000	 93.801400 
676.000000	 93.846175 
675.000000	 93.894819 
674.000000	 93.961169 
673.000000	 94.018937 
672.000000	 94.053038 
671.000000	 94.095884 
670.000000	 94.196958 
669.000000	 94.374580 
668.000000	 94.570739 
667.000000	 94.724243 
666.000000	 94.854638 
665.000000	 94.979169 
664.000000	 95.108402 
663.000000	 95.261267 
662.000000	 95.440645 
661.000000	 95.609836 
660.000000	 95.748275 
659.000000	 95.870656 
658.000000	 95.980938 
657.000000	 96.050542 
656.000000	 96.075117 
655.000000	 96.088296 
654.000000	 96.099796 
653.000000	 96.077192 
652.000000	 96.017320 
651.000000	 95.976111 
650.000000	 95.986405 

