4000.000000	96.561453 
3999.000000	96.560396 
3998.000000	96.558311 
3997.000000	96.556005 
3996.000000	96.554115 
3995.000000	96.552849 
3994.000000	96.552153 
3993.000000	96.551708 
3992.000000	96.551115 
3991.000000	96.550223 
3990.000000	96.549256 
3989.000000	96.548497 
3988.000000	96.547882 
3987.000000	96.547281 
3986.000000	96.547002 
3985.000000	96.547519 
3984.000000	96.548711 
3983.000000	96.549746 
3982.000000	96.550038 
3981.000000	96.549865 
3980.000000	96.549811 
3979.000000	96.549934 
3978.000000	96.549830 
3977.000000	96.549296 
3976.000000	96.548498 
3975.000000	96.547525 
3974.000000	96.546216 
3973.000000	96.544548 
3972.000000	96.542842 
3971.000000	96.541535 
3970.000000	96.540847 
3969.000000	96.540780 
3968.000000	96.541210 
3967.000000	96.541875 
3966.000000	96.542414 
3965.000000	96.542449 
3964.000000	96.541778 
3963.000000	96.540549 
3962.000000	96.539261 
3961.000000	96.538439 
3960.000000	96.538161 
3959.000000	96.538094 
3958.000000	96.537869 
3957.000000	96.537430 
3956.000000	96.536916 
3955.000000	96.536431 
3954.000000	96.535977 
3953.000000	96.535518 
3952.000000	96.535033 
3951.000000	96.534514 
3950.000000	96.533979 
3949.000000	96.533455 
3948.000000	96.532967 
3947.000000	96.532529 
3946.000000	96.532133 
3945.000000	96.531751 
3944.000000	96.531342 
3943.000000	96.530899 
3942.000000	96.530454 
3941.000000	96.530034 
3940.000000	96.529640 
3939.000000	96.529241 
3938.000000	96.528812 
3937.000000	96.528363 
3936.000000	96.527924 
3935.000000	96.527495 
3934.000000	96.527053 
3933.000000	96.526594 
3932.000000	96.526155 
3931.000000	96.525773 
3930.000000	96.525438 
3929.000000	96.525133 
3928.000000	96.524834 
3927.000000	96.524514 
3926.000000	96.524165 
3925.000000	96.523801 
3924.000000	96.523433 
3923.000000	96.523070 
3922.000000	96.522711 
3921.000000	96.522353 
3920.000000	96.521999 
3919.000000	96.521653 
3918.000000	96.521316 
3917.000000	96.520982 
3916.000000	96.520650 
3915.000000	96.520333 
3914.000000	96.520042 
3913.000000	96.519778 
3912.000000	96.519524 
3911.000000	96.519261 
3910.000000	96.518983 
3909.000000	96.518698 
3908.000000	96.518411 
3907.000000	96.518112 
3906.000000	96.517780 
3905.000000	96.517402 
3904.000000	96.516984 
3903.000000	96.516544 
3902.000000	96.516100 
3901.000000	96.515658 
3900.000000	96.515207 
3899.000000	96.514742 
3898.000000	96.514264 
3897.000000	96.513781 
3896.000000	96.513286 
3895.000000	96.512765 
3894.000000	96.512205 
3893.000000	96.511600 
3892.000000	96.510945 
3891.000000	96.510246 
3890.000000	96.509525 
3889.000000	96.508810 
3888.000000	96.508116 
3887.000000	96.507437 
3886.000000	96.506762 
3885.000000	96.506093 
3884.000000	96.505434 
3883.000000	96.504773 
3882.000000	96.504092 
3881.000000	96.503381 
3880.000000	96.502657 
3879.000000	96.501942 
3878.000000	96.501245 
3877.000000	96.500557 
3876.000000	96.499857 
3875.000000	96.499129 
3874.000000	96.498377 
3873.000000	96.497607 
3872.000000	96.496822 
3871.000000	96.496017 
3870.000000	96.495204 
3869.000000	96.494424 
3868.000000	96.493704 
3867.000000	96.493028 
3866.000000	96.492362 
3865.000000	96.491691 
3864.000000	96.491023 
3863.000000	96.490363 
3862.000000	96.489697 
3861.000000	96.489019 
3860.000000	96.488337 
3859.000000	96.487657 
3858.000000	96.486981 
3857.000000	96.486313 
3856.000000	96.485664 
3855.000000	96.485037 
3854.000000	96.484427 
3853.000000	96.483854 
3852.000000	96.483347 
3851.000000	96.482924 
3850.000000	96.482585 
3849.000000	96.482315 
3848.000000	96.482092 
3847.000000	96.481889 
3846.000000	96.481676 
3845.000000	96.481433 
3844.000000	96.481152 
3843.000000	96.480836 
3842.000000	96.480504 
3841.000000	96.480181 
3840.000000	96.479890 
3839.000000	96.479640 
3838.000000	96.479429 
3837.000000	96.479246 
3836.000000	96.479084 
3835.000000	96.478941 
3834.000000	96.478821 
3833.000000	96.478730 
3832.000000	96.478678 
3831.000000	96.478668 
3830.000000	96.478698 
3829.000000	96.478756 
3828.000000	96.478822 
3827.000000	96.478867 
3826.000000	96.478871 
3825.000000	96.478837 
3824.000000	96.478791 
3823.000000	96.478750 
3822.000000	96.478718 
3821.000000	96.478706 
3820.000000	96.478740 
3819.000000	96.478843 
3818.000000	96.479002 
3817.000000	96.479187 
3816.000000	96.479383 
3815.000000	96.479598 
3814.000000	96.479836 
3813.000000	96.480081 
3812.000000	96.480321 
3811.000000	96.480559 
3810.000000	96.480805 
3809.000000	96.481050 
3808.000000	96.481273 
3807.000000	96.481463 
3806.000000	96.481635 
3805.000000	96.481818 
3804.000000	96.482031 
3803.000000	96.482281 
3802.000000	96.482571 
3801.000000	96.482914 
3800.000000	96.483307 
3799.000000	96.483717 
3798.000000	96.484097 
3797.000000	96.484424 
3796.000000	96.484698 
3795.000000	96.484923 
3794.000000	96.485090 
3793.000000	96.485191 
3792.000000	96.485224 
3791.000000	96.485186 
3790.000000	96.485069 
3789.000000	96.484867 
3788.000000	96.484585 
3787.000000	96.484229 
3786.000000	96.483809 
3785.000000	96.483348 
3784.000000	96.482854 
3783.000000	96.482391 
3782.000000	96.482056 
3781.000000	96.481789 
3780.000000	96.481396 
3779.000000	96.480905 
3778.000000	96.480564 
3777.000000	96.480306 
3776.000000	96.479608 
3775.000000	96.478180 
3774.000000	96.476564 
3773.000000	96.475710 
3772.000000	96.475671 
3771.000000	96.475389 
3770.000000	96.474357 
3769.000000	96.473524 
3768.000000	96.473634 
3767.000000	96.473850 
3766.000000	96.472743 
3765.000000	96.470366 
3764.000000	96.468632 
3763.000000	96.468905 
3762.000000	96.469945 
3761.000000	96.469565 
3760.000000	96.467604 
3759.000000	96.465525 
3758.000000	96.462832 
3757.000000	96.458264 
3756.000000	96.452816 
3755.000000	96.448398 
3754.000000	96.445119 
3753.000000	96.441878 
3752.000000	96.439820 
3751.000000	96.440117 
3750.000000	96.439190 
3749.000000	96.434385 
3748.000000	96.430203 
3747.000000	96.431837 
3746.000000	96.436195 
3745.000000	96.434843 
3744.000000	96.430650 
3743.000000	96.432367 
3742.000000	96.437835 
3741.000000	96.439360 
3740.000000	96.435924 
3739.000000	96.434628 
3738.000000	96.438690 
3737.000000	96.440865 
3736.000000	96.435766 
3735.000000	96.429915 
3734.000000	96.431057 
3733.000000	96.434959 
3732.000000	96.434190 
3731.000000	96.429483 
3730.000000	96.425993 
3729.000000	96.425023 
3728.000000	96.423048 
3727.000000	96.418152 
3726.000000	96.414610 
3725.000000	96.416070 
3724.000000	96.419401 
3723.000000	96.419917 
3722.000000	96.417665 
3721.000000	96.414874 
3720.000000	96.411391 
3719.000000	96.406510 
3718.000000	96.399840 
3717.000000	96.393258 
3716.000000	96.390050 
3715.000000	96.389126 
3714.000000	96.384706 
3713.000000	96.373683 
3712.000000	96.361510 
3711.000000	96.355493 
3710.000000	96.354261 
3709.000000	96.351826 
3708.000000	96.344388 
3707.000000	96.332298 
3706.000000	96.319616 
3705.000000	96.309903 
3704.000000	96.302264 
3703.000000	96.291873 
3702.000000	96.274786 
3701.000000	96.252130 
3700.000000	96.229368 
3699.000000	96.211197 
3698.000000	96.196450 
3697.000000	96.181964 
3696.000000	96.170699 
3695.000000	96.166596 
3694.000000	96.165697 
3693.000000	96.161528 
3692.000000	96.155231 
3691.000000	96.153856 
3690.000000	96.157423 
3689.000000	96.158271 
3688.000000	96.153864 
3687.000000	96.149949 
3686.000000	96.148968 
3685.000000	96.144754 
3684.000000	96.133399 
3683.000000	96.120993 
3682.000000	96.113434 
3681.000000	96.103000 
3680.000000	96.079800 
3679.000000	96.050175 
3678.000000	96.030061 
3677.000000	96.015764 
3676.000000	95.989669 
3675.000000	95.955076 
3674.000000	95.927955 
3673.000000	95.910773 
3672.000000	95.891364 
3671.000000	95.859700 
3670.000000	95.826031 
3669.000000	95.806552 
3668.000000	95.796505 
3667.000000	95.782786 
3666.000000	95.763383 
3665.000000	95.743108 
3664.000000	95.723891 
3663.000000	95.702580 
3662.000000	95.674581 
3661.000000	95.639529 
3660.000000	95.603683 
3659.000000	95.572965 
3658.000000	95.546491 
3657.000000	95.516038 
3656.000000	95.479332 
3655.000000	95.444038 
3654.000000	95.415483 
3653.000000	95.389300 
3652.000000	95.356385 
3651.000000	95.316833 
3650.000000	95.285726 
3649.000000	95.271465 
3648.000000	95.261300 
3647.000000	95.243489 
3646.000000	95.220884 
3645.000000	95.199359 
3644.000000	95.178323 
3643.000000	95.154317 
3642.000000	95.126871 
3641.000000	95.099720 
3640.000000	95.075089 
3639.000000	95.051017 
3638.000000	95.026825 
3637.000000	95.003854 
3636.000000	94.979407 
3635.000000	94.944829 
3634.000000	94.898134 
3633.000000	94.851607 
3632.000000	94.819314 
3631.000000	94.800043 
3630.000000	94.779895 
3629.000000	94.759331 
3628.000000	94.752013 
3627.000000	94.754763 
3626.000000	94.752123 
3625.000000	94.738998 
3624.000000	94.724510 
3623.000000	94.720846 
3622.000000	94.729147 
3621.000000	94.737902 
3620.000000	94.737252 
3619.000000	94.729618 
3618.000000	94.722182 
3617.000000	94.719527 
3616.000000	94.724815 
3615.000000	94.737765 
3614.000000	94.755778 
3613.000000	94.778290 
3612.000000	94.805469 
3611.000000	94.833049 
3610.000000	94.853449 
3609.000000	94.864035 
3608.000000	94.871007 
3607.000000	94.881401 
3606.000000	94.894751 
3605.000000	94.907636 
3604.000000	94.920455 
3603.000000	94.936092 
3602.000000	94.954959 
3601.000000	94.972558 
3600.000000	94.985042 
3599.000000	94.991762 
3598.000000	94.994610 
3597.000000	94.997283 
3596.000000	95.004027 
3595.000000	95.014040 
3594.000000	95.023469 
3593.000000	95.030661 
3592.000000	95.038153 
3591.000000	95.049686 
3590.000000	95.064125 
3589.000000	95.074994 
3588.000000	95.078030 
3587.000000	95.075708 
3586.000000	95.072356 
3585.000000	95.071033 
3584.000000	95.074682 
3583.000000	95.084543 
3582.000000	95.098236 
3581.000000	95.109931 
3580.000000	95.114981 
3579.000000	95.113340 
3578.000000	95.108606 
3577.000000	95.104513 
3576.000000	95.102577 
3575.000000	95.102372 
3574.000000	95.102808 
3573.000000	95.103775 
3572.000000	95.105721 
3571.000000	95.108690 
3570.000000	95.110379 
3569.000000	95.106311 
3568.000000	95.095458 
3567.000000	95.084418 
3566.000000	95.080510 
3565.000000	95.084023 
3564.000000	95.090511 
3563.000000	95.095919 
3562.000000	95.098893 
3561.000000	95.100468 
3560.000000	95.102169 
3559.000000	95.104472 
3558.000000	95.106370 
3557.000000	95.106633 
3556.000000	95.105074 
3555.000000	95.102503 
3554.000000	95.099632 
3553.000000	95.096876 
3552.000000	95.094882 
3551.000000	95.094186 
3550.000000	95.094501 
3549.000000	95.095019 
3548.000000	95.095431 
3547.000000	95.095937 
3546.000000	95.096208 
3545.000000	95.095542 
3544.000000	95.094212 
3543.000000	95.093404 
3542.000000	95.093635 
3541.000000	95.094139 
3540.000000	95.093910 
3539.000000	95.092873 
3538.000000	95.091697 
3537.000000	95.090843 
3536.000000	95.090239 
3535.000000	95.089669 
3534.000000	95.089108 
3533.000000	95.088558 
3532.000000	95.088018 
3531.000000	95.087485 
3530.000000	95.086953 
3529.000000	95.086412 
3528.000000	95.085854 
3527.000000	95.085282 
3526.000000	95.084702 
3525.000000	95.084119 
3524.000000	95.083524 
3523.000000	95.082902 
3522.000000	95.082243 
3521.000000	95.081542 
3520.000000	95.080804 
3519.000000	95.080034 
3518.000000	95.079235 
3517.000000	95.078408 
3516.000000	95.077553 
3515.000000	95.076676 
3514.000000	95.075779 
3513.000000	95.074867 
3512.000000	95.073935 
3511.000000	95.072979 
3510.000000	95.071989 
3509.000000	95.070960 
3508.000000	95.069893 
3507.000000	95.068792 
3506.000000	95.067661 
3505.000000	95.066499 
3504.000000	95.065301 
3503.000000	95.064047 
3502.000000	95.062710 
3501.000000	95.061284 
3500.000000	95.059803 
3499.000000	95.058325 
3498.000000	95.056898 
3497.000000	95.055494 
3496.000000	95.053989 
3495.000000	95.052285 
3494.000000	95.050442 
3493.000000	95.048637 
3492.000000	95.046934 
3491.000000	95.045189 
3490.000000	95.043230 
3489.000000	95.041085 
3488.000000	95.038957 
3487.000000	95.036957 
3486.000000	95.034955 
3485.000000	95.032747 
3484.000000	95.030304 
3483.000000	95.027751 
3482.000000	95.025195 
3481.000000	95.022688 
3480.000000	95.020296 
3479.000000	95.018055 
3478.000000	95.015816 
3477.000000	95.013260 
3476.000000	95.010184 
3475.000000	95.006765 
3474.000000	95.003452 
3473.000000	95.000551 
3472.000000	94.997962 
3471.000000	94.995342 
3470.000000	94.992502 
3469.000000	94.989570 
3468.000000	94.986769 
3467.000000	94.984193 
3466.000000	94.981796 
3465.000000	94.979421 
3464.000000	94.976746 
3463.000000	94.973415 
3462.000000	94.969399 
3461.000000	94.965091 
3460.000000	94.960975 
3459.000000	94.957199 
3458.000000	94.953580 
3457.000000	94.949963 
3456.000000	94.946412 
3455.000000	94.943013 
3454.000000	94.939755 
3453.000000	94.936634 
3452.000000	94.933803 
3451.000000	94.931441 
3450.000000	94.929380 
3449.000000	94.927012 
3448.000000	94.923810 
3447.000000	94.919854 
3446.000000	94.915768 
3445.000000	94.912145 
3444.000000	94.909095 
3443.000000	94.906390 
3442.000000	94.903800 
3441.000000	94.901175 
3440.000000	94.898323 
3439.000000	94.894972 
3438.000000	94.890987 
3437.000000	94.886574 
3436.000000	94.882293 
3435.000000	94.878776 
3434.000000	94.876301 
3433.000000	94.874480 
3432.000000	94.872499 
3431.000000	94.869875 
3430.000000	94.866799 
3429.000000	94.863718 
3428.000000	94.860654 
3427.000000	94.857214 
3426.000000	94.853327 
3425.000000	94.849744 
3424.000000	94.847393 
3423.000000	94.846230 
3422.000000	94.845010 
3421.000000	94.842545 
3420.000000	94.838991 
3419.000000	94.835586 
3418.000000	94.833274 
3417.000000	94.831988 
3416.000000	94.831147 
3415.000000	94.830302 
3414.000000	94.829155 
3413.000000	94.827435 
3412.000000	94.825195 
3411.000000	94.823005 
3410.000000	94.821484 
3409.000000	94.820685 
3408.000000	94.820057 
3407.000000	94.818946 
3406.000000	94.817029 
3405.000000	94.814479 
3404.000000	94.811839 
3403.000000	94.809624 
3402.000000	94.808059 
3401.000000	94.807180 
3400.000000	94.807010 
3399.000000	94.807355 
3398.000000	94.807603 
3397.000000	94.807167 
3396.000000	94.806154 
3395.000000	94.805300 
3394.000000	94.805153 
3393.000000	94.805543 
3392.000000	94.805825 
3391.000000	94.805499 
3390.000000	94.804602 
3389.000000	94.803745 
3388.000000	94.803800 
3387.000000	94.805232 
3386.000000	94.807482 
3385.000000	94.809067 
3384.000000	94.808776 
3383.000000	94.806831 
3382.000000	94.804919 
3381.000000	94.804732 
3380.000000	94.806412 
3379.000000	94.808570 
3378.000000	94.809811 
3377.000000	94.810207 
3376.000000	94.810836 
3375.000000	94.812274 
3374.000000	94.814065 
3373.000000	94.815621 
3372.000000	94.817042 
3371.000000	94.818822 
3370.000000	94.821117 
3369.000000	94.823559 
3368.000000	94.825559 
3367.000000	94.826565 
3366.000000	94.826324 
3365.000000	94.825280 
3364.000000	94.824563 
3363.000000	94.825080 
3362.000000	94.826645 
3361.000000	94.828321 
3360.000000	94.829653 
3359.000000	94.831177 
3358.000000	94.833499 
3357.000000	94.836375 
3356.000000	94.839032 
3355.000000	94.841190 
3354.000000	94.843349 
3353.000000	94.846041 
3352.000000	94.849141 
3351.000000	94.851991 
3350.000000	94.854053 
3349.000000	94.855356 
3348.000000	94.856460 
3347.000000	94.858066 
3346.000000	94.860481 
3345.000000	94.863379 
3344.000000	94.866026 
3343.000000	94.867942 
3342.000000	94.869332 
3341.000000	94.870876 
3340.000000	94.873004 
3339.000000	94.875534 
3338.000000	94.877994 
3337.000000	94.880129 
3336.000000	94.882004 
3335.000000	94.883750 
3334.000000	94.885427 
3333.000000	94.887128 
3332.000000	94.889034 
3331.000000	94.891216 
3330.000000	94.893507 
3329.000000	94.895722 
3328.000000	94.897993 
3327.000000	94.900680 
3326.000000	94.903871 
3325.000000	94.907088 
3324.000000	94.909646 
3323.000000	94.911297 
3322.000000	94.912390 
3321.000000	94.913465 
3320.000000	94.914778 
3319.000000	94.916342 
3318.000000	94.918296 
3317.000000	94.920935 
3316.000000	94.924292 
3315.000000	94.927876 
3314.000000	94.930978 
3313.000000	94.933287 
3312.000000	94.935122 
3311.000000	94.937160 
3310.000000	94.939891 
3309.000000	94.943252 
3308.000000	94.946660 
3307.000000	94.949524 
3306.000000	94.951834 
3305.000000	94.954111 
3304.000000	94.956653 
3303.000000	94.959035 
3302.000000	94.960672 
3301.000000	94.961661 
3300.000000	94.962682 
3299.000000	94.964076 
3298.000000	94.965489 
3297.000000	94.966661 
3296.000000	94.968143 
3295.000000	94.970763 
3294.000000	94.974629 
3293.000000	94.979001 
3292.000000	94.982984 
3291.000000	94.986202 
3290.000000	94.988691 
3289.000000	94.990620 
3288.000000	94.992355 
3287.000000	94.994459 
3286.000000	94.997250 
3285.000000	95.000361 
3284.000000	95.003003 
3283.000000	95.004853 
3282.000000	95.006487 
3281.000000	95.008767 
3280.000000	95.011839 
3279.000000	95.015078 
3278.000000	95.017947 
3277.000000	95.020556 
3276.000000	95.023245 
3275.000000	95.026025 
3274.000000	95.028735 
3273.000000	95.031485 
3272.000000	95.034485 
3271.000000	95.037622 
3270.000000	95.040593 
3269.000000	95.043335 
3268.000000	95.046063 
3267.000000	95.048914 
3266.000000	95.051814 
3265.000000	95.054671 
3264.000000	95.057476 
3263.000000	95.060249 
3262.000000	95.062998 
3261.000000	95.065751 
3260.000000	95.068543 
3259.000000	95.071380 
3258.000000	95.074244 
3257.000000	95.077122 
3256.000000	95.080012 
3255.000000	95.082912 
3254.000000	95.085823 
3253.000000	95.088744 
3252.000000	95.091678 
3251.000000	95.094631 
3250.000000	95.097603 
3249.000000	95.100594 
3248.000000	95.103597 
3247.000000	95.106606 
3246.000000	95.109622 
3245.000000	95.112644 
3244.000000	95.115673 
3243.000000	95.118709 
3242.000000	95.121757 
3241.000000	95.124821 
3240.000000	95.127905 
3239.000000	95.131003 
3238.000000	95.134111 
3237.000000	95.137231 
3236.000000	95.140373 
3235.000000	95.143544 
3234.000000	95.146735 
3233.000000	95.149931 
3232.000000	95.153126 
3231.000000	95.156326 
3230.000000	95.159545 
3229.000000	95.162786 
3228.000000	95.166044 
3227.000000	95.169308 
3226.000000	95.172574 
3225.000000	95.175850 
3224.000000	95.179145 
3223.000000	95.182466 
3222.000000	95.185811 
3221.000000	95.189176 
3220.000000	95.192563 
3219.000000	95.195976 
3218.000000	95.199421 
3217.000000	95.202901 
3216.000000	95.206415 
3215.000000	95.209962 
3214.000000	95.213544 
3213.000000	95.217166 
3212.000000	95.220827 
3211.000000	95.224519 
3210.000000	95.228232 
3209.000000	95.231961 
3208.000000	95.235707 
3207.000000	95.239479 
3206.000000	95.243284 
3205.000000	95.247121 
3204.000000	95.250988 
3203.000000	95.254879 
3202.000000	95.258789 
3201.000000	95.262717 
3200.000000	95.266662 
3199.000000	95.270620 
3198.000000	95.274588 
3197.000000	95.278563 
3196.000000	95.282548 
3195.000000	95.286551 
3194.000000	95.290575 
3193.000000	95.294616 
3192.000000	95.298670 
3191.000000	95.302738 
3190.000000	95.306826 
3189.000000	95.310938 
3188.000000	95.315072 
3187.000000	95.319224 
3186.000000	95.323394 
3185.000000	95.327591 
3184.000000	95.331820 
3183.000000	95.336085 
3182.000000	95.340378 
3181.000000	95.344689 
3180.000000	95.349007 
3179.000000	95.353327 
3178.000000	95.357651 
3177.000000	95.361986 
3176.000000	95.366331 
3175.000000	95.370675 
3174.000000	95.375002 
3173.000000	95.379305 
3172.000000	95.383584 
3171.000000	95.387843 
3170.000000	95.392083 
3169.000000	95.396308 
3168.000000	95.400518 
3167.000000	95.404718 
3166.000000	95.408912 
3165.000000	95.413104 
3164.000000	95.417295 
3163.000000	95.421482 
3162.000000	95.425659 
3161.000000	95.429824 
3160.000000	95.433982 
3159.000000	95.438144 
3158.000000	95.442314 
3157.000000	95.446489 
3156.000000	95.450660 
3155.000000	95.454822 
3154.000000	95.458975 
3153.000000	95.463124 
3152.000000	95.467270 
3151.000000	95.471413 
3150.000000	95.475548 
3149.000000	95.479673 
3148.000000	95.483790 
3147.000000	95.487906 
3146.000000	95.492023 
3145.000000	95.496139 
3144.000000	95.500241 
3143.000000	95.504317 
3142.000000	95.508357 
3141.000000	95.512359 
3140.000000	95.516323 
3139.000000	95.520252 
3138.000000	95.524153 
3137.000000	95.528033 
3136.000000	95.531902 
3135.000000	95.535766 
3134.000000	95.539631 
3133.000000	95.543503 
3132.000000	95.547390 
3131.000000	95.551297 
3130.000000	95.555221 
3129.000000	95.559156 
3128.000000	95.563094 
3127.000000	95.567029 
3126.000000	95.570956 
3125.000000	95.574868 
3124.000000	95.578760 
3123.000000	95.582625 
3122.000000	95.586460 
3121.000000	95.590261 
3120.000000	95.594030 
3119.000000	95.597770 
3118.000000	95.601482 
3117.000000	95.605173 
3116.000000	95.608850 
3115.000000	95.612514 
3114.000000	95.616160 
3113.000000	95.619777 
3112.000000	95.623368 
3111.000000	95.626952 
3110.000000	95.630545 
3109.000000	95.634144 
3108.000000	95.637717 
3107.000000	95.641233 
3106.000000	95.644685 
3105.000000	95.648097 
3104.000000	95.651492 
3103.000000	95.654864 
3102.000000	95.658195 
3101.000000	95.661483 
3100.000000	95.664740 
3099.000000	95.667988 
3098.000000	95.671245 
3097.000000	95.674512 
3096.000000	95.677781 
3095.000000	95.681034 
3094.000000	95.684263 
3093.000000	95.687459 
3092.000000	95.690623 
3091.000000	95.693753 
3090.000000	95.696843 
3089.000000	95.699889 
3088.000000	95.702893 
3087.000000	95.705863 
3086.000000	95.708809 
3085.000000	95.711733 
3084.000000	95.714632 
3083.000000	95.717501 
3082.000000	95.720342 
3081.000000	95.723164 
3080.000000	95.725974 
3079.000000	95.728779 
3078.000000	95.731583 
3077.000000	95.734371 
3076.000000	95.737120 
3075.000000	95.739834 
3074.000000	95.742544 
3073.000000	95.745287 
3072.000000	95.748083 
3071.000000	95.750912 
3070.000000	95.753698 
3069.000000	95.756403 
3068.000000	95.759144 
3067.000000	95.762084 
3066.000000	95.765102 
3065.000000	95.767779 
3064.000000	95.769842 
3063.000000	95.771451 
3062.000000	95.773033 
3061.000000	95.774868 
3060.000000	95.776972 
3059.000000	95.779251 
3058.000000	95.781620 
3057.000000	95.784043 
3056.000000	95.786515 
3055.000000	95.788960 
3054.000000	95.791144 
3053.000000	95.792857 
3052.000000	95.794345 
3051.000000	95.796318 
3050.000000	95.799271 
3049.000000	95.802912 
3048.000000	95.806343 
3047.000000	95.808938 
3046.000000	95.810745 
3045.000000	95.812165 
3044.000000	95.813471 
3043.000000	95.814794 
3042.000000	95.816386 
3041.000000	95.818458 
3040.000000	95.820781 
3039.000000	95.822751 
3038.000000	95.824043 
3037.000000	95.824990 
3036.000000	95.826205 
3035.000000	95.827836 
3034.000000	95.829440 
3033.000000	95.830594 
3032.000000	95.831340 
3031.000000	95.832000 
3030.000000	95.832824 
3029.000000	95.833867 
3028.000000	95.835006 
3027.000000	95.835943 
3026.000000	95.836448 
3025.000000	95.836733 
3024.000000	95.837379 
3023.000000	95.838689 
3022.000000	95.840351 
3021.000000	95.841891 
3020.000000	95.843271 
3019.000000	95.844712 
3018.000000	95.846081 
3017.000000	95.846934 
3016.000000	95.847159 
3015.000000	95.847212 
3014.000000	95.847702 
3013.000000	95.848904 
3012.000000	95.850674 
3011.000000	95.852507 
3010.000000	95.853744 
3009.000000	95.854009 
3008.000000	95.853588 
3007.000000	95.853307 
3006.000000	95.853761 
3005.000000	95.854875 
3004.000000	95.856250 
3003.000000	95.857680 
3002.000000	95.859236 
3001.000000	95.861015 
3000.000000	95.862981 
2999.000000	95.864912 
2998.000000	95.866404 
2997.000000	95.867080 
2996.000000	95.866924 
2995.000000	95.866382 
2994.000000	95.866079 
2993.000000	95.866459 
2992.000000	95.867635 
2991.000000	95.869338 
2990.000000	95.870935 
2989.000000	95.871848 
2988.000000	95.872241 
2987.000000	95.873094 
2986.000000	95.875356 
2985.000000	95.879068 
2984.000000	95.883295 
2983.000000	95.886847 
2982.000000	95.889177 
2981.000000	95.890682 
2980.000000	95.892194 
2979.000000	95.893998 
2978.000000	95.895451 
2977.000000	95.895873 
2976.000000	95.895673 
2975.000000	95.896139 
2974.000000	95.898068 
2973.000000	95.901136 
2972.000000	95.904568 
2971.000000	95.907890 
2970.000000	95.910768 
2969.000000	95.912799 
2968.000000	95.914049 
2967.000000	95.915375 
2966.000000	95.917580 
2965.000000	95.920427 
2964.000000	95.922978 
2963.000000	95.924800 
2962.000000	95.926468 
2961.000000	95.928894 
2960.000000	95.932503 
2959.000000	95.937001 
2958.000000	95.941665 
2957.000000	95.945813 
2956.000000	95.949129 
2955.000000	95.951541 
2954.000000	95.953048 
2953.000000	95.953875 
2952.000000	95.954741 
2951.000000	95.956569 
2950.000000	95.959679 
2949.000000	95.963489 
2948.000000	95.967078 
2947.000000	95.969845 
2946.000000	95.971644 
2945.000000	95.972738 
2944.000000	95.973814 
2943.000000	95.975613 
2942.000000	95.978097 
2941.000000	95.980270 
2940.000000	95.981253 
2939.000000	95.981340 
2938.000000	95.981672 
2937.000000	95.982935 
2936.000000	95.984791 
2935.000000	95.986481 
2934.000000	95.987554 
2933.000000	95.988084 
2932.000000	95.988598 
2931.000000	95.989839 
2930.000000	95.992205 
2929.000000	95.995352 
2928.000000	95.998423 
2927.000000	96.000783 
2926.000000	96.002416 
2925.000000	96.003645 
2924.000000	96.004819 
2923.000000	96.006220 
2922.000000	96.007967 
2921.000000	96.009891 
2920.000000	96.011737 
2919.000000	96.013557 
2918.000000	96.015610 
2917.000000	96.017741 
2916.000000	96.019246 
2915.000000	96.019667 
2914.000000	96.019501 
2913.000000	96.019870 
2912.000000	96.021363 
2911.000000	96.023552 
2910.000000	96.025574 
2909.000000	96.027052 
2908.000000	96.028281 
2907.000000	96.029632 
2906.000000	96.031032 
2905.000000	96.032132 
2904.000000	96.032729 
2903.000000	96.033051 
2902.000000	96.033606 
2901.000000	96.034786 
2900.000000	96.036671 
2899.000000	96.039042 
2898.000000	96.041677 
2897.000000	96.044436 
2896.000000	96.047050 
2895.000000	96.049068 
2894.000000	96.050341 
2893.000000	96.051480 
2892.000000	96.053434 
2891.000000	96.056448 
2890.000000	96.059786 
2889.000000	96.062611 
2888.000000	96.064883 
2887.000000	96.066974 
2886.000000	96.068754 
2885.000000	96.069714 
2884.000000	96.070024 
2883.000000	96.070799 
2882.000000	96.072839 
2881.000000	96.075681 
2880.000000	96.078301 
2879.000000	96.080577 
2878.000000	96.083277 
2877.000000	96.086699 
2876.000000	96.090105 
2875.000000	96.092681 
2874.000000	96.094486 
2873.000000	96.096172 
2872.000000	96.098156 
2871.000000	96.100378 
2870.000000	96.102635 
2869.000000	96.104758 
2868.000000	96.106587 
2867.000000	96.108098 
2866.000000	96.109462 
2865.000000	96.110807 
2864.000000	96.112061 
2863.000000	96.113292 
2862.000000	96.115000 
2861.000000	96.117656 
2860.000000	96.120980 
2859.000000	96.124057 
2858.000000	96.126314 
2857.000000	96.128139 
2856.000000	96.130379 
2855.000000	96.133328 
2854.000000	96.136375 
2853.000000	96.138665 
2852.000000	96.139905 
2851.000000	96.140436 
2850.000000	96.140795 
2849.000000	96.141265 
2848.000000	96.141864 
2847.000000	96.142619 
2846.000000	96.143737 
2845.000000	96.145436 
2844.000000	96.147686 
2843.000000	96.150238 
2842.000000	96.152845 
2841.000000	96.155338 
2840.000000	96.157535 
2839.000000	96.159265 
2838.000000	96.160569 
2837.000000	96.161789 
2836.000000	96.163306 
2835.000000	96.165178 
2834.000000	96.167132 
2833.000000	96.168875 
2832.000000	96.170367 
2831.000000	96.171748 
2830.000000	96.173096 
2829.000000	96.174384 
2828.000000	96.175627 
2827.000000	96.176937 
2826.000000	96.178411 
2825.000000	96.180014 
2824.000000	96.181632 
2823.000000	96.183162 
2822.000000	96.184599 
2821.000000	96.185997 
2820.000000	96.187401 
2819.000000	96.188815 
2818.000000	96.190227 
2817.000000	96.191637 
2816.000000	96.193054 
2815.000000	96.194478 
2814.000000	96.195901 
2813.000000	96.197315 
2812.000000	96.198713 
2811.000000	96.200100 
2810.000000	96.201491 
2809.000000	96.202906 
2808.000000	96.204355 
2807.000000	96.205839 
2806.000000	96.207347 
2805.000000	96.208864 
2804.000000	96.210375 
2803.000000	96.211869 
2802.000000	96.213337 
2801.000000	96.214783 
2800.000000	96.216216 
2799.000000	96.217644 
2798.000000	96.219083 
2797.000000	96.220539 
2796.000000	96.222005 
2795.000000	96.223456 
2794.000000	96.224872 
2793.000000	96.226254 
2792.000000	96.227624 
2791.000000	96.229008 
2790.000000	96.230414 
2789.000000	96.231842 
2788.000000	96.233297 
2787.000000	96.234788 
2786.000000	96.236294 
2785.000000	96.237742 
2784.000000	96.239034 
2783.000000	96.240096 
2782.000000	96.240960 
2781.000000	96.241822 
2780.000000	96.242952 
2779.000000	96.244474 
2778.000000	96.246200 
2777.000000	96.247747 
2776.000000	96.248866 
2775.000000	96.249607 
2774.000000	96.250209 
2773.000000	96.250880 
2772.000000	96.251730 
2771.000000	96.252891 
2770.000000	96.254574 
2769.000000	96.256910 
2768.000000	96.259647 
2767.000000	96.262126 
2766.000000	96.263764 
2765.000000	96.264537 
2764.000000	96.265051 
2763.000000	96.265945 
2762.000000	96.267231 
2761.000000	96.268418 
2760.000000	96.269177 
2759.000000	96.269702 
2758.000000	96.270385 
2757.000000	96.271289 
2756.000000	96.272109 
2755.000000	96.272585 
2754.000000	96.272831 
2753.000000	96.273237 
2752.000000	96.274124 
2751.000000	96.275545 
2750.000000	96.277367 
2749.000000	96.279385 
2748.000000	96.281258 
2747.000000	96.282483 
2746.000000	96.282709 
2745.000000	96.282136 
2744.000000	96.281526 
2743.000000	96.281593 
2742.000000	96.282406 
2741.000000	96.283482 
2740.000000	96.284341 
2739.000000	96.284923 
2738.000000	96.285421 
2737.000000	96.285914 
2736.000000	96.286325 
2735.000000	96.286694 
2734.000000	96.287285 
2733.000000	96.288324 
2732.000000	96.289722 
2731.000000	96.291144 
2730.000000	96.292345 
2729.000000	96.293353 
2728.000000	96.294301 
2727.000000	96.295173 
2726.000000	96.295807 
2725.000000	96.296148 
2724.000000	96.296354 
2723.000000	96.296652 
2722.000000	96.297147 
2721.000000	96.297803 
2720.000000	96.298555 
2719.000000	96.299350 
2718.000000	96.300138 
2717.000000	96.300871 
2716.000000	96.301530 
2715.000000	96.302140 
2714.000000	96.302771 
2713.000000	96.303493 
2712.000000	96.304334 
2711.000000	96.305262 
2710.000000	96.306196 
2709.000000	96.307045 
2708.000000	96.307761 
2707.000000	96.308366 
2706.000000	96.308936 
2705.000000	96.309557 
2704.000000	96.310267 
2703.000000	96.311043 
2702.000000	96.311836 
2701.000000	96.312640 
2700.000000	96.313505 
2699.000000	96.314450 
2698.000000	96.315370 
2697.000000	96.316083 
2696.000000	96.316492 
2695.000000	96.316677 
2694.000000	96.316882 
2693.000000	96.317323 
2692.000000	96.318029 
2691.000000	96.318843 
2690.000000	96.319535 
2689.000000	96.319952 
2688.000000	96.320055 
2687.000000	96.319894 
2686.000000	96.319641 
2685.000000	96.319609 
2684.000000	96.320078 
2683.000000	96.321053 
2682.000000	96.322216 
2681.000000	96.323148 
2680.000000	96.323663 
2679.000000	96.323861 
2678.000000	96.323913 
2677.000000	96.323862 
2676.000000	96.323669 
2675.000000	96.323358 
2674.000000	96.323054 
2673.000000	96.322921 
2672.000000	96.323008 
2671.000000	96.323087 
2670.000000	96.322741 
2669.000000	96.321761 
2668.000000	96.320417 
2667.000000	96.319262 
2666.000000	96.318630 
2665.000000	96.318452 
2664.000000	96.318480 
2663.000000	96.318550 
2662.000000	96.318586 
2661.000000	96.318451 
2660.000000	96.317947 
2659.000000	96.317003 
2658.000000	96.315788 
2657.000000	96.314650 
2656.000000	96.313901 
2655.000000	96.313633 
2654.000000	96.313668 
2653.000000	96.313665 
2652.000000	96.313351 
2651.000000	96.312679 
2650.000000	96.311792 
2649.000000	96.310912 
2648.000000	96.310232 
2647.000000	96.309862 
2646.000000	96.309797 
2645.000000	96.309881 
2644.000000	96.309860 
2643.000000	96.309524 
2642.000000	96.308825 
2641.000000	96.307900 
2640.000000	96.307035 
2639.000000	96.306525 
2638.000000	96.306502 
2637.000000	96.306872 
2636.000000	96.307394 
2635.000000	96.307832 
2634.000000	96.308051 
2633.000000	96.308030 
2632.000000	96.307824 
2631.000000	96.307547 
2630.000000	96.307356 
2629.000000	96.307364 
2628.000000	96.307578 
2627.000000	96.307905 
2626.000000	96.308211 
2625.000000	96.308431 
2624.000000	96.308596 
2623.000000	96.308749 
2622.000000	96.308876 
2621.000000	96.308932 
2620.000000	96.308927 
2619.000000	96.308933 
2618.000000	96.309021 
2617.000000	96.309209 
2616.000000	96.309468 
2615.000000	96.309743 
2614.000000	96.309985 
2613.000000	96.310179 
2612.000000	96.310340 
2611.000000	96.310497 
2610.000000	96.310671 
2609.000000	96.310869 
2608.000000	96.311082 
2607.000000	96.311295 
2606.000000	96.311497 
2605.000000	96.311681 
2604.000000	96.311848 
2603.000000	96.312002 
2602.000000	96.312155 
2601.000000	96.312336 
2600.000000	96.312566 
2599.000000	96.312841 
2598.000000	96.313142 
2597.000000	96.313445 
2596.000000	96.313731 
2595.000000	96.313985 
2594.000000	96.314196 
2593.000000	96.314361 
2592.000000	96.314507 
2591.000000	96.314696 
2590.000000	96.314963 
2589.000000	96.315265 
2588.000000	96.315565 
2587.000000	96.315883 
2586.000000	96.316206 
2585.000000	96.316459 
2584.000000	96.316616 
2583.000000	96.316775 
2582.000000	96.317039 
2581.000000	96.317407 
2580.000000	96.317837 
2579.000000	96.318349 
2578.000000	96.318985 
2577.000000	96.319652 
2576.000000	96.320153 
2575.000000	96.320401 
2574.000000	96.320472 
2573.000000	96.320528 
2572.000000	96.320711 
2571.000000	96.321059 
2570.000000	96.321503 
2569.000000	96.321964 
2568.000000	96.322436 
2567.000000	96.322956 
2566.000000	96.323512 
2565.000000	96.324054 
2564.000000	96.324570 
2563.000000	96.325097 
2562.000000	96.325646 
2561.000000	96.326199 
2560.000000	96.326768 
2559.000000	96.327395 
2558.000000	96.328080 
2557.000000	96.328732 
2556.000000	96.329228 
2555.000000	96.329555 
2554.000000	96.329801 
2553.000000	96.330069 
2552.000000	96.330397 
2551.000000	96.330785 
2550.000000	96.331215 
2549.000000	96.331658 
2548.000000	96.332078 
2547.000000	96.332451 
2546.000000	96.332787 
2545.000000	96.333115 
2544.000000	96.333473 
2543.000000	96.333878 
2542.000000	96.334323 
2541.000000	96.334787 
2540.000000	96.335247 
2539.000000	96.335672 
2538.000000	96.336038 
2537.000000	96.336342 
2536.000000	96.336606 
2535.000000	96.336873 
2534.000000	96.337177 
2533.000000	96.337529 
2532.000000	96.337916 
2531.000000	96.338312 
2530.000000	96.338699 
2529.000000	96.339066 
2528.000000	96.339411 
2527.000000	96.339748 
2526.000000	96.340098 
2525.000000	96.340487 
2524.000000	96.340925 
2523.000000	96.341408 
2522.000000	96.341912 
2521.000000	96.342409 
2520.000000	96.342880 
2519.000000	96.343325 
2518.000000	96.343756 
2517.000000	96.344185 
2516.000000	96.344627 
2515.000000	96.345101 
2514.000000	96.345630 
2513.000000	96.346223 
2512.000000	96.346866 
2511.000000	96.347526 
2510.000000	96.348169 
2509.000000	96.348777 
2508.000000	96.349357 
2507.000000	96.349929 
2506.000000	96.350518 
2505.000000	96.351144 
2504.000000	96.351815 
2503.000000	96.352518 
2502.000000	96.353225 
2501.000000	96.353912 
2500.000000	96.354567 
2499.000000	96.355196 
2498.000000	96.355819 
2497.000000	96.356461 
2496.000000	96.357143 
2495.000000	96.357872 
2494.000000	96.358633 
2493.000000	96.359387 
2492.000000	96.360093 
2491.000000	96.360731 
2490.000000	96.361308 
2489.000000	96.361851 
2488.000000	96.362383 
2487.000000	96.362917 
2486.000000	96.363462 
2485.000000	96.364013 
2484.000000	96.364558 
2483.000000	96.365069 
2482.000000	96.365521 
2481.000000	96.365902 
2480.000000	96.366223 
2479.000000	96.366513 
2478.000000	96.366802 
2477.000000	96.367110 
2476.000000	96.367433 
2475.000000	96.367755 
2474.000000	96.368049 
2473.000000	96.368294 
2472.000000	96.368485 
2471.000000	96.368632 
2470.000000	96.368759 
2469.000000	96.368902 
2468.000000	96.369094 
2467.000000	96.369343 
2466.000000	96.369630 
2465.000000	96.369912 
2464.000000	96.370160 
2463.000000	96.370358 
2462.000000	96.370512 
2461.000000	96.370644 
2460.000000	96.370781 
2459.000000	96.370938 
2458.000000	96.371113 
2457.000000	96.371304 
2456.000000	96.371513 
2455.000000	96.371723 
2454.000000	96.371893 
2453.000000	96.371983 
2452.000000	96.371997 
2451.000000	96.372006 
2450.000000	96.372125 
2449.000000	96.372442 
2448.000000	96.372975 
2447.000000	96.373639 
2446.000000	96.374280 
2445.000000	96.374762 
2444.000000	96.375032 
2443.000000	96.375145 
2442.000000	96.375221 
2441.000000	96.375367 
2440.000000	96.375673 
2439.000000	96.376243 
2438.000000	96.377163 
2437.000000	96.378415 
2436.000000	96.379837 
2435.000000	96.381149 
2434.000000	96.382089 
2433.000000	96.382582 
2432.000000	96.382816 
2431.000000	96.383175 
2430.000000	96.384027 
2429.000000	96.385481 
2428.000000	96.387245 
2427.000000	96.388741 
2426.000000	96.389451 
2425.000000	96.389126 
2424.000000	96.387902 
2423.000000	96.386224 
2422.000000	96.384689 
2421.000000	96.384055 
2420.000000	96.385022 
2419.000000	96.387642 
2418.000000	96.390932 
2417.000000	96.393735 
2416.000000	96.395664 
2415.000000	96.396840 
2414.000000	96.397527 
2413.000000	96.398584 
2412.000000	96.401285 
2411.000000	96.405637 
2410.000000	96.409597 
2409.000000	96.411158 
2408.000000	96.410708 
2407.000000	96.410056 
2406.000000	96.409730 
2405.000000	96.408514 
2404.000000	96.405625 
2403.000000	96.402119 
2402.000000	96.399910 
2401.000000	96.400209 
2400.000000	96.403030 
2399.000000	96.407498 
2398.000000	96.412466 
2397.000000	96.417242 
2396.000000	96.421632 
2395.000000	96.425034 
2394.000000	96.426245 
2393.000000	96.425045 
2392.000000	96.423292 
2391.000000	96.423131 
2390.000000	96.424287 
2389.000000	96.424277 
2388.000000	96.421238 
2387.000000	96.415383 
2386.000000	96.407887 
2385.000000	96.399881 
2384.000000	96.392918 
2383.000000	96.389156 
2382.000000	96.390566 
2381.000000	96.398481 
2380.000000	96.413700 
2379.000000	96.435495 
2378.000000	96.459556 
2377.000000	96.478398 
2376.000000	96.485979 
2375.000000	96.481654 
2374.000000	96.469496 
2373.000000	96.454766 
2372.000000	96.441765 
2371.000000	96.434073 
2370.000000	96.433779 
2369.000000	96.438909 
2368.000000	96.443201 
2367.000000	96.441129 
2366.000000	96.433412 
2365.000000	96.426183 
2364.000000	96.423961 
2363.000000	96.424918 
2362.000000	96.424960 
2361.000000	96.423664 
2360.000000	96.422612 
2359.000000	96.421468 
2358.000000	96.418807 
2357.000000	96.415231 
2356.000000	96.412965 
2355.000000	96.412846 
2354.000000	96.415850 
2353.000000	96.419771 
2352.000000	96.419909 
2351.000000	96.412892 
2350.000000	96.399576 
2349.000000	96.385641 
2348.000000	96.377199 
2347.000000	96.376122 
2346.000000	96.375184 
2345.000000	96.366198 
2344.000000	96.351924 
2343.000000	96.340545 
2342.000000	96.339440 
2341.000000	96.348732 
2340.000000	96.362416 
2339.000000	96.371794 
2338.000000	96.372639 
2337.000000	96.367341 
2336.000000	96.359311 
2335.000000	96.351041 
2334.000000	96.343970 
2333.000000	96.339305 
2332.000000	96.333793 
2331.000000	96.324021 
2330.000000	96.305696 
2329.000000	96.280835 
2328.000000	96.251311 
2327.000000	96.224138 
2326.000000	96.203237 
2325.000000	96.190832 
2324.000000	96.186631 
2323.000000	96.188987 
2322.000000	96.193713 
2321.000000	96.194227 
2320.000000	96.189001 
2319.000000	96.185274 
2318.000000	96.189359 
2317.000000	96.201162 
2316.000000	96.213786 
2315.000000	96.224552 
2314.000000	96.231802 
2313.000000	96.235833 
2312.000000	96.233800 
2311.000000	96.227003 
2310.000000	96.216335 
2309.000000	96.204086 
2308.000000	96.191811 
2307.000000	96.185145 
2306.000000	96.186845 
2305.000000	96.193962 
2304.000000	96.198583 
2303.000000	96.198062 
2302.000000	96.195191 
2301.000000	96.194365 
2300.000000	96.195421 
2299.000000	96.197426 
2298.000000	96.199114 
2297.000000	96.201466 
2296.000000	96.204922 
2295.000000	96.211170 
2294.000000	96.220174 
2293.000000	96.230556 
2292.000000	96.239407 
2291.000000	96.245410 
2290.000000	96.248521 
2289.000000	96.249156 
2288.000000	96.248373 
2287.000000	96.248376 
2286.000000	96.251008 
2285.000000	96.255470 
2284.000000	96.259929 
2283.000000	96.263938 
2282.000000	96.268727 
2281.000000	96.274699 
2280.000000	96.280942 
2279.000000	96.286119 
2278.000000	96.289262 
2277.000000	96.289833 
2276.000000	96.288324 
2275.000000	96.286714 
2274.000000	96.287286 
2273.000000	96.290999 
2272.000000	96.296867 
2271.000000	96.302708 
2270.000000	96.306056 
2269.000000	96.305799 
2268.000000	96.303432 
2267.000000	96.301930 
2266.000000	96.302560 
2265.000000	96.303971 
2264.000000	96.304709 
2263.000000	96.305155 
2262.000000	96.305977 
2261.000000	96.306285 
2260.000000	96.304973 
2259.000000	96.302488 
2258.000000	96.300219 
2257.000000	96.299026 
2256.000000	96.299209 
2255.000000	96.300893 
2254.000000	96.303458 
2253.000000	96.305259 
2252.000000	96.304955 
2251.000000	96.302781 
2250.000000	96.299832 
2249.000000	96.296881 
2248.000000	96.294373 
2247.000000	96.292848 
2246.000000	96.292514 
2245.000000	96.292741 
2244.000000	96.292538 
2243.000000	96.291576 
2242.000000	96.290230 
2241.000000	96.288932 
2240.000000	96.287866 
2239.000000	96.287078 
2238.000000	96.286543 
2237.000000	96.286099 
2236.000000	96.285520 
2235.000000	96.284693 
2234.000000	96.283644 
2233.000000	96.282458 
2232.000000	96.281231 
2231.000000	96.280037 
2230.000000	96.278875 
2229.000000	96.277706 
2228.000000	96.276510 
2227.000000	96.275296 
2226.000000	96.274072 
2225.000000	96.272839 
2224.000000	96.271612 
2223.000000	96.270425 
2222.000000	96.269313 
2221.000000	96.268288 
2220.000000	96.267323 
2219.000000	96.266370 
2218.000000	96.265399 
2217.000000	96.264418 
2216.000000	96.263452 
2215.000000	96.262522 
2214.000000	96.261621 
2213.000000	96.260730 
2212.000000	96.259842 
2211.000000	96.258973 
2210.000000	96.258142 
2209.000000	96.257351 
2208.000000	96.256569 
2207.000000	96.255760 
2206.000000	96.254891 
2205.000000	96.253937 
2204.000000	96.252889 
2203.000000	96.251757 
2202.000000	96.250602 
2201.000000	96.249618 
2200.000000	96.248915 
2199.000000	96.248246 
2198.000000	96.247219 
2197.000000	96.245629 
2196.000000	96.243684 
2195.000000	96.241881 
2194.000000	96.240553 
2193.000000	96.239659 
2192.000000	96.238949 
2191.000000	96.238180 
2190.000000	96.237165 
2189.000000	96.235951 
2188.000000	96.235059 
2187.000000	96.235001 
2186.000000	96.235306 
2185.000000	96.234698 
2184.000000	96.232971 
2183.000000	96.232049 
2182.000000	96.233979 
2181.000000	96.238204 
2180.000000	96.241518 
2179.000000	96.241418 
2178.000000	96.238432 
2177.000000	96.235440 
2176.000000	96.234907 
2175.000000	96.237010 
2174.000000	96.239946 
2173.000000	96.241704 
2172.000000	96.241998 
2171.000000	96.242477 
2170.000000	96.244486 
2169.000000	96.246834 
2168.000000	96.246952 
2167.000000	96.244333 
2166.000000	96.241119 
2165.000000	96.238701 
2164.000000	96.235774 
2163.000000	96.231556 
2162.000000	96.229554 
2161.000000	96.235331 
2160.000000	96.250689 
2159.000000	96.271063 
2158.000000	96.288461 
2157.000000	96.297712 
2156.000000	96.299167 
2155.000000	96.297037 
2154.000000	96.296393 
2153.000000	96.300662 
2152.000000	96.310234 
2151.000000	96.321865 
2150.000000	96.329919 
2149.000000	96.330336 
2148.000000	96.324338 
2147.000000	96.317591 
2146.000000	96.314842 
2145.000000	96.316746 
2144.000000	96.322455 
2143.000000	96.332469 
2142.000000	96.346418 
2141.000000	96.360058 
2140.000000	96.368471 
2139.000000	96.372173 
2138.000000	96.376874 
2137.000000	96.386324 
2136.000000	96.397794 
2135.000000	96.405618 
2134.000000	96.406896 
2133.000000	96.403200 
2132.000000	96.398547 
2131.000000	96.395909 
2130.000000	96.394909 
2129.000000	96.392788 
2128.000000	96.388110 
2127.000000	96.382973 
2126.000000	96.380711 
2125.000000	96.382325 
2124.000000	96.386477 
2123.000000	96.391772 
2122.000000	96.396826 
2121.000000	96.398782 
2120.000000	96.394663 
2119.000000	96.384948 
2118.000000	96.374348 
2117.000000	96.367866 
2116.000000	96.366161 
2115.000000	96.365207 
2114.000000	96.359948 
2113.000000	96.349140 
2112.000000	96.337358 
2111.000000	96.331121 
2110.000000	96.332101 
2109.000000	96.335464 
2108.000000	96.336368 
2107.000000	96.336051 
2106.000000	96.338808 
2105.000000	96.345660 
2104.000000	96.354590 
2103.000000	96.364346 
2102.000000	96.373656 
2101.000000	96.378632 
2100.000000	96.375998 
2099.000000	96.368768 
2098.000000	96.364696 
2097.000000	96.368053 
2096.000000	96.375988 
2095.000000	96.383237 
2094.000000	96.387085 
2093.000000	96.387146 
2092.000000	96.383747 
2091.000000	96.378483 
2090.000000	96.374327 
2089.000000	96.373266 
2088.000000	96.374432 
2087.000000	96.375231 
2086.000000	96.373625 
2085.000000	96.369238 
2084.000000	96.363514 
2083.000000	96.359131 
2082.000000	96.358014 
2081.000000	96.359584 
2080.000000	96.361734 
2079.000000	96.363407 
2078.000000	96.364828 
2077.000000	96.365385 
2076.000000	96.363468 
2075.000000	96.359036 
2074.000000	96.354406 
2073.000000	96.351451 
2072.000000	96.349326 
2071.000000	96.346115 
2070.000000	96.341651 
2069.000000	96.337557 
2068.000000	96.335378 
2067.000000	96.335612 
2066.000000	96.337805 
2065.000000	96.340429 
2064.000000	96.341331 
2063.000000	96.339400 
2062.000000	96.335601 
2061.000000	96.332452 
2060.000000	96.331860 
2059.000000	96.333809 
2058.000000	96.336632 
2057.000000	96.338424 
2056.000000	96.338258 
2055.000000	96.336103 
2054.000000	96.332477 
2053.000000	96.328322 
2052.000000	96.324736 
2051.000000	96.322294 
2050.000000	96.320803 
2049.000000	96.320002 
2048.000000	96.320313 
2047.000000	96.322264 
2046.000000	96.325190 
2045.000000	96.327463 
2044.000000	96.328339 
2043.000000	96.328539 
2042.000000	96.328481 
2041.000000	96.327195 
2040.000000	96.324290 
2039.000000	96.322024 
2038.000000	96.323356 
2037.000000	96.328208 
2036.000000	96.333396 
2035.000000	96.336599 
2034.000000	96.338736 
2033.000000	96.341788 
2032.000000	96.345999 
2031.000000	96.349977 
2030.000000	96.352209 
2029.000000	96.351755 
2028.000000	96.348555 
2027.000000	96.343927 
2026.000000	96.340163 
2025.000000	96.339195 
2024.000000	96.342123 
2023.000000	96.349751 
2022.000000	96.362007 
2021.000000	96.375679 
2020.000000	96.384595 
2019.000000	96.384194 
2018.000000	96.375029 
2017.000000	96.362594 
2016.000000	96.353165 
2015.000000	96.349176 
2014.000000	96.348559 
2013.000000	96.347069 
2012.000000	96.342526 
2011.000000	96.337679 
2010.000000	96.337422 
2009.000000	96.342866 
2008.000000	96.349743 
2007.000000	96.353654 
2006.000000	96.355015 
2005.000000	96.356785 
2004.000000	96.359494 
2003.000000	96.361156 
2002.000000	96.361129 
2001.000000	96.360947 
2000.000000	96.361354 
1999.000000	96.360507 
1998.000000	96.356075 
1997.000000	96.348473 
1996.000000	96.341047 
1995.000000	96.336881 
1994.000000	96.335794 
1993.000000	96.334783 
1992.000000	96.331582 
1991.000000	96.327572 
1990.000000	96.326058 
1989.000000	96.327938 
1988.000000	96.330525 
1987.000000	96.330662 
1986.000000	96.327737 
1985.000000	96.322911 
1984.000000	96.316739 
1983.000000	96.309103 
1982.000000	96.301375 
1981.000000	96.297018 
1980.000000	96.299525 
1979.000000	96.309631 
1978.000000	96.323891 
1977.000000	96.336081 
1976.000000	96.341646 
1975.000000	96.341409 
1974.000000	96.340158 
1973.000000	96.341953 
1972.000000	96.346863 
1971.000000	96.352015 
1970.000000	96.354580 
1969.000000	96.353222 
1968.000000	96.348166 
1967.000000	96.341548 
1966.000000	96.337065 
1965.000000	96.337345 
1964.000000	96.342029 
1963.000000	96.348922 
1962.000000	96.356353 
1961.000000	96.363338 
1960.000000	96.368143 
1959.000000	96.369027 
1958.000000	96.366982 
1957.000000	96.365917 
1956.000000	96.368453 
1955.000000	96.372824 
1954.000000	96.375295 
1953.000000	96.374839 
1952.000000	96.373564 
1951.000000	96.373452 
1950.000000	96.374880 
1949.000000	96.377963 
1948.000000	96.383178 
1947.000000	96.389870 
1946.000000	96.395607 
1945.000000	96.398336 
1944.000000	96.398188 
1943.000000	96.396691 
1942.000000	96.395030 
1941.000000	96.393567 
1940.000000	96.392225 
1939.000000	96.390441 
1938.000000	96.387605 
1937.000000	96.384460 
1936.000000	96.383026 
1935.000000	96.383999 
1934.000000	96.385385 
1933.000000	96.385249 
1932.000000	96.384839 
1931.000000	96.386909 
1930.000000	96.391780 
1929.000000	96.396510 
1928.000000	96.398859 
1927.000000	96.399682 
1926.000000	96.400885 
1925.000000	96.402452 
1924.000000	96.402557 
1923.000000	96.400523 
1922.000000	96.397819 
1921.000000	96.396179 
1920.000000	96.395885 
1919.000000	96.395774 
1918.000000	96.394435 
1917.000000	96.391660 
1916.000000	96.388917 
1915.000000	96.387953 
1914.000000	96.388892 
1913.000000	96.390157 
1912.000000	96.390102 
1911.000000	96.388551 
1910.000000	96.386468 
1909.000000	96.384758 
1908.000000	96.383801 
1907.000000	96.383425 
1906.000000	96.382984 
1905.000000	96.381762 
1904.000000	96.379663 
1903.000000	96.377470 
1902.000000	96.375976 
1901.000000	96.375175 
1900.000000	96.374636 
1899.000000	96.374138 
1898.000000	96.373700 
1897.000000	96.373178 
1896.000000	96.372229 
1895.000000	96.370812 
1894.000000	96.369301 
1893.000000	96.368032 
1892.000000	96.367063 
1891.000000	96.366434 
1890.000000	96.366247 
1889.000000	96.366394 
1888.000000	96.366571 
1887.000000	96.366658 
1886.000000	96.366652 
1885.000000	96.366255 
1884.000000	96.365065 
1883.000000	96.363304 
1882.000000	96.361963 
1881.000000	96.361804 
1880.000000	96.362662 
1879.000000	96.363589 
1878.000000	96.363716 
1877.000000	96.363072 
1876.000000	96.362532 
1875.000000	96.363046 
1874.000000	96.364882 
1873.000000	96.367430 
1872.000000	96.369825 
1871.000000	96.371679 
1870.000000	96.372961 
1869.000000	96.373604 
1868.000000	96.373723 
1867.000000	96.373999 
1866.000000	96.374937 
1865.000000	96.375996 
1864.000000	96.376409 
1863.000000	96.376641 
1862.000000	96.378091 
1861.000000	96.381223 
1860.000000	96.384918 
1859.000000	96.387909 
1858.000000	96.390034 
1857.000000	96.391739 
1856.000000	96.393306 
1855.000000	96.394712 
1854.000000	96.395794 
1853.000000	96.396467 
1852.000000	96.397668 
1851.000000	96.400938 
1850.000000	96.406565 
1849.000000	96.412996 
1848.000000	96.418232 
1847.000000	96.421749 
1846.000000	96.423918 
1845.000000	96.424610 
1844.000000	96.423813 
1843.000000	96.422905 
1842.000000	96.423448 
1841.000000	96.425518 
1840.000000	96.428646 
1839.000000	96.432758 
1838.000000	96.437644 
1837.000000	96.441830 
1836.000000	96.443632 
1835.000000	96.443566 
1834.000000	96.443814 
1833.000000	96.445417 
1832.000000	96.447757 
1831.000000	96.449711 
1830.000000	96.451003 
1829.000000	96.452416 
1828.000000	96.454204 
1827.000000	96.455745 
1826.000000	96.456194 
1825.000000	96.455537 
1824.000000	96.454471 
1823.000000	96.453560 
1822.000000	96.453231 
1821.000000	96.453480 
1820.000000	96.453884 
1819.000000	96.454431 
1818.000000	96.456515 
1817.000000	96.460903 
1816.000000	96.465606 
1815.000000	96.469204 
1814.000000	96.472812 
1813.000000	96.477627 
1812.000000	96.481484 
1811.000000	96.480680 
1810.000000	96.476281 
1809.000000	96.472681 
1808.000000	96.471112 
1807.000000	96.469919 
1806.000000	96.468667 
1805.000000	96.468137 
1804.000000	96.467293 
1803.000000	96.464219 
1802.000000	96.458356 
1801.000000	96.452044 
1800.000000	96.447840 
1799.000000	96.446712 
1798.000000	96.449579 
1797.000000	96.455104 
1796.000000	96.459537 
1795.000000	96.461379 
1794.000000	96.462452 
1793.000000	96.464807 
1792.000000	96.467316 
1791.000000	96.467780 
1790.000000	96.467452 
1789.000000	96.468809 
1788.000000	96.472527 
1787.000000	96.477822 
1786.000000	96.483518 
1785.000000	96.487860 
1784.000000	96.488854 
1783.000000	96.487491 
1782.000000	96.486035 
1781.000000	96.486535 
1780.000000	96.490351 
1779.000000	96.496971 
1778.000000	96.505222 
1777.000000	96.512797 
1776.000000	96.517785 
1775.000000	96.520050 
1774.000000	96.520397 
1773.000000	96.520458 
1772.000000	96.521649 
1771.000000	96.523006 
1770.000000	96.523748 
1769.000000	96.524397 
1768.000000	96.525385 
1767.000000	96.526938 
1766.000000	96.528901 
1765.000000	96.531381 
1764.000000	96.534484 
1763.000000	96.537717 
1762.000000	96.540320 
1761.000000	96.542411 
1760.000000	96.544253 
1759.000000	96.545668 
1758.000000	96.546362 
1757.000000	96.546415 
1756.000000	96.547056 
1755.000000	96.548635 
1754.000000	96.550037 
1753.000000	96.550331 
1752.000000	96.550236 
1751.000000	96.551645 
1750.000000	96.555187 
1749.000000	96.559036 
1748.000000	96.561246 
1747.000000	96.562021 
1746.000000	96.562314 
1745.000000	96.562756 
1744.000000	96.563021 
1743.000000	96.561972 
1742.000000	96.559510 
1741.000000	96.557575 
1740.000000	96.558118 
1739.000000	96.560764 
1738.000000	96.563201 
1737.000000	96.563707 
1736.000000	96.561598 
1735.000000	96.557020 
1734.000000	96.553164 
1733.000000	96.553214 
1732.000000	96.556777 
1731.000000	96.561511 
1730.000000	96.564864 
1729.000000	96.565182 
1728.000000	96.563324 
1727.000000	96.561266 
1726.000000	96.559165 
1725.000000	96.556432 
1724.000000	96.553112 
1723.000000	96.550451 
1722.000000	96.550241 
1721.000000	96.552233 
1720.000000	96.554284 
1719.000000	96.553971 
1718.000000	96.551110 
1717.000000	96.546962 
1716.000000	96.540492 
1715.000000	96.532454 
1714.000000	96.526419 
1713.000000	96.523169 
1712.000000	96.520011 
1711.000000	96.515971 
1710.000000	96.512447 
1709.000000	96.509663 
1708.000000	96.506361 
1707.000000	96.502323 
1706.000000	96.499043 
1705.000000	96.496240 
1704.000000	96.490229 
1703.000000	96.479483 
1702.000000	96.466049 
1701.000000	96.454860 
1700.000000	96.449156 
1699.000000	96.444209 
1698.000000	96.438870 
1697.000000	96.433950 
1696.000000	96.428441 
1695.000000	96.422844 
1694.000000	96.418149 
1693.000000	96.414183 
1692.000000	96.409912 
1691.000000	96.404573 
1690.000000	96.397708 
1689.000000	96.388805 
1688.000000	96.378900 
1687.000000	96.370120 
1686.000000	96.364622 
1685.000000	96.363020 
1684.000000	96.360686 
1683.000000	96.353371 
1682.000000	96.343395 
1681.000000	96.332594 
1680.000000	96.321599 
1679.000000	96.311017 
1678.000000	96.300719 
1677.000000	96.290704 
1676.000000	96.282658 
1675.000000	96.277850 
1674.000000	96.271707 
1673.000000	96.261233 
1672.000000	96.249407 
1671.000000	96.240645 
1670.000000	96.235895 
1669.000000	96.230789 
1668.000000	96.223872 
1667.000000	96.217342 
1666.000000	96.210198 
1665.000000	96.201230 
1664.000000	96.192309 
1663.000000	96.186916 
1662.000000	96.182363 
1661.000000	96.172072 
1660.000000	96.158545 
1659.000000	96.148733 
1658.000000	96.143526 
1657.000000	96.137896 
1656.000000	96.127482 
1655.000000	96.111384 
1654.000000	96.094033 
1653.000000	96.087332 
1652.000000	96.082357 
1651.000000	96.076516 
1650.000000	96.071488 
1649.000000	96.066651 
1648.000000	96.061650 
1647.000000	96.058657 
1646.000000	96.057040 
1645.000000	96.053301 
1644.000000	96.046379 
1643.000000	96.038571 
1642.000000	96.032609 
1641.000000	96.028654 
1640.000000	96.026389 
1639.000000	96.023311 
1638.000000	96.018439 
1637.000000	96.014574 
1636.000000	96.017647 
1635.000000	96.027007 
1634.000000	96.033655 
1633.000000	96.034054 
1632.000000	96.029259 
1631.000000	96.024198 
1630.000000	96.023826 
1629.000000	96.028983 
1628.000000	96.037508 
1627.000000	96.048250 
1626.000000	96.059561 
1625.000000	96.070298 
1624.000000	96.083016 
1623.000000	96.100255 
1622.000000	96.116926 
1621.000000	96.125386 
1620.000000	96.127023 
1619.000000	96.129291 
1618.000000	96.138880 
1617.000000	96.155050 
1616.000000	96.170206 
1615.000000	96.180995 
1614.000000	96.189114 
1613.000000	96.195110 
1612.000000	96.200728 
1611.000000	96.210237 
1610.000000	96.224055 
1609.000000	96.238677 
1608.000000	96.253613 
1607.000000	96.270410 
1606.000000	96.285566 
1605.000000	96.294999 
1604.000000	96.302062 
1603.000000	96.311438 
1602.000000	96.322219 
1601.000000	96.331338 
1600.000000	96.339705 
1599.000000	96.350050 
1598.000000	96.361266 
1597.000000	96.370596 
1596.000000	96.378103 
1595.000000	96.385952 
1594.000000	96.394422 
1593.000000	96.401865 
1592.000000	96.408328 
1591.000000	96.415514 
1590.000000	96.423472 
1589.000000	96.430899 
1588.000000	96.438634 
1587.000000	96.448100 
1586.000000	96.457149 
1585.000000	96.461148 
1584.000000	96.461642 
1583.000000	96.464824 
1582.000000	96.471675 
1581.000000	96.478432 
1580.000000	96.483947 
1579.000000	96.489904 
1578.000000	96.496901 
1577.000000	96.506012 
1576.000000	96.517868 
1575.000000	96.528486 
1574.000000	96.533363 
1573.000000	96.533566 
1572.000000	96.534906 
1571.000000	96.543462 
1570.000000	96.557515 
1569.000000	96.565717 
1568.000000	96.566120 
1567.000000	96.565185 
1566.000000	96.564312 
1565.000000	96.561776 
1564.000000	96.560029 
1563.000000	96.558929 
1562.000000	96.556841 
1561.000000	96.550889 
1560.000000	96.554960 
1559.000000	96.571141 
1558.000000	96.572828 
1557.000000	96.562987 
1556.000000	96.558301 
1555.000000	96.557759 
1554.000000	96.555350 
1553.000000	96.551125 
1552.000000	96.548498 
1551.000000	96.543172 
1550.000000	96.530829 
1549.000000	96.515454 
1548.000000	96.505239 
1547.000000	96.502303 
1546.000000	96.499148 
1545.000000	96.487619 
1544.000000	96.469334 
1543.000000	96.451866 
1542.000000	96.441539 
1541.000000	96.438241 
1540.000000	96.429825 
1539.000000	96.409490 
1538.000000	96.384609 
1537.000000	96.361338 
1536.000000	96.340669 
1535.000000	96.325627 
1534.000000	96.317611 
1533.000000	96.311501 
1532.000000	96.300535 
1531.000000	96.285370 
1530.000000	96.271843 
1529.000000	96.261837 
1528.000000	96.251001 
1527.000000	96.235439 
1526.000000	96.215943 
1525.000000	96.196705 
1524.000000	96.181822 
1523.000000	96.172823 
1522.000000	96.166548 
1521.000000	96.154752 
1520.000000	96.134127 
1519.000000	96.110790 
1518.000000	96.089782 
1517.000000	96.070712 
1516.000000	96.051445 
1515.000000	96.032898 
1514.000000	96.017282 
1513.000000	96.004993 
1512.000000	95.993382 
1511.000000	95.978547 
1510.000000	95.959938 
1509.000000	95.938343 
1508.000000	95.913957 
1507.000000	95.886203 
1506.000000	95.859068 
1505.000000	95.835022 
1504.000000	95.814107 
1503.000000	95.794734 
1502.000000	95.775327 
1501.000000	95.755719 
1500.000000	95.737057 
1499.000000	95.719458 
1498.000000	95.701578 
1497.000000	95.683407 
1496.000000	95.664870 
1495.000000	95.646236 
1494.000000	95.629550 
1493.000000	95.616804 
1492.000000	95.607967 
1491.000000	95.599871 
1490.000000	95.587048 
1489.000000	95.566659 
1488.000000	95.540051 
1487.000000	95.511578 
1486.000000	95.485804 
1485.000000	95.462008 
1484.000000	95.438980 
1483.000000	95.418429 
1482.000000	95.401254 
1481.000000	95.385659 
1480.000000	95.369034 
1479.000000	95.352451 
1478.000000	95.338634 
1477.000000	95.326674 
1476.000000	95.310746 
1475.000000	95.288005 
1474.000000	95.263098 
1473.000000	95.242704 
1472.000000	95.226947 
1471.000000	95.209305 
1470.000000	95.187247 
1469.000000	95.162929 
1468.000000	95.137790 
1467.000000	95.113241 
1466.000000	95.092569 
1465.000000	95.077825 
1464.000000	95.066694 
1463.000000	95.052917 
1462.000000	95.034547 
1461.000000	95.015584 
1460.000000	95.001714 
1459.000000	94.994992 
1458.000000	94.990369 
1457.000000	94.980521 
1456.000000	94.963060 
1455.000000	94.939000 
1454.000000	94.910395 
1453.000000	94.882363 
1452.000000	94.860825 
1451.000000	94.847736 
1450.000000	94.841630 
1449.000000	94.840952 
1448.000000	94.840835 
1447.000000	94.835284 
1446.000000	94.822365 
1445.000000	94.806960 
1444.000000	94.795369 
1443.000000	94.786354 
1442.000000	94.776634 
1441.000000	94.766885 
1440.000000	94.760035 
1439.000000	94.755060 
1438.000000	94.749636 
1437.000000	94.746061 
1436.000000	94.746578 
1435.000000	94.744621 
1434.000000	94.735985 
1433.000000	94.726271 
1432.000000	94.722455 
1431.000000	94.725743 
1430.000000	94.731660 
1429.000000	94.737544 
1428.000000	94.742630 
1427.000000	94.747585 
1426.000000	94.753930 
1425.000000	94.764153 
1424.000000	94.779557 
1423.000000	94.792618 
1422.000000	94.798207 
1421.000000	94.805440 
1420.000000	94.827631 
1419.000000	94.857315 
1418.000000	94.871836 
1417.000000	94.870474 
1416.000000	94.870462 
1415.000000	94.879177 
1414.000000	94.891393 
1413.000000	94.902636 
1412.000000	94.916023 
1411.000000	94.933645 
1410.000000	94.952239 
1409.000000	94.971488 
1408.000000	94.994730 
1407.000000	95.023204 
1406.000000	95.053257 
1405.000000	95.080949 
1404.000000	95.105782 
1403.000000	95.125048 
1402.000000	95.137943 
1401.000000	95.152290 
1400.000000	95.177885 
1399.000000	95.213153 
1398.000000	95.245750 
1397.000000	95.270206 
1396.000000	95.292437 
1395.000000	95.318112 
1394.000000	95.344068 
1393.000000	95.367086 
1392.000000	95.391830 
1391.000000	95.422147 
1390.000000	95.456271 
1389.000000	95.490285 
1388.000000	95.520775 
1387.000000	95.545597 
1386.000000	95.565395 
1385.000000	95.584465 
1384.000000	95.607321 
1383.000000	95.633400 
1382.000000	95.659431 
1381.000000	95.684788 
1380.000000	95.710486 
1379.000000	95.736171 
1378.000000	95.760956 
1377.000000	95.786019 
1376.000000	95.812661 
1375.000000	95.838295 
1374.000000	95.858021 
1373.000000	95.872503 
1372.000000	95.887731 
1371.000000	95.907682 
1370.000000	95.929969 
1369.000000	95.949320 
1368.000000	95.965333 
1367.000000	95.982295 
1366.000000	96.004550 
1365.000000	96.033266 
1364.000000	96.063674 
1363.000000	96.086498 
1362.000000	96.097054 
1361.000000	96.101234 
1360.000000	96.108852 
1359.000000	96.124083 
1358.000000	96.144299 
1357.000000	96.165290 
1356.000000	96.185001 
1355.000000	96.202611 
1354.000000	96.217468 
1353.000000	96.230994 
1352.000000	96.244948 
1351.000000	96.260347 
1350.000000	96.276515 
1349.000000	96.291236 
1348.000000	96.304136 
1347.000000	96.316896 
1346.000000	96.331332 
1345.000000	96.347808 
1344.000000	96.365691 
1343.000000	96.384772 
1342.000000	96.405118 
1341.000000	96.424568 
1340.000000	96.437815 
1339.000000	96.440909 
1338.000000	96.436584 
1337.000000	96.433023 
1336.000000	96.435986 
1335.000000	96.443777 
1334.000000	96.451157 
1333.000000	96.456059 
1332.000000	96.460233 
1331.000000	96.465396 
1330.000000	96.471076 
1329.000000	96.476530 
1328.000000	96.482227 
1327.000000	96.489339 
1326.000000	96.497959 
1325.000000	96.506714 
1324.000000	96.514341 
1323.000000	96.519583 
1322.000000	96.521668 
1321.000000	96.521893 
1320.000000	96.523034 
1319.000000	96.526108 
1318.000000	96.529518 
1317.000000	96.532147 
1316.000000	96.534608 
1315.000000	96.536744 
1314.000000	96.536956 
1313.000000	96.535731 
1312.000000	96.536471 
1311.000000	96.540953 
1310.000000	96.546392 
1309.000000	96.549446 
1308.000000	96.550367 
1307.000000	96.551939 
1306.000000	96.555541 
1305.000000	96.560393 
1304.000000	96.565692 
1303.000000	96.570162 
1302.000000	96.571448 
1301.000000	96.568384 
1300.000000	96.563275 
1299.000000	96.559813 
1298.000000	96.559269 
1297.000000	96.560087 
1296.000000	96.560489 
1295.000000	96.560096 
1294.000000	96.559333 
1293.000000	96.559134 
1292.000000	96.560615 
1291.000000	96.563553 
1290.000000	96.565977 
1289.000000	96.566294 
1288.000000	96.564972 
1287.000000	96.563305 
1286.000000	96.561511 
1285.000000	96.559415 
1284.000000	96.557871 
1283.000000	96.557412 
1282.000000	96.556441 
1281.000000	96.552594 
1280.000000	96.546156 
1279.000000	96.540645 
1278.000000	96.539666 
1277.000000	96.543929 
1276.000000	96.551137 
1275.000000	96.558162 
1274.000000	96.563134 
1273.000000	96.566154 
1272.000000	96.568216 
1271.000000	96.569370 
1270.000000	96.568481 
1269.000000	96.564997 
1268.000000	96.560323 
1267.000000	96.556385 
1266.000000	96.553473 
1265.000000	96.550943 
1264.000000	96.549402 
1263.000000	96.550494 
1262.000000	96.554509 
1261.000000	96.559169 
1260.000000	96.561897 
1259.000000	96.562739 
1258.000000	96.563957 
1257.000000	96.566645 
1256.000000	96.568671 
1255.000000	96.567529 
1254.000000	96.564922 
1253.000000	96.565618 
1252.000000	96.570394 
1251.000000	96.573260 
1250.000000	96.568793 
1249.000000	96.560181 
1248.000000	96.556143 
1247.000000	96.560215 
1246.000000	96.567146 
1245.000000	96.570453 
1244.000000	96.569060 
1243.000000	96.565319 
1242.000000	96.560916 
1241.000000	96.557182 
1240.000000	96.555946 
1239.000000	96.556920 
1238.000000	96.556392 
1237.000000	96.551131 
1236.000000	96.541923 
1235.000000	96.531530 
1234.000000	96.521367 
1233.000000	96.512164 
1232.000000	96.505151 
1231.000000	96.499568 
1230.000000	96.491203 
1229.000000	96.476683 
1228.000000	96.457447 
1227.000000	96.436534 
1226.000000	96.412988 
1225.000000	96.382624 
1224.000000	96.343240 
1223.000000	96.295948 
1222.000000	96.242336 
1221.000000	96.183768 
1220.000000	96.123258 
1219.000000	96.064357 
1218.000000	96.007243 
1217.000000	95.948503 
1216.000000	95.885057 
1215.000000	95.816077 
1214.000000	95.741737 
1213.000000	95.663333 
1212.000000	95.584065 
1211.000000	95.505607 
1210.000000	95.424010 
1209.000000	95.333514 
1208.000000	95.235179 
1207.000000	95.137205 
1206.000000	95.044981 
1205.000000	94.955143 
1204.000000	94.862045 
1203.000000	94.765919 
1202.000000	94.671348 
1201.000000	94.580434 
1200.000000	94.490945 
1199.000000	94.399872 
1198.000000	94.305964 
1197.000000	94.209643 
1196.000000	94.112166 
1195.000000	94.014494 
1194.000000	93.916154 
1193.000000	93.815841 
1192.000000	93.713352 
1191.000000	93.609684 
1190.000000	93.505283 
1189.000000	93.399668 
1188.000000	93.292516 
1187.000000	93.183473 
1186.000000	93.071602 
1185.000000	92.956998 
1184.000000	92.841784 
1183.000000	92.727106 
1182.000000	92.610563 
1181.000000	92.489454 
1180.000000	92.364842 
1179.000000	92.238703 
1178.000000	92.108884 
1177.000000	91.971716 
1176.000000	91.828137 
1175.000000	91.681875 
1174.000000	91.532666 
1173.000000	91.377562 
1172.000000	91.218705 
1171.000000	91.062758 
1170.000000	90.911865 
1169.000000	90.762252 
1168.000000	90.613399 
1167.000000	90.472172 
1166.000000	90.346928 
1165.000000	90.245184 
1164.000000	90.178521 
1163.000000	90.160084 
1162.000000	90.191433 
1161.000000	90.256291 
1160.000000	90.330029 
1159.000000	90.391175 
1158.000000	90.423518 
1157.000000	90.415551 
1156.000000	90.363581 
1155.000000	90.273092 
1154.000000	90.154710 
1153.000000	90.020157 
1152.000000	89.880915 
1151.000000	89.745025 
1150.000000	89.613155 
1149.000000	89.482042 
1148.000000	89.352381 
1147.000000	89.228071 
1146.000000	89.107627 
1145.000000	88.983493 
1144.000000	88.851856 
1143.000000	88.716958 
1142.000000	88.583623 
1141.000000	88.451167 
1140.000000	88.316354 
1139.000000	88.176781 
1138.000000	88.030390 
1137.000000	87.877742 
1136.000000	87.725394 
1135.000000	87.580289 
1134.000000	87.439871 
1133.000000	87.294636 
1132.000000	87.140799 
1131.000000	86.982952 
1130.000000	86.824470 
1129.000000	86.664223 
1128.000000	86.503411 
1127.000000	86.345758 
1126.000000	86.188932 
1125.000000	86.025240 
1124.000000	85.853200 
1123.000000	85.679618 
1122.000000	85.508387 
1121.000000	85.336934 
1120.000000	85.165863 
1119.000000	85.001569 
1118.000000	84.846330 
1117.000000	84.696090 
1116.000000	84.550465 
1115.000000	84.414486 
1114.000000	84.288034 
1113.000000	84.164293 
1112.000000	84.040964 
1111.000000	83.922079 
1110.000000	83.806904 
1109.000000	83.689017 
1108.000000	83.567552 
1107.000000	83.447055 
1106.000000	83.325651 
1105.000000	83.196455 
1104.000000	83.061675 
1103.000000	82.931770 
1102.000000	82.808401 
1101.000000	82.683036 
1100.000000	82.552991 
1099.000000	82.425261 
1098.000000	82.303384 
1097.000000	82.183763 
1096.000000	82.066890 
1095.000000	81.956432 
1094.000000	81.846402 
1093.000000	81.725928 
1092.000000	81.599113 
1091.000000	81.483251 
1090.000000	81.384221 
1089.000000	81.290182 
1088.000000	81.192381 
1087.000000	81.094540 
1086.000000	80.998199 
1085.000000	80.896983 
1084.000000	80.790707 
1083.000000	80.688381 
1082.000000	80.591821 
1081.000000	80.491936 
1080.000000	80.385622 
1079.000000	80.280165 
1078.000000	80.176551 
1077.000000	80.064276 
1076.000000	79.936834 
1075.000000	79.796544 
1074.000000	79.641193 
1073.000000	79.462782 
1072.000000	79.262382 
1071.000000	79.048698 
1070.000000	78.818523 
1069.000000	78.556757 
1068.000000	78.260043 
1067.000000	77.942910 
1066.000000	77.617018 
1065.000000	77.282903 
1064.000000	76.946375 
1063.000000	76.621413 
1062.000000	76.309111 
1061.000000	75.993826 
1060.000000	75.668115 
1059.000000	75.342559 
1058.000000	75.024243 
1057.000000	74.705403 
1056.000000	74.380839 
1055.000000	74.056632 
1054.000000	73.733361 
1053.000000	73.399909 
1052.000000	73.052830 
1051.000000	72.702408 
1050.000000	72.350588 
1049.000000	71.984916 
1048.000000	71.603358 
1047.000000	71.221506 
1046.000000	70.847667 
1045.000000	70.473947 
1044.000000	70.097016 
1043.000000	69.724994 
1042.000000	69.359001 
1041.000000	68.990464 
1040.000000	68.622381 
1039.000000	68.271035 
1038.000000	67.940988 
1037.000000	67.620770 
1036.000000	67.307946 
1035.000000	67.014713 
1034.000000	66.744234 
1033.000000	66.486488 
1032.000000	66.242155 
1031.000000	66.024832 
1030.000000	65.834621 
1029.000000	65.655754 
1028.000000	65.485209 
1027.000000	65.336647 
1026.000000	65.210948 
1025.000000	65.090467 
1024.000000	64.967861 
1023.000000	64.852990 
1022.000000	64.746148 
1021.000000	64.633019 
1020.000000	64.511726 
1019.000000	64.396629 
1018.000000	64.289984 
1017.000000	64.178361 
1016.000000	64.061786 
1015.000000	63.956311 
1014.000000	63.861968 
1013.000000	63.758969 
1012.000000	63.643103 
1011.000000	63.534954 
1010.000000	63.446063 
1009.000000	63.365698 
1008.000000	63.289098 
1007.000000	63.229402 
1006.000000	63.192428 
1005.000000	63.167594 
1004.000000	63.151940 
1003.000000	63.155592 
1002.000000	63.176052 
1001.000000	63.195432 
1000.000000	63.211197 
999.000000	 63.242205 
998.000000	 63.296643 
997.000000	 63.361051 
996.000000	 63.427431 
995.000000	 63.503572 
994.000000	 63.589710 
993.000000	 63.673010 
992.000000	 63.752758 
991.000000	 63.844243 
990.000000	 63.951019 
989.000000	 64.059983 
988.000000	 64.169564 
987.000000	 64.295220 
986.000000	 64.441283 
985.000000	 64.595459 
984.000000	 64.756676 
983.000000	 64.939497 
982.000000	 65.144496 
981.000000	 65.353430 
980.000000	 65.561469 
979.000000	 65.786008 
978.000000	 66.035556 
977.000000	 66.297852 
976.000000	 66.566620 
975.000000	 66.852552 
974.000000	 67.158903 
973.000000	 67.472747 
972.000000	 67.789372 
971.000000	 68.120147 
970.000000	 68.467305 
969.000000	 68.815286 
968.000000	 69.155940 
967.000000	 69.499678 
966.000000	 69.853566 
965.000000	 70.209838 
964.000000	 70.562553 
963.000000	 70.914349 
962.000000	 71.261332 
961.000000	 71.593128 
960.000000	 71.913243 
959.000000	 72.237833 
958.000000	 72.568995 
957.000000	 72.890600 
956.000000	 73.195336 
955.000000	 73.493913 
954.000000	 73.792289 
953.000000	 74.081274 
952.000000	 74.354553 
951.000000	 74.616442 
950.000000	 74.866838 
949.000000	 75.099079 
948.000000	 75.317460 
947.000000	 75.535925 
946.000000	 75.753602 
945.000000	 75.952061 
944.000000	 76.122717 
943.000000	 76.277527 
942.000000	 76.427653 
941.000000	 76.571257 
940.000000	 76.708385 
939.000000	 76.847811 
938.000000	 76.991804 
937.000000	 77.132303 
936.000000	 77.268459 
935.000000	 77.410033 
934.000000	 77.558234 
933.000000	 77.702136 
932.000000	 77.839783 
931.000000	 77.983987 
930.000000	 78.140875 
929.000000	 78.300455 
928.000000	 78.454085 
927.000000	 78.603419 
926.000000	 78.746901 
925.000000	 78.875767 
924.000000	 78.989599 
923.000000	 79.098850 
922.000000	 79.206570 
921.000000	 79.304474 
920.000000	 79.391642 
919.000000	 79.479020 
918.000000	 79.569823 
917.000000	 79.653537 
916.000000	 79.726367 
915.000000	 79.801622 
914.000000	 79.893636 
913.000000	 80.006898 
912.000000	 80.145794 
911.000000	 80.318314 
910.000000	 80.524271 
909.000000	 80.755304 
908.000000	 81.010504 
907.000000	 81.296573 
906.000000	 81.610489 
905.000000	 81.938997 
904.000000	 82.277131 
903.000000	 82.630136 
902.000000	 82.996116 
901.000000	 83.364822 
900.000000	 83.734570 
899.000000	 84.111500 
898.000000	 84.490265 
897.000000	 84.853839 
896.000000	 85.194650 
895.000000	 85.519002 
894.000000	 85.829862 
893.000000	 86.123325 
892.000000	 86.403478 
891.000000	 86.681418 
890.000000	 86.954644 
889.000000	 87.203612 
888.000000	 87.413090 
887.000000	 87.583171 
886.000000	 87.718319 
885.000000	 87.821941 
884.000000	 87.904777 
883.000000	 87.981994 
882.000000	 88.056896 
881.000000	 88.122318 
880.000000	 88.181448 
879.000000	 88.250642 
878.000000	 88.337879 
877.000000	 88.436621 
876.000000	 88.546356 
875.000000	 88.681678 
874.000000	 88.856051 
873.000000	 89.074015 
872.000000	 89.342056 
871.000000	 89.665949 
870.000000	 90.030753 
869.000000	 90.401948 
868.000000	 90.753821 
867.000000	 91.083229 
866.000000	 91.393856 
865.000000	 91.684535 
864.000000	 91.958267 
863.000000	 92.226641 
862.000000	 92.496354 
861.000000	 92.761191 
860.000000	 93.012251 
859.000000	 93.246073 
858.000000	 93.459595 
857.000000	 93.648430 
856.000000	 93.815089 
855.000000	 93.970096 
854.000000	 94.120705 
853.000000	 94.265348 
852.000000	 94.400329 
851.000000	 94.523781 
850.000000	 94.633333 
849.000000	 94.729386 
848.000000	 94.819683 
847.000000	 94.909814 
846.000000	 94.990700 
845.000000	 95.048454 
844.000000	 95.085567 
843.000000	 95.117746 
842.000000	 95.149117 
841.000000	 95.165714 
840.000000	 95.155543 
839.000000	 95.120089 
838.000000	 95.064280 
837.000000	 94.991801 
836.000000	 94.915385 
835.000000	 94.855348 
834.000000	 94.818871 
833.000000	 94.793001 
832.000000	 94.765669 
831.000000	 94.741724 
830.000000	 94.731533 
829.000000	 94.736562 
828.000000	 94.754791 
827.000000	 94.788320 
826.000000	 94.836531 
825.000000	 94.893215 
824.000000	 94.958051 
823.000000	 95.037531 
822.000000	 95.127890 
821.000000	 95.212932 
820.000000	 95.284577 
819.000000	 95.348726 
818.000000	 95.404308 
817.000000	 95.431372 
816.000000	 95.408873 
815.000000	 95.334940 
814.000000	 95.221831 
813.000000	 95.077146 
812.000000	 94.895380 
811.000000	 94.660483 
810.000000	 94.350183 
809.000000	 93.944836 
808.000000	 93.440312 
807.000000	 92.850839 
806.000000	 92.198101 
805.000000	 91.504236 
804.000000	 90.797032 
803.000000	 90.109834 
802.000000	 89.470267 
801.000000	 88.900591 
800.000000	 88.432304 
799.000000	 88.101383 
798.000000	 87.918956 
797.000000	 87.861821 
796.000000	 87.899193 
795.000000	 88.012159 
794.000000	 88.180702 
793.000000	 88.372286 
792.000000	 88.556259 
791.000000	 88.718202 
790.000000	 88.853357 
789.000000	 88.956658 
788.000000	 89.022227 
787.000000	 89.040315 
786.000000	 88.992353 
785.000000	 88.862205 
784.000000	 88.656056 
783.000000	 88.400981 
782.000000	 88.125062 
781.000000	 87.853849 
780.000000	 87.623774 
779.000000	 87.474808 
778.000000	 87.421942 
777.000000	 87.452035 
776.000000	 87.553466 
775.000000	 87.727946 
774.000000	 87.966887 
773.000000	 88.239088 
772.000000	 88.513390 
771.000000	 88.777299 
770.000000	 89.025751 
769.000000	 89.248630 
768.000000	 89.437826 
767.000000	 89.592078 
766.000000	 89.708341 
765.000000	 89.783340 
764.000000	 89.830303 
763.000000	 89.878627 
762.000000	 89.948081 
761.000000	 90.035331 
760.000000	 90.130667 
759.000000	 90.232096 
758.000000	 90.336660 
757.000000	 90.435829 
756.000000	 90.530158 
755.000000	 90.634192 
754.000000	 90.755645 
753.000000	 90.881216 
752.000000	 90.993233 
751.000000	 91.090977 
750.000000	 91.187669 
749.000000	 91.294876 
748.000000	 91.415734 
747.000000	 91.544949 
746.000000	 91.671338 
745.000000	 91.789059 
744.000000	 91.909066 
743.000000	 92.050539 
742.000000	 92.219684 
741.000000	 92.406964 
740.000000	 92.603907 
739.000000	 92.808222 
738.000000	 93.011866 
737.000000	 93.199638 
736.000000	 93.363492 
735.000000	 93.506923 
734.000000	 93.634051 
733.000000	 93.746612 
732.000000	 93.850781 
731.000000	 93.951394 
730.000000	 94.037734 
729.000000	 94.090943 
728.000000	 94.112969 
727.000000	 94.132385 
726.000000	 94.174076 
725.000000	 94.239963 
724.000000	 94.322493 
723.000000	 94.416608 
722.000000	 94.511925 
721.000000	 94.592549 
720.000000	 94.655310 
719.000000	 94.711808 
718.000000	 94.765056 
717.000000	 94.802538 
716.000000	 94.816514 
715.000000	 94.814976 
714.000000	 94.809876 
713.000000	 94.811371 
712.000000	 94.838260 
711.000000	 94.909896 
710.000000	 95.015947 
709.000000	 95.117951 
708.000000	 95.190015 
707.000000	 95.239236 
706.000000	 95.274782 
705.000000	 95.282604 
704.000000	 95.247312 
703.000000	 95.171779 
702.000000	 95.057608 
701.000000	 94.885113 
700.000000	 94.633270 
699.000000	 94.312650 
698.000000	 93.960690 
697.000000	 93.620571 
696.000000	 93.340143 
695.000000	 93.167200 
694.000000	 93.126166 
693.000000	 93.201523 
692.000000	 93.353720 
691.000000	 93.548251 
690.000000	 93.757915 
689.000000	 93.956748 
688.000000	 94.132396 
687.000000	 94.293024 
686.000000	 94.449455 
685.000000	 94.596117 
684.000000	 94.720652 
683.000000	 94.824529 
682.000000	 94.917637 
681.000000	 95.002488 
680.000000	 95.074701 
679.000000	 95.138466 
678.000000	 95.204182 
677.000000	 95.279128 
676.000000	 95.379430 
675.000000	 95.513986 
674.000000	 95.657182 
673.000000	 95.765938 
672.000000	 95.827384 
671.000000	 95.893298 
670.000000	 96.044726 
669.000000	 96.335171 
668.000000	 96.603570 
667.000000	 96.609904 
666.000000	 96.461948 
665.000000	 96.352669 
664.000000	 96.314676 
663.000000	 96.341134 
662.000000	 96.405049 
661.000000	 96.459940 
660.000000	 96.485084 
659.000000	 96.500488 
658.000000	 96.525939 
657.000000	 96.551724 
656.000000	 96.577535 
655.000000	 96.614582 
654.000000	 96.643073 
653.000000	 96.622546 
652.000000	 96.557858 
651.000000	 96.508161 
650.000000	 96.507335 

