4000.000000	97.796102 
3999.000000	97.793752 
3998.000000	97.791113 
3997.000000	97.789311 
3996.000000	97.788822 
3995.000000	97.789408 
3994.000000	97.790398 
3993.000000	97.791063 
3992.000000	97.790944 
3991.000000	97.790111 
3990.000000	97.789213 
3989.000000	97.789075 
3988.000000	97.790073 
3987.000000	97.791938 
3986.000000	97.794047 
3985.000000	97.795735 
3984.000000	97.796435 
3983.000000	97.795954 
3982.000000	97.794823 
3981.000000	97.794042 
3980.000000	97.794059 
3979.000000	97.794314 
3978.000000	97.794124 
3977.000000	97.793658 
3976.000000	97.793637 
3975.000000	97.794232 
3974.000000	97.794743 
3973.000000	97.794360 
3972.000000	97.792909 
3971.000000	97.790878 
3970.000000	97.788979 
3969.000000	97.787760 
3968.000000	97.787432 
3967.000000	97.787755 
3966.000000	97.788086 
3965.000000	97.787685 
3964.000000	97.786105 
3963.000000	97.783500 
3962.000000	97.780661 
3961.000000	97.778448 
3960.000000	97.777129 
3959.000000	97.776468 
3958.000000	97.776264 
3957.000000	97.776582 
3956.000000	97.777389 
3955.000000	97.778158 
3954.000000	97.778229 
3953.000000	97.777369 
3952.000000	97.775854 
3951.000000	97.774062 
3950.000000	97.772094 
3949.000000	97.769919 
3948.000000	97.767614 
3947.000000	97.765462 
3946.000000	97.763966 
3945.000000	97.763613 
3944.000000	97.764395 
3943.000000	97.765438 
3942.000000	97.765630 
3941.000000	97.764769 
3940.000000	97.763611 
3939.000000	97.762978 
3938.000000	97.762910 
3937.000000	97.762785 
3936.000000	97.762086 
3935.000000	97.760865 
3934.000000	97.759662 
3933.000000	97.758891 
3932.000000	97.758456 
3931.000000	97.757897 
3930.000000	97.757100 
3929.000000	97.756663 
3928.000000	97.757100 
3927.000000	97.758085 
3926.000000	97.758742 
3925.000000	97.758489 
3924.000000	97.757503 
3923.000000	97.756364 
3922.000000	97.755476 
3921.000000	97.754990 
3920.000000	97.754877 
3919.000000	97.754950 
3918.000000	97.754950 
3917.000000	97.754742 
3916.000000	97.754444 
3915.000000	97.754218 
3914.000000	97.754145 
3913.000000	97.754152 
3912.000000	97.754052 
3911.000000	97.753739 
3910.000000	97.753152 
3909.000000	97.752325 
3908.000000	97.751436 
3907.000000	97.750647 
3906.000000	97.750024 
3905.000000	97.749386 
3904.000000	97.748426 
3903.000000	97.747095 
3902.000000	97.745774 
3901.000000	97.745000 
3900.000000	97.744975 
3899.000000	97.745400 
3898.000000	97.745797 
3897.000000	97.745918 
3896.000000	97.745777 
3895.000000	97.745476 
3894.000000	97.745092 
3893.000000	97.744671 
3892.000000	97.744231 
3891.000000	97.743758 
3890.000000	97.743236 
3889.000000	97.742680 
3888.000000	97.742134 
3887.000000	97.741632 
3886.000000	97.741166 
3885.000000	97.740699 
3884.000000	97.740208 
3883.000000	97.739703 
3882.000000	97.739195 
3881.000000	97.738697 
3880.000000	97.738211 
3879.000000	97.737734 
3878.000000	97.737261 
3877.000000	97.736794 
3876.000000	97.736340 
3875.000000	97.735907 
3874.000000	97.735493 
3873.000000	97.735089 
3872.000000	97.734693 
3871.000000	97.734309 
3870.000000	97.733946 
3869.000000	97.733614 
3868.000000	97.733313 
3867.000000	97.733042 
3866.000000	97.732798 
3865.000000	97.732584 
3864.000000	97.732397 
3863.000000	97.732203 
3862.000000	97.731963 
3861.000000	97.731689 
3860.000000	97.731446 
3859.000000	97.731274 
3858.000000	97.731126 
3857.000000	97.730881 
3856.000000	97.730452 
3855.000000	97.729841 
3854.000000	97.729139 
3853.000000	97.728516 
3852.000000	97.728142 
3851.000000	97.728089 
3850.000000	97.728291 
3849.000000	97.728649 
3848.000000	97.729054 
3847.000000	97.729383 
3846.000000	97.729492 
3845.000000	97.729283 
3844.000000	97.728831 
3843.000000	97.728293 
3842.000000	97.727710 
3841.000000	97.727165 
3840.000000	97.726841 
3839.000000	97.726904 
3838.000000	97.727313 
3837.000000	97.727787 
3836.000000	97.728102 
3835.000000	97.728207 
3834.000000	97.728186 
3833.000000	97.728226 
3832.000000	97.728473 
3831.000000	97.728872 
3830.000000	97.729212 
3829.000000	97.729331 
3828.000000	97.729364 
3827.000000	97.729630 
3826.000000	97.730171 
3825.000000	97.730599 
3824.000000	97.730499 
3823.000000	97.729877 
3822.000000	97.729209 
3821.000000	97.728944 
3820.000000	97.728972 
3819.000000	97.728911 
3818.000000	97.728716 
3817.000000	97.728792 
3816.000000	97.729450 
3815.000000	97.730417 
3814.000000	97.731104 
3813.000000	97.731352 
3812.000000	97.731494 
3811.000000	97.731905 
3810.000000	97.732510 
3809.000000	97.732879 
3808.000000	97.732810 
3807.000000	97.732564 
3806.000000	97.732378 
3805.000000	97.731981 
3804.000000	97.731021 
3803.000000	97.729957 
3802.000000	97.729872 
3801.000000	97.731093 
3800.000000	97.732547 
3799.000000	97.732969 
3798.000000	97.732335 
3797.000000	97.731785 
3796.000000	97.732338 
3795.000000	97.733822 
3794.000000	97.735276 
3793.000000	97.736202 
3792.000000	97.736914 
3791.000000	97.737854 
3790.000000	97.738820 
3789.000000	97.739147 
3788.000000	97.738578 
3787.000000	97.737563 
3786.000000	97.736859 
3785.000000	97.736886 
3784.000000	97.737323 
3783.000000	97.737257 
3782.000000	97.735947 
3781.000000	97.733847 
3780.000000	97.732770 
3779.000000	97.734241 
3778.000000	97.737456 
3777.000000	97.739984 
3776.000000	97.740349 
3775.000000	97.739124 
3774.000000	97.737500 
3773.000000	97.735690 
3772.000000	97.733647 
3771.000000	97.732237 
3770.000000	97.732476 
3769.000000	97.733928 
3768.000000	97.734737 
3767.000000	97.733596 
3766.000000	97.731317 
3765.000000	97.729580 
3764.000000	97.728865 
3763.000000	97.728078 
3762.000000	97.726504 
3761.000000	97.724696 
3760.000000	97.722816 
3759.000000	97.720393 
3758.000000	97.716902 
3757.000000	97.712141 
3756.000000	97.705928 
3755.000000	97.697939 
3754.000000	97.689109 
3753.000000	97.681635 
3752.000000	97.676460 
3751.000000	97.671982 
3750.000000	97.667072 
3749.000000	97.663748 
3748.000000	97.663093 
3747.000000	97.663343 
3746.000000	97.664153 
3745.000000	97.667763 
3744.000000	97.675215 
3743.000000	97.681295 
3742.000000	97.679752 
3741.000000	97.671367 
3740.000000	97.662826 
3739.000000	97.660762 
3738.000000	97.666299 
3737.000000	97.675252 
3736.000000	97.683984 
3735.000000	97.691550 
3734.000000	97.697258 
3733.000000	97.700050 
3732.000000	97.700764 
3731.000000	97.701035 
3730.000000	97.699751 
3729.000000	97.694681 
3728.000000	97.686851 
3727.000000	97.680014 
3726.000000	97.675942 
3725.000000	97.672777 
3724.000000	97.669521 
3723.000000	97.668095 
3722.000000	97.670056 
3721.000000	97.673921 
3720.000000	97.676167 
3719.000000	97.676086 
3718.000000	97.676368 
3717.000000	97.678394 
3716.000000	97.679856 
3715.000000	97.676490 
3714.000000	97.666502 
3713.000000	97.652839 
3712.000000	97.640790 
3711.000000	97.633436 
3710.000000	97.629521 
3709.000000	97.626434 
3708.000000	97.623040 
3707.000000	97.618791 
3706.000000	97.613107 
3705.000000	97.605775 
3704.000000	97.597367 
3703.000000	97.588529 
3702.000000	97.578608 
3701.000000	97.566414 
3700.000000	97.551709 
3699.000000	97.536125 
3698.000000	97.522825 
3697.000000	97.513990 
3696.000000	97.508934 
3695.000000	97.505118 
3694.000000	97.501254 
3693.000000	97.498595 
3692.000000	97.498505 
3691.000000	97.499783 
3690.000000	97.498830 
3689.000000	97.494129 
3688.000000	97.488562 
3687.000000	97.484490 
3686.000000	97.480763 
3685.000000	97.475946 
3684.000000	97.470447 
3683.000000	97.465204 
3682.000000	97.459494 
3681.000000	97.451452 
3680.000000	97.439841 
3679.000000	97.423011 
3678.000000	97.400186 
3677.000000	97.374839 
3676.000000	97.354075 
3675.000000	97.341001 
3674.000000	97.329234 
3673.000000	97.311291 
3672.000000	97.288329 
3671.000000	97.269947 
3670.000000	97.262362 
3669.000000	97.259802 
3668.000000	97.253273 
3667.000000	97.241168 
3666.000000	97.227917 
3665.000000	97.217050 
3664.000000	97.207427 
3663.000000	97.196244 
3662.000000	97.182266 
3661.000000	97.165556 
3660.000000	97.145969 
3659.000000	97.122793 
3658.000000	97.096941 
3657.000000	97.071191 
3656.000000	97.047517 
3655.000000	97.025015 
3654.000000	97.001075 
3653.000000	96.975000 
3652.000000	96.948787 
3651.000000	96.923872 
3650.000000	96.898350 
3649.000000	96.871016 
3648.000000	96.847048 
3647.000000	96.832204 
3646.000000	96.825663 
3645.000000	96.822722 
3644.000000	96.820200 
3643.000000	96.817493 
3642.000000	96.813397 
3641.000000	96.804649 
3640.000000	96.789167 
3639.000000	96.768796 
3638.000000	96.747327 
3637.000000	96.726153 
3636.000000	96.704209 
3635.000000	96.681184 
3634.000000	96.658196 
3633.000000	96.635137 
3632.000000	96.609961 
3631.000000	96.582488 
3630.000000	96.557431 
3629.000000	96.539909 
3628.000000	96.527623 
3627.000000	96.515276 
3626.000000	96.502787 
3625.000000	96.494812 
3624.000000	96.494723 
3623.000000	96.500726 
3622.000000	96.507845 
3621.000000	96.512402 
3620.000000	96.512734 
3619.000000	96.508033 
3618.000000	96.499392 
3617.000000	96.491146 
3616.000000	96.489749 
3615.000000	96.500225 
3614.000000	96.522197 
3613.000000	96.548990 
3612.000000	96.571828 
3611.000000	96.585508 
3610.000000	96.590930 
3609.000000	96.592890 
3608.000000	96.595137 
3607.000000	96.598511 
3606.000000	96.602980 
3605.000000	96.609886 
3604.000000	96.621073 
3603.000000	96.636227 
3602.000000	96.652586 
3601.000000	96.667011 
3600.000000	96.677324 
3599.000000	96.683182 
3598.000000	96.686590 
3597.000000	96.690161 
3596.000000	96.695163 
3595.000000	96.700170 
3594.000000	96.702377 
3593.000000	96.700979 
3592.000000	96.697893 
3591.000000	96.695715 
3590.000000	96.696551 
3589.000000	96.701502 
3588.000000	96.709409 
3587.000000	96.716658 
3586.000000	96.720569 
3585.000000	96.722541 
3584.000000	96.726476 
3583.000000	96.734166 
3582.000000	96.743522 
3581.000000	96.750238 
3580.000000	96.751311 
3579.000000	96.747044 
3578.000000	96.740424 
3577.000000	96.734955 
3576.000000	96.732364 
3575.000000	96.732164 
3574.000000	96.732391 
3573.000000	96.731098 
3572.000000	96.727278 
3571.000000	96.720941 
3570.000000	96.713109 
3569.000000	96.706199 
3568.000000	96.703008 
3567.000000	96.703938 
3566.000000	96.706093 
3565.000000	96.706629 
3564.000000	96.705581 
3563.000000	96.704839 
3562.000000	96.705455 
3561.000000	96.706647 
3560.000000	96.706916 
3559.000000	96.705691 
3558.000000	96.703929 
3557.000000	96.703179 
3556.000000	96.703953 
3555.000000	96.705243 
3554.000000	96.705724 
3553.000000	96.704886 
3552.000000	96.702983 
3551.000000	96.700313 
3550.000000	96.697289 
3549.000000	96.694964 
3548.000000	96.694413 
3547.000000	96.695151 
3546.000000	96.695202 
3545.000000	96.693347 
3544.000000	96.690705 
3543.000000	96.689337 
3542.000000	96.689914 
3541.000000	96.691456 
3540.000000	96.692659 
3539.000000	96.692960 
3538.000000	96.692529 
3537.000000	96.691747 
3536.000000	96.690945 
3535.000000	96.690312 
3534.000000	96.689901 
3533.000000	96.689714 
3532.000000	96.689755 
3531.000000	96.689989 
3530.000000	96.690176 
3529.000000	96.689903 
3528.000000	96.688867 
3527.000000	96.687183 
3526.000000	96.685471 
3525.000000	96.684492 
3524.000000	96.684615 
3523.000000	96.685609 
3522.000000	96.686797 
3521.000000	96.687580 
3520.000000	96.687906 
3519.000000	96.688156 
3518.000000	96.688647 
3517.000000	96.689157 
3516.000000	96.689093 
3515.000000	96.688163 
3514.000000	96.686724 
3513.000000	96.685484 
3512.000000	96.684846 
3511.000000	96.684639 
3510.000000	96.684427 
3509.000000	96.683973 
3508.000000	96.683362 
3507.000000	96.682766 
3506.000000	96.682227 
3505.000000	96.681641 
3504.000000	96.680879 
3503.000000	96.679890 
3502.000000	96.678829 
3501.000000	96.678091 
3500.000000	96.678130 
3499.000000	96.679107 
3498.000000	96.680593 
3497.000000	96.681657 
3496.000000	96.681399 
3495.000000	96.679652 
3494.000000	96.677245 
3493.000000	96.675323 
3492.000000	96.674244 
3491.000000	96.673360 
3490.000000	96.672068 
3489.000000	96.670717 
3488.000000	96.669896 
3487.000000	96.669208 
3486.000000	96.667749 
3485.000000	96.665784 
3484.000000	96.664853 
3483.000000	96.665833 
3482.000000	96.667692 
3481.000000	96.668766 
3480.000000	96.668720 
3479.000000	96.668316 
3478.000000	96.667811 
3477.000000	96.666577 
3476.000000	96.664138 
3475.000000	96.660953 
3474.000000	96.658112 
3473.000000	96.656537 
3472.000000	96.656394 
3471.000000	96.656986 
3470.000000	96.657235 
3469.000000	96.656594 
3468.000000	96.655423 
3467.000000	96.654298 
3466.000000	96.653232 
3465.000000	96.651738 
3464.000000	96.649417 
3463.000000	96.646190 
3462.000000	96.642177 
3461.000000	96.637741 
3460.000000	96.633431 
3459.000000	96.629436 
3458.000000	96.625232 
3457.000000	96.620209 
3456.000000	96.614740 
3455.000000	96.610139 
3454.000000	96.607444 
3453.000000	96.606570 
3452.000000	96.606642 
3451.000000	96.606874 
3450.000000	96.606863 
3449.000000	96.606199 
3448.000000	96.604216 
3447.000000	96.600420 
3446.000000	96.595086 
3445.000000	96.589354 
3444.000000	96.584545 
3443.000000	96.581273 
3442.000000	96.579207 
3441.000000	96.577566 
3440.000000	96.575797 
3439.000000	96.573750 
3438.000000	96.571339 
3437.000000	96.568437 
3436.000000	96.565256 
3435.000000	96.562511 
3434.000000	96.560839 
3433.000000	96.560041 
3432.000000	96.559103 
3431.000000	96.557160 
3430.000000	96.554257 
3429.000000	96.551110 
3428.000000	96.548272 
3427.000000	96.545738 
3426.000000	96.543384 
3425.000000	96.541400 
3424.000000	96.540041 
3423.000000	96.539054 
3422.000000	96.537681 
3421.000000	96.535365 
3420.000000	96.532325 
3419.000000	96.529388 
3418.000000	96.527239 
3417.000000	96.525986 
3416.000000	96.525343 
3415.000000	96.524878 
3414.000000	96.524023 
3413.000000	96.522175 
3412.000000	96.519185 
3411.000000	96.515782 
3410.000000	96.513191 
3409.000000	96.512118 
3408.000000	96.512226 
3407.000000	96.512506 
3406.000000	96.512204 
3405.000000	96.511320 
3404.000000	96.510334 
3403.000000	96.509536 
3402.000000	96.508738 
3401.000000	96.507646 
3400.000000	96.506370 
3399.000000	96.505335 
3398.000000	96.504672 
3397.000000	96.504049 
3396.000000	96.503314 
3395.000000	96.503018 
3394.000000	96.503826 
3393.000000	96.505479 
3392.000000	96.506797 
3391.000000	96.506889 
3390.000000	96.506118 
3389.000000	96.505659 
3388.000000	96.506376 
3387.000000	96.508240 
3386.000000	96.510516 
3385.000000	96.512141 
3384.000000	96.512206 
3383.000000	96.510621 
3382.000000	96.508437 
3381.000000	96.507056 
3380.000000	96.506868 
3379.000000	96.507100 
3378.000000	96.507212 
3377.000000	96.508008 
3376.000000	96.510725 
3375.000000	96.515222 
3374.000000	96.519625 
3373.000000	96.522060 
3372.000000	96.522458 
3371.000000	96.522462 
3370.000000	96.523750 
3369.000000	96.526461 
3368.000000	96.529255 
3367.000000	96.530697 
3366.000000	96.530483 
3365.000000	96.529413 
3364.000000	96.528400 
3363.000000	96.527790 
3362.000000	96.527552 
3361.000000	96.527699 
3360.000000	96.528353 
3359.000000	96.529574 
3358.000000	96.531305 
3357.000000	96.533366 
3356.000000	96.535448 
3355.000000	96.537379 
3354.000000	96.539555 
3353.000000	96.542815 
3352.000000	96.547588 
3351.000000	96.553258 
3350.000000	96.558553 
3349.000000	96.562471 
3348.000000	96.564832 
3347.000000	96.566271 
3346.000000	96.567884 
3345.000000	96.570536 
3344.000000	96.574018 
3343.000000	96.577028 
3342.000000	96.578434 
3341.000000	96.578468 
3340.000000	96.578322 
3339.000000	96.578625 
3338.000000	96.578939 
3337.000000	96.578825 
3336.000000	96.578775 
3335.000000	96.579750 
3334.000000	96.582067 
3333.000000	96.585062 
3332.000000	96.587751 
3331.000000	96.589700 
3330.000000	96.591188 
3329.000000	96.592741 
3328.000000	96.594653 
3327.000000	96.596896 
3326.000000	96.599271 
3325.000000	96.601519 
3324.000000	96.603398 
3323.000000	96.604833 
3322.000000	96.606033 
3321.000000	96.607383 
3320.000000	96.609137 
3319.000000	96.611251 
3318.000000	96.613495 
3317.000000	96.615657 
3316.000000	96.617654 
3315.000000	96.619496 
3314.000000	96.621239 
3313.000000	96.622945 
3312.000000	96.624669 
3311.000000	96.626447 
3310.000000	96.628299 
3309.000000	96.630212 
3308.000000	96.632119 
3307.000000	96.633914 
3306.000000	96.635558 
3305.000000	96.637111 
3304.000000	96.638676 
3303.000000	96.640328 
3302.000000	96.642069 
3301.000000	96.643872 
3300.000000	96.645700 
3299.000000	96.647522 
3298.000000	96.649327 
3297.000000	96.651126 
3296.000000	96.652944 
3295.000000	96.654808 
3294.000000	96.656728 
3293.000000	96.658702 
3292.000000	96.660717 
3291.000000	96.662742 
3290.000000	96.664735 
3289.000000	96.666679 
3288.000000	96.668599 
3287.000000	96.670544 
3286.000000	96.672525 
3285.000000	96.674489 
3284.000000	96.676375 
3283.000000	96.678180 
3282.000000	96.679983 
3281.000000	96.681879 
3280.000000	96.683886 
3279.000000	96.685937 
3278.000000	96.687981 
3277.000000	96.690055 
3276.000000	96.692209 
3275.000000	96.694414 
3274.000000	96.696595 
3273.000000	96.698727 
3272.000000	96.700851 
3271.000000	96.703012 
3270.000000	96.705206 
3269.000000	96.707400 
3268.000000	96.709565 
3267.000000	96.711701 
3266.000000	96.713839 
3265.000000	96.716012 
3264.000000	96.718239 
3263.000000	96.720519 
3262.000000	96.722839 
3261.000000	96.725181 
3260.000000	96.727519 
3259.000000	96.729821 
3258.000000	96.732080 
3257.000000	96.734319 
3256.000000	96.736577 
3255.000000	96.738871 
3254.000000	96.741191 
3253.000000	96.743524 
3252.000000	96.745870 
3251.000000	96.748234 
3250.000000	96.750611 
3249.000000	96.752992 
3248.000000	96.755367 
3247.000000	96.757737 
3246.000000	96.760107 
3245.000000	96.762488 
3244.000000	96.764883 
3243.000000	96.767295 
3242.000000	96.769717 
3241.000000	96.772145 
3240.000000	96.774570 
3239.000000	96.776989 
3238.000000	96.779409 
3237.000000	96.781845 
3236.000000	96.784316 
3235.000000	96.786828 
3234.000000	96.789343 
3233.000000	96.791801 
3232.000000	96.794164 
3231.000000	96.796452 
3230.000000	96.798742 
3229.000000	96.801087 
3228.000000	96.803484 
3227.000000	96.805915 
3226.000000	96.808413 
3225.000000	96.811023 
3224.000000	96.813703 
3223.000000	96.816342 
3222.000000	96.818884 
3221.000000	96.821389 
3220.000000	96.823957 
3219.000000	96.826605 
3218.000000	96.829267 
3217.000000	96.831886 
3216.000000	96.834470 
3215.000000	96.837048 
3214.000000	96.839638 
3213.000000	96.842255 
3212.000000	96.844914 
3211.000000	96.847604 
3210.000000	96.850291 
3209.000000	96.852953 
3208.000000	96.855578 
3207.000000	96.858128 
3206.000000	96.860552 
3205.000000	96.862884 
3204.000000	96.865301 
3203.000000	96.868003 
3202.000000	96.871026 
3201.000000	96.874184 
3200.000000	96.877203 
3199.000000	96.879950 
3198.000000	96.882527 
3197.000000	96.885173 
3196.000000	96.888051 
3195.000000	96.891130 
3194.000000	96.894290 
3193.000000	96.897467 
3192.000000	96.900644 
3191.000000	96.903739 
3190.000000	96.906599 
3189.000000	96.909172 
3188.000000	96.911607 
3187.000000	96.914156 
3186.000000	96.916976 
3185.000000	96.920030 
3184.000000	96.923142 
3183.000000	96.926143 
3182.000000	96.929010 
3181.000000	96.931845 
3180.000000	96.934741 
3179.000000	96.937705 
3178.000000	96.940720 
3177.000000	96.943783 
3176.000000	96.946867 
3175.000000	96.949909 
3174.000000	96.952893 
3173.000000	96.955879 
3172.000000	96.958920 
3171.000000	96.961993 
3170.000000	96.965024 
3169.000000	96.967976 
3168.000000	96.970872 
3167.000000	96.973737 
3166.000000	96.976580 
3165.000000	96.979412 
3164.000000	96.982255 
3163.000000	96.985112 
3162.000000	96.987964 
3161.000000	96.990800 
3160.000000	96.993620 
3159.000000	96.996421 
3158.000000	96.999197 
3157.000000	97.001964 
3156.000000	97.004753 
3155.000000	97.007586 
3154.000000	97.010451 
3153.000000	97.013326 
3152.000000	97.016195 
3151.000000	97.019046 
3150.000000	97.021869 
3149.000000	97.024662 
3148.000000	97.027440 
3147.000000	97.030241 
3146.000000	97.033099 
3145.000000	97.036037 
3144.000000	97.039027 
3143.000000	97.041976 
3142.000000	97.044794 
3141.000000	97.047461 
3140.000000	97.050068 
3139.000000	97.052745 
3138.000000	97.055546 
3137.000000	97.058402 
3136.000000	97.061153 
3135.000000	97.063666 
3134.000000	97.065926 
3133.000000	97.068085 
3132.000000	97.070364 
3131.000000	97.072865 
3130.000000	97.075514 
3129.000000	97.078206 
3128.000000	97.080953 
3127.000000	97.083782 
3126.000000	97.086611 
3125.000000	97.089338 
3124.000000	97.092007 
3123.000000	97.094761 
3122.000000	97.097664 
3121.000000	97.100674 
3120.000000	97.103736 
3119.000000	97.106781 
3118.000000	97.109661 
3117.000000	97.112270 
3116.000000	97.114726 
3115.000000	97.117295 
3114.000000	97.120124 
3113.000000	97.123184 
3112.000000	97.126451 
3111.000000	97.129938 
3110.000000	97.133454 
3109.000000	97.136511 
3108.000000	97.138751 
3107.000000	97.140460 
3106.000000	97.142423 
3105.000000	97.145048 
3104.000000	97.147778 
3103.000000	97.149638 
3102.000000	97.150303 
3101.000000	97.150352 
3100.000000	97.150575 
3099.000000	97.151376 
3098.000000	97.152997 
3097.000000	97.155864 
3096.000000	97.160110 
3095.000000	97.164881 
3094.000000	97.168804 
3093.000000	97.171256 
3092.000000	97.172772 
3091.000000	97.174305 
3090.000000	97.176303 
3089.000000	97.178602 
3088.000000	97.180897 
3087.000000	97.183088 
3086.000000	97.185297 
3085.000000	97.187618 
3084.000000	97.189808 
3083.000000	97.191438 
3082.000000	97.192508 
3081.000000	97.193707 
3080.000000	97.195641 
3079.000000	97.197956 
3078.000000	97.199768 
3077.000000	97.200915 
3076.000000	97.202183 
3075.000000	97.204078 
3074.000000	97.206044 
3073.000000	97.207366 
3072.000000	97.208282 
3071.000000	97.209570 
3070.000000	97.211326 
3069.000000	97.212869 
3068.000000	97.213758 
3067.000000	97.214325 
3066.000000	97.215168 
3065.000000	97.216525 
3064.000000	97.218161 
3063.000000	97.219524 
3062.000000	97.220063 
3061.000000	97.219813 
3060.000000	97.219663 
3059.000000	97.220634 
3058.000000	97.222948 
3057.000000	97.226084 
3056.000000	97.229444 
3055.000000	97.232469 
3054.000000	97.234386 
3053.000000	97.234722 
3052.000000	97.234239 
3051.000000	97.234604 
3050.000000	97.236654 
3049.000000	97.239520 
3048.000000	97.241778 
3047.000000	97.242928 
3046.000000	97.243276 
3045.000000	97.242978 
3044.000000	97.242087 
3043.000000	97.241419 
3042.000000	97.242373 
3041.000000	97.245386 
3040.000000	97.248969 
3039.000000	97.250959 
3038.000000	97.250697 
3037.000000	97.249393 
3036.000000	97.248473 
3035.000000	97.248008 
3034.000000	97.247174 
3033.000000	97.245700 
3032.000000	97.244204 
3031.000000	97.243348 
3030.000000	97.243310 
3029.000000	97.244005 
3028.000000	97.245020 
3027.000000	97.245249 
3026.000000	97.243478 
3025.000000	97.239868 
3024.000000	97.236311 
3023.000000	97.234596 
3022.000000	97.234645 
3021.000000	97.235137 
3020.000000	97.235346 
3019.000000	97.235476 
3018.000000	97.235451 
3017.000000	97.234436 
3016.000000	97.231901 
3015.000000	97.228557 
3014.000000	97.225938 
3013.000000	97.225177 
3012.000000	97.226110 
3011.000000	97.227236 
3010.000000	97.226760 
3009.000000	97.224076 
3008.000000	97.220143 
3007.000000	97.216276 
3006.000000	97.212827 
3005.000000	97.209432 
3004.000000	97.206125 
3003.000000	97.203532 
3002.000000	97.202219 
3001.000000	97.202385 
3000.000000	97.203924 
2999.000000	97.205989 
2998.000000	97.206704 
2997.000000	97.204318 
2996.000000	97.198980 
2995.000000	97.192918 
2994.000000	97.188491 
2993.000000	97.186334 
2992.000000	97.185329 
2991.000000	97.183998 
2990.000000	97.181936 
2989.000000	97.180164 
2988.000000	97.180135 
2987.000000	97.182206 
2986.000000	97.185227 
2985.000000	97.187915 
2984.000000	97.190401 
2983.000000	97.193861 
2982.000000	97.198742 
2981.000000	97.203947 
2980.000000	97.207777 
2979.000000	97.209292 
2978.000000	97.208723 
2977.000000	97.207062 
2976.000000	97.205453 
2975.000000	97.204715 
2974.000000	97.205329 
2973.000000	97.207846 
2972.000000	97.212856 
2971.000000	97.219981 
2970.000000	97.227131 
2969.000000	97.231713 
2968.000000	97.232945 
2967.000000	97.232544 
2966.000000	97.232943 
2965.000000	97.235215 
2964.000000	97.238925 
2963.000000	97.243235 
2962.000000	97.247470 
2961.000000	97.250880 
2960.000000	97.252810 
2959.000000	97.253539 
2958.000000	97.254628 
2957.000000	97.257847 
2956.000000	97.263475 
2955.000000	97.269688 
2954.000000	97.273904 
2953.000000	97.275076 
2952.000000	97.274632 
2951.000000	97.275205 
2950.000000	97.278328 
2949.000000	97.283428 
2948.000000	97.288819 
2947.000000	97.293159 
2946.000000	97.295894 
2945.000000	97.296838 
2944.000000	97.296016 
2943.000000	97.294005 
2942.000000	97.291926 
2941.000000	97.290744 
2940.000000	97.290723 
2939.000000	97.291638 
2938.000000	97.293222 
2937.000000	97.295194 
2936.000000	97.297086 
2935.000000	97.298402 
2934.000000	97.299030 
2933.000000	97.299322 
2932.000000	97.299741 
2931.000000	97.300519 
2930.000000	97.301550 
2929.000000	97.302422 
2928.000000	97.302666 
2927.000000	97.302269 
2926.000000	97.302028 
2925.000000	97.303057 
2924.000000	97.305707 
2923.000000	97.309030 
2922.000000	97.311395 
2921.000000	97.311750 
2920.000000	97.310357 
2919.000000	97.308621 
2918.000000	97.308035 
2917.000000	97.308861 
2916.000000	97.309803 
2915.000000	97.309332 
2914.000000	97.307488 
2913.000000	97.305929 
2912.000000	97.305887 
2911.000000	97.306634 
2910.000000	97.306534 
2909.000000	97.305335 
2908.000000	97.304605 
2907.000000	97.305763 
2906.000000	97.308426 
2905.000000	97.310862 
2904.000000	97.311690 
2903.000000	97.310882 
2902.000000	97.309850 
2901.000000	97.310320 
2900.000000	97.313082 
2899.000000	97.317427 
2898.000000	97.321677 
2897.000000	97.324619 
2896.000000	97.326069 
2895.000000	97.326331 
2894.000000	97.325892 
2893.000000	97.325781 
2892.000000	97.327249 
2891.000000	97.330378 
2890.000000	97.333590 
2889.000000	97.335396 
2888.000000	97.336232 
2887.000000	97.337547 
2886.000000	97.339432 
2885.000000	97.340505 
2884.000000	97.340395 
2883.000000	97.340933 
2882.000000	97.343936 
2881.000000	97.348855 
2880.000000	97.353612 
2879.000000	97.357407 
2878.000000	97.361349 
2877.000000	97.366377 
2876.000000	97.371850 
2875.000000	97.376508 
2874.000000	97.379881 
2873.000000	97.382149 
2872.000000	97.383366 
2871.000000	97.383665 
2870.000000	97.383788 
2869.000000	97.384678 
2868.000000	97.386535 
2867.000000	97.388763 
2866.000000	97.390852 
2865.000000	97.392852 
2864.000000	97.395010 
2863.000000	97.397440 
2862.000000	97.400268 
2861.000000	97.403601 
2860.000000	97.407174 
2859.000000	97.410407 
2858.000000	97.413051 
2857.000000	97.415507 
2856.000000	97.418292 
2855.000000	97.421340 
2854.000000	97.424077 
2853.000000	97.426103 
2852.000000	97.427543 
2851.000000	97.428822 
2850.000000	97.430320 
2849.000000	97.432195 
2848.000000	97.434365 
2847.000000	97.436580 
2846.000000	97.438599 
2845.000000	97.440376 
2844.000000	97.442065 
2843.000000	97.443873 
2842.000000	97.445913 
2841.000000	97.448136 
2840.000000	97.450376 
2839.000000	97.452454 
2838.000000	97.454295 
2837.000000	97.455967 
2836.000000	97.457617 
2835.000000	97.459366 
2834.000000	97.461236 
2833.000000	97.463184 
2832.000000	97.465152 
2831.000000	97.467074 
2830.000000	97.468883 
2829.000000	97.470541 
2828.000000	97.472079 
2827.000000	97.473591 
2826.000000	97.475165 
2825.000000	97.476815 
2824.000000	97.478485 
2823.000000	97.480073 
2822.000000	97.481517 
2821.000000	97.482840 
2820.000000	97.484121 
2819.000000	97.485419 
2818.000000	97.486748 
2817.000000	97.488095 
2816.000000	97.489448 
2815.000000	97.490795 
2814.000000	97.492124 
2813.000000	97.493433 
2812.000000	97.494727 
2811.000000	97.496016 
2810.000000	97.497309 
2809.000000	97.498607 
2808.000000	97.499907 
2807.000000	97.501202 
2806.000000	97.502487 
2805.000000	97.503765 
2804.000000	97.505037 
2803.000000	97.506305 
2802.000000	97.507564 
2801.000000	97.508811 
2800.000000	97.510043 
2799.000000	97.511257 
2798.000000	97.512448 
2797.000000	97.513614 
2796.000000	97.514758 
2795.000000	97.515889 
2794.000000	97.517013 
2793.000000	97.518133 
2792.000000	97.519247 
2791.000000	97.520353 
2790.000000	97.521450 
2789.000000	97.522539 
2788.000000	97.523626 
2787.000000	97.524718 
2786.000000	97.525819 
2785.000000	97.526928 
2784.000000	97.528038 
2783.000000	97.529139 
2782.000000	97.530228 
2781.000000	97.531309 
2780.000000	97.532390 
2779.000000	97.533474 
2778.000000	97.534560 
2777.000000	97.535638 
2776.000000	97.536704 
2775.000000	97.537749 
2774.000000	97.538762 
2773.000000	97.539736 
2772.000000	97.540674 
2771.000000	97.541593 
2770.000000	97.542524 
2769.000000	97.543503 
2768.000000	97.544539 
2767.000000	97.545594 
2766.000000	97.546607 
2765.000000	97.547553 
2764.000000	97.548463 
2763.000000	97.549391 
2762.000000	97.550364 
2761.000000	97.551371 
2760.000000	97.552376 
2759.000000	97.553332 
2758.000000	97.554192 
2757.000000	97.554908 
2756.000000	97.555432 
2755.000000	97.555786 
2754.000000	97.556161 
2753.000000	97.556833 
2752.000000	97.557905 
2751.000000	97.559175 
2750.000000	97.560322 
2749.000000	97.561264 
2748.000000	97.562124 
2747.000000	97.562862 
2746.000000	97.563234 
2745.000000	97.563219 
2744.000000	97.563190 
2743.000000	97.563509 
2742.000000	97.564167 
2741.000000	97.564892 
2740.000000	97.565519 
2739.000000	97.566077 
2738.000000	97.566608 
2737.000000	97.567101 
2736.000000	97.567599 
2735.000000	97.568204 
2734.000000	97.568941 
2733.000000	97.569717 
2732.000000	97.570428 
2731.000000	97.571075 
2730.000000	97.571735 
2729.000000	97.572450 
2728.000000	97.573172 
2727.000000	97.573811 
2726.000000	97.574326 
2725.000000	97.574761 
2724.000000	97.575190 
2723.000000	97.575653 
2722.000000	97.576146 
2721.000000	97.576655 
2720.000000	97.577175 
2719.000000	97.577703 
2718.000000	97.578237 
2717.000000	97.578777 
2716.000000	97.579322 
2715.000000	97.579870 
2714.000000	97.580421 
2713.000000	97.580979 
2712.000000	97.581543 
2711.000000	97.582106 
2710.000000	97.582662 
2709.000000	97.583211 
2708.000000	97.583759 
2707.000000	97.584313 
2706.000000	97.584874 
2705.000000	97.585440 
2704.000000	97.586005 
2703.000000	97.586565 
2702.000000	97.587121 
2701.000000	97.587679 
2700.000000	97.588246 
2699.000000	97.588825 
2698.000000	97.589410 
2697.000000	97.589990 
2696.000000	97.590554 
2695.000000	97.591096 
2694.000000	97.591614 
2693.000000	97.592110 
2692.000000	97.592585 
2691.000000	97.593041 
2690.000000	97.593476 
2689.000000	97.593893 
2688.000000	97.594302 
2687.000000	97.594705 
2686.000000	97.595097 
2685.000000	97.595482 
2684.000000	97.595882 
2683.000000	97.596311 
2682.000000	97.596744 
2681.000000	97.597135 
2680.000000	97.597464 
2679.000000	97.597761 
2678.000000	97.598066 
2677.000000	97.598397 
2676.000000	97.598748 
2675.000000	97.599071 
2674.000000	97.599291 
2673.000000	97.599402 
2672.000000	97.599523 
2671.000000	97.599758 
2670.000000	97.600022 
2669.000000	97.600135 
2668.000000	97.600069 
2667.000000	97.599988 
2666.000000	97.600013 
2665.000000	97.600074 
2664.000000	97.600044 
2663.000000	97.599940 
2662.000000	97.599892 
2661.000000	97.599967 
2660.000000	97.600096 
2659.000000	97.600154 
2658.000000	97.600082 
2657.000000	97.599895 
2656.000000	97.599629 
2655.000000	97.599287 
2654.000000	97.598860 
2653.000000	97.598411 
2652.000000	97.598090 
2651.000000	97.598016 
2650.000000	97.598158 
2649.000000	97.598304 
2648.000000	97.598212 
2647.000000	97.597794 
2646.000000	97.597123 
2645.000000	97.596353 
2644.000000	97.595635 
2643.000000	97.595097 
2642.000000	97.594814 
2641.000000	97.594729 
2640.000000	97.594641 
2639.000000	97.594382 
2638.000000	97.593981 
2637.000000	97.593622 
2636.000000	97.593444 
2635.000000	97.593441 
2634.000000	97.593509 
2633.000000	97.593510 
2632.000000	97.593277 
2631.000000	97.592698 
2630.000000	97.591847 
2629.000000	97.590991 
2628.000000	97.590347 
2627.000000	97.589876 
2626.000000	97.589393 
2625.000000	97.588840 
2624.000000	97.588355 
2623.000000	97.588068 
2622.000000	97.587931 
2621.000000	97.587758 
2620.000000	97.587386 
2619.000000	97.586761 
2618.000000	97.585946 
2617.000000	97.585126 
2616.000000	97.584509 
2615.000000	97.584161 
2614.000000	97.583962 
2613.000000	97.583745 
2612.000000	97.583460 
2611.000000	97.583161 
2610.000000	97.582920 
2609.000000	97.582795 
2608.000000	97.582777 
2607.000000	97.582728 
2606.000000	97.582482 
2605.000000	97.582021 
2604.000000	97.581461 
2603.000000	97.580828 
2602.000000	97.580065 
2601.000000	97.579326 
2600.000000	97.578981 
2599.000000	97.579169 
2598.000000	97.579556 
2597.000000	97.579686 
2596.000000	97.579414 
2595.000000	97.578819 
2594.000000	97.577947 
2593.000000	97.576994 
2592.000000	97.576468 
2591.000000	97.576576 
2590.000000	97.576727 
2589.000000	97.576230 
2588.000000	97.575350 
2587.000000	97.575058 
2586.000000	97.575827 
2585.000000	97.577264 
2584.000000	97.578782 
2583.000000	97.580009 
2582.000000	97.580586 
2581.000000	97.580311 
2580.000000	97.579671 
2579.000000	97.579660 
2578.000000	97.580712 
2577.000000	97.582167 
2576.000000	97.582924 
2575.000000	97.582399 
2574.000000	97.580802 
2573.000000	97.578904 
2572.000000	97.577510 
2571.000000	97.576806 
2570.000000	97.576255 
2569.000000	97.575382 
2568.000000	97.574492 
2567.000000	97.574170 
2566.000000	97.574258 
2565.000000	97.574084 
2564.000000	97.573601 
2563.000000	97.573528 
2562.000000	97.574281 
2561.000000	97.575483 
2560.000000	97.576710 
2559.000000	97.578066 
2558.000000	97.579689 
2557.000000	97.581179 
2556.000000	97.581982 
2555.000000	97.582039 
2554.000000	97.581562 
2553.000000	97.580443 
2552.000000	97.578482 
2551.000000	97.576173 
2550.000000	97.574644 
2549.000000	97.574456 
2548.000000	97.574897 
2547.000000	97.574722 
2546.000000	97.573570 
2545.000000	97.572275 
2544.000000	97.571764 
2543.000000	97.572003 
2542.000000	97.572310 
2541.000000	97.572356 
2540.000000	97.572445 
2539.000000	97.572832 
2538.000000	97.573261 
2537.000000	97.573332 
2536.000000	97.573038 
2535.000000	97.572696 
2534.000000	97.572484 
2533.000000	97.572293 
2532.000000	97.572013 
2531.000000	97.571727 
2530.000000	97.571540 
2529.000000	97.571345 
2528.000000	97.570925 
2527.000000	97.570328 
2526.000000	97.570011 
2525.000000	97.570354 
2524.000000	97.571279 
2523.000000	97.572333 
2522.000000	97.573048 
2521.000000	97.573285 
2520.000000	97.573143 
2519.000000	97.572793 
2518.000000	97.572420 
2517.000000	97.572205 
2516.000000	97.572271 
2515.000000	97.572600 
2514.000000	97.573053 
2513.000000	97.573500 
2512.000000	97.573883 
2511.000000	97.574192 
2510.000000	97.574446 
2509.000000	97.574713 
2508.000000	97.575061 
2507.000000	97.575477 
2506.000000	97.575898 
2505.000000	97.576340 
2504.000000	97.576881 
2503.000000	97.577459 
2502.000000	97.577847 
2501.000000	97.577928 
2500.000000	97.577863 
2499.000000	97.577934 
2498.000000	97.578228 
2497.000000	97.578589 
2496.000000	97.578870 
2495.000000	97.579126 
2494.000000	97.579484 
2493.000000	97.579953 
2492.000000	97.580480 
2491.000000	97.581113 
2490.000000	97.581949 
2489.000000	97.582865 
2488.000000	97.583433 
2487.000000	97.583309 
2486.000000	97.582589 
2485.000000	97.581846 
2484.000000	97.581653 
2483.000000	97.582133 
2482.000000	97.582941 
2481.000000	97.583530 
2480.000000	97.583586 
2479.000000	97.583119 
2478.000000	97.582377 
2477.000000	97.581700 
2476.000000	97.581369 
2475.000000	97.581445 
2474.000000	97.581716 
2473.000000	97.581804 
2472.000000	97.581396 
2471.000000	97.580449 
2470.000000	97.579308 
2469.000000	97.578610 
2468.000000	97.578846 
2467.000000	97.579960 
2466.000000	97.581392 
2465.000000	97.582547 
2464.000000	97.583172 
2463.000000	97.583355 
2462.000000	97.583421 
2461.000000	97.583863 
2460.000000	97.585090 
2459.000000	97.586993 
2458.000000	97.588777 
2457.000000	97.589461 
2456.000000	97.588581 
2455.000000	97.586465 
2454.000000	97.584067 
2453.000000	97.582371 
2452.000000	97.581816 
2451.000000	97.582197 
2450.000000	97.583040 
2449.000000	97.583976 
2448.000000	97.584643 
2447.000000	97.584532 
2446.000000	97.583464 
2445.000000	97.582198 
2444.000000	97.581969 
2443.000000	97.583213 
2442.000000	97.585205 
2441.000000	97.586909 
2440.000000	97.587863 
2439.000000	97.588181 
2438.000000	97.588323 
2437.000000	97.589092 
2436.000000	97.591130 
2435.000000	97.594040 
2434.000000	97.596507 
2433.000000	97.597656 
2432.000000	97.597822 
2431.000000	97.597716 
2430.000000	97.597471 
2429.000000	97.596944 
2428.000000	97.596334 
2427.000000	97.595923 
2426.000000	97.595609 
2425.000000	97.595113 
2424.000000	97.594354 
2423.000000	97.593425 
2422.000000	97.592641 
2421.000000	97.592727 
2420.000000	97.594337 
2419.000000	97.597195 
2418.000000	97.600063 
2417.000000	97.602156 
2416.000000	97.603809 
2415.000000	97.605323 
2414.000000	97.606206 
2413.000000	97.606366 
2412.000000	97.606968 
2411.000000	97.608735 
2410.000000	97.610508 
2409.000000	97.610881 
2408.000000	97.610301 
2407.000000	97.610137 
2406.000000	97.610544 
2405.000000	97.610494 
2404.000000	97.609377 
2403.000000	97.607402 
2402.000000	97.604984 
2401.000000	97.602929 
2400.000000	97.602667 
2399.000000	97.605074 
2398.000000	97.609248 
2397.000000	97.613371 
2396.000000	97.616482 
2395.000000	97.618407 
2394.000000	97.618623 
2393.000000	97.616755 
2392.000000	97.613957 
2391.000000	97.612234 
2390.000000	97.612108 
2389.000000	97.612119 
2388.000000	97.610816 
2387.000000	97.608164 
2386.000000	97.604860 
2385.000000	97.601492 
2384.000000	97.598779 
2383.000000	97.597624 
2382.000000	97.598514 
2381.000000	97.601681 
2380.000000	97.607873 
2379.000000	97.617784 
2378.000000	97.629955 
2377.000000	97.640144 
2376.000000	97.644433 
2375.000000	97.642340 
2374.000000	97.636030 
2373.000000	97.627442 
2372.000000	97.617805 
2371.000000	97.609621 
2370.000000	97.606189 
2369.000000	97.608036 
2368.000000	97.611307 
2367.000000	97.611244 
2366.000000	97.607117 
2365.000000	97.602411 
2364.000000	97.600290 
2363.000000	97.600420 
2362.000000	97.601396 
2361.000000	97.603399 
2360.000000	97.605925 
2359.000000	97.606687 
2358.000000	97.603942 
2357.000000	97.599778 
2356.000000	97.597793 
2355.000000	97.598549 
2354.000000	97.600377 
2353.000000	97.600941 
2352.000000	97.599865 
2351.000000	97.597816 
2350.000000	97.594551 
2349.000000	97.590615 
2348.000000	97.587409 
2347.000000	97.586715 
2346.000000	97.586192 
2345.000000	97.582444 
2344.000000	97.576335 
2343.000000	97.570894 
2342.000000	97.570423 
2341.000000	97.577121 
2340.000000	97.589890 
2339.000000	97.602752 
2338.000000	97.609385 
2337.000000	97.607885 
2336.000000	97.601861 
2335.000000	97.596098 
2334.000000	97.593057 
2333.000000	97.590399 
2332.000000	97.584957 
2331.000000	97.575540 
2330.000000	97.562909 
2329.000000	97.549528 
2328.000000	97.536375 
2327.000000	97.525955 
2326.000000	97.518988 
2325.000000	97.514646 
2324.000000	97.512436 
2323.000000	97.512385 
2322.000000	97.515087 
2321.000000	97.517688 
2320.000000	97.518824 
2319.000000	97.520123 
2318.000000	97.524504 
2317.000000	97.531154 
2316.000000	97.536604 
2315.000000	97.538755 
2314.000000	97.537743 
2313.000000	97.534550 
2312.000000	97.529670 
2311.000000	97.524569 
2310.000000	97.520590 
2309.000000	97.517986 
2308.000000	97.516354 
2307.000000	97.516508 
2306.000000	97.519175 
2305.000000	97.522394 
2304.000000	97.522953 
2303.000000	97.520324 
2302.000000	97.517973 
2301.000000	97.519470 
2300.000000	97.524875 
2299.000000	97.531173 
2298.000000	97.534877 
2297.000000	97.534667 
2296.000000	97.531510 
2295.000000	97.528457 
2294.000000	97.528558 
2293.000000	97.532979 
2292.000000	97.540202 
2291.000000	97.547576 
2290.000000	97.553207 
2289.000000	97.556861 
2288.000000	97.559218 
2287.000000	97.560863 
2286.000000	97.562104 
2285.000000	97.563246 
2284.000000	97.564575 
2283.000000	97.565882 
2282.000000	97.566687 
2281.000000	97.566830 
2280.000000	97.566629 
2279.000000	97.566198 
2278.000000	97.565287 
2277.000000	97.563999 
2276.000000	97.563279 
2275.000000	97.564133 
2274.000000	97.566599 
2273.000000	97.569865 
2272.000000	97.573023 
2271.000000	97.575360 
2270.000000	97.576262 
2269.000000	97.575625 
2268.000000	97.574416 
2267.000000	97.574096 
2266.000000	97.575172 
2265.000000	97.576840 
2264.000000	97.577950 
2263.000000	97.577998 
2262.000000	97.577150 
2261.000000	97.575917 
2260.000000	97.574966 
2259.000000	97.574692 
2258.000000	97.574861 
2257.000000	97.574993 
2256.000000	97.575277 
2255.000000	97.576475 
2254.000000	97.578650 
2253.000000	97.580483 
2252.000000	97.580555 
2251.000000	97.578801 
2250.000000	97.576217 
2249.000000	97.573761 
2248.000000	97.571784 
2247.000000	97.570492 
2246.000000	97.570023 
2245.000000	97.570027 
2244.000000	97.569749 
2243.000000	97.568832 
2242.000000	97.567712 
2241.000000	97.567097 
2240.000000	97.567258 
2239.000000	97.567923 
2238.000000	97.568576 
2237.000000	97.568803 
2236.000000	97.568519 
2235.000000	97.567961 
2234.000000	97.567443 
2233.000000	97.567075 
2232.000000	97.566790 
2231.000000	97.566552 
2230.000000	97.566314 
2229.000000	97.565883 
2228.000000	97.565107 
2227.000000	97.564194 
2226.000000	97.563558 
2225.000000	97.563261 
2224.000000	97.562887 
2223.000000	97.562122 
2222.000000	97.561164 
2221.000000	97.560439 
2220.000000	97.560005 
2219.000000	97.559628 
2218.000000	97.559197 
2217.000000	97.558825 
2216.000000	97.558592 
2215.000000	97.558422 
2214.000000	97.558218 
2213.000000	97.557979 
2212.000000	97.557772 
2211.000000	97.557651 
2210.000000	97.557635 
2209.000000	97.557737 
2208.000000	97.557925 
2207.000000	97.558160 
2206.000000	97.558414 
2205.000000	97.558672 
2204.000000	97.558923 
2203.000000	97.559156 
2202.000000	97.559365 
2201.000000	97.559546 
2200.000000	97.559691 
2199.000000	97.559779 
2198.000000	97.559802 
2197.000000	97.559774 
2196.000000	97.559728 
2195.000000	97.559695 
2194.000000	97.559699 
2193.000000	97.559756 
2192.000000	97.559877 
2191.000000	97.560063 
2190.000000	97.560301 
2189.000000	97.560580 
2188.000000	97.560897 
2187.000000	97.561260 
2186.000000	97.561675 
2185.000000	97.562148 
2184.000000	97.562691 
2183.000000	97.563326 
2182.000000	97.564068 
2181.000000	97.564903 
2180.000000	97.565788 
2179.000000	97.566684 
2178.000000	97.567584 
2177.000000	97.568517 
2176.000000	97.569501 
2175.000000	97.570535 
2174.000000	97.571605 
2173.000000	97.572678 
2172.000000	97.573764 
2171.000000	97.574955 
2170.000000	97.576331 
2169.000000	97.577810 
2168.000000	97.579165 
2167.000000	97.580213 
2166.000000	97.580995 
2165.000000	97.581709 
2164.000000	97.582421 
2163.000000	97.583029 
2162.000000	97.583622 
2161.000000	97.584644 
2160.000000	97.586332 
2159.000000	97.588193 
2158.000000	97.589516 
2157.000000	97.590416 
2156.000000	97.591705 
2155.000000	97.593785 
2154.000000	97.596359 
2153.000000	97.599134 
2152.000000	97.602181 
2151.000000	97.605323 
2150.000000	97.607721 
2149.000000	97.608695 
2148.000000	97.608643 
2147.000000	97.608825 
2146.000000	97.610019 
2145.000000	97.611952 
2144.000000	97.614041 
2143.000000	97.616178 
2142.000000	97.618493 
2141.000000	97.620725 
2140.000000	97.622396 
2139.000000	97.623549 
2138.000000	97.624939 
2137.000000	97.627158 
2136.000000	97.629659 
2135.000000	97.630983 
2134.000000	97.630161 
2133.000000	97.627730 
2132.000000	97.625648 
2131.000000	97.625531 
2130.000000	97.627406 
2129.000000	97.630101 
2128.000000	97.632418 
2127.000000	97.634060 
2126.000000	97.635328 
2125.000000	97.636427 
2124.000000	97.637316 
2123.000000	97.637926 
2122.000000	97.638209 
2121.000000	97.638113 
2120.000000	97.637706 
2119.000000	97.637299 
2118.000000	97.637341 
2117.000000	97.638135 
2116.000000	97.639559 
2115.000000	97.640936 
2114.000000	97.641358 
2113.000000	97.640518 
2112.000000	97.639325 
2111.000000	97.639258 
2110.000000	97.640798 
2109.000000	97.642833 
2108.000000	97.643927 
2107.000000	97.643961 
2106.000000	97.644047 
2105.000000	97.645172 
2104.000000	97.647517 
2103.000000	97.650544 
2102.000000	97.653063 
2101.000000	97.653671 
2100.000000	97.651890 
2099.000000	97.649194 
2098.000000	97.648222 
2097.000000	97.650363 
2096.000000	97.654791 
2095.000000	97.659541 
2094.000000	97.663185 
2093.000000	97.665356 
2092.000000	97.666377 
2091.000000	97.667123 
2090.000000	97.668804 
2089.000000	97.672067 
2088.000000	97.676165 
2087.000000	97.679401 
2086.000000	97.680612 
2085.000000	97.680083 
2084.000000	97.679183 
2083.000000	97.679068 
2082.000000	97.679768 
2081.000000	97.680686 
2080.000000	97.681843 
2079.000000	97.684147 
2078.000000	97.688045 
2077.000000	97.692356 
2076.000000	97.695214 
2075.000000	97.696102 
2074.000000	97.696159 
2073.000000	97.696208 
2072.000000	97.695591 
2071.000000	97.693532 
2070.000000	97.690593 
2069.000000	97.688246 
2068.000000	97.687574 
2067.000000	97.688680 
2066.000000	97.690751 
2065.000000	97.692119 
2064.000000	97.691046 
2063.000000	97.687455 
2062.000000	97.683765 
2061.000000	97.683107 
2060.000000	97.686519 
2059.000000	97.692633 
2058.000000	97.699222 
2057.000000	97.704438 
2056.000000	97.707105 
2055.000000	97.706789 
2054.000000	97.704427 
2053.000000	97.702186 
2052.000000	97.701657 
2051.000000	97.702469 
2050.000000	97.703050 
2049.000000	97.702571 
2048.000000	97.701677 
2047.000000	97.701362 
2046.000000	97.701801 
2045.000000	97.702572 
2044.000000	97.703392 
2043.000000	97.704282 
2042.000000	97.705377 
2041.000000	97.706951 
2040.000000	97.709379 
2039.000000	97.712800 
2038.000000	97.716631 
2037.000000	97.719597 
2036.000000	97.720641 
2035.000000	97.719746 
2034.000000	97.718056 
2033.000000	97.717137 
2032.000000	97.717636 
2031.000000	97.718816 
2030.000000	97.719281 
2029.000000	97.718330 
2028.000000	97.716509 
2027.000000	97.714985 
2026.000000	97.714374 
2025.000000	97.714490 
2024.000000	97.714964 
2023.000000	97.715727 
2022.000000	97.716829 
2021.000000	97.718023 
2020.000000	97.718777 
2019.000000	97.718708 
2018.000000	97.717847 
2017.000000	97.716591 
2016.000000	97.715519 
2015.000000	97.714999 
2014.000000	97.714959 
2013.000000	97.714986 
2012.000000	97.714756 
2011.000000	97.714386 
2010.000000	97.714213 
2009.000000	97.714312 
2008.000000	97.714411 
2007.000000	97.714243 
2006.000000	97.713850 
2005.000000	97.713435 
2004.000000	97.713087 
2003.000000	97.712766 
2002.000000	97.712437 
2001.000000	97.712061 
2000.000000	97.711513 
1999.000000	97.710678 
1998.000000	97.709634 
1997.000000	97.708557 
1996.000000	97.707597 
1995.000000	97.706791 
1994.000000	97.706122 
1993.000000	97.705562 
1992.000000	97.705085 
1991.000000	97.704677 
1990.000000	97.704336 
1989.000000	97.704074 
1988.000000	97.703900 
1987.000000	97.703791 
1986.000000	97.703702 
1985.000000	97.703592 
1984.000000	97.703443 
1983.000000	97.703257 
1982.000000	97.703039 
1981.000000	97.702785 
1980.000000	97.702492 
1979.000000	97.702159 
1978.000000	97.701795 
1977.000000	97.701415 
1976.000000	97.701044 
1975.000000	97.700700 
1974.000000	97.700399 
1973.000000	97.700141 
1972.000000	97.699908 
1971.000000	97.699666 
1970.000000	97.699379 
1969.000000	97.699022 
1968.000000	97.698595 
1967.000000	97.698117 
1966.000000	97.697630 
1965.000000	97.697184 
1964.000000	97.696812 
1963.000000	97.696502 
1962.000000	97.696208 
1961.000000	97.695876 
1960.000000	97.695474 
1959.000000	97.695012 
1958.000000	97.694532 
1957.000000	97.694088 
1956.000000	97.693711 
1955.000000	97.693383 
1954.000000	97.693051 
1953.000000	97.692662 
1952.000000	97.692199 
1951.000000	97.691671 
1950.000000	97.691106 
1949.000000	97.690528 
1948.000000	97.689949 
1947.000000	97.689355 
1946.000000	97.688720 
1945.000000	97.688024 
1944.000000	97.687281 
1943.000000	97.686520 
1942.000000	97.685771 
1941.000000	97.685047 
1940.000000	97.684350 
1939.000000	97.683681 
1938.000000	97.683042 
1937.000000	97.682438 
1936.000000	97.681871 
1935.000000	97.681332 
1934.000000	97.680802 
1933.000000	97.680263 
1932.000000	97.679705 
1931.000000	97.679120 
1930.000000	97.678502 
1929.000000	97.677852 
1928.000000	97.677187 
1927.000000	97.676530 
1926.000000	97.675894 
1925.000000	97.675255 
1924.000000	97.674584 
1923.000000	97.673915 
1922.000000	97.673303 
1921.000000	97.672680 
1920.000000	97.671930 
1919.000000	97.671091 
1918.000000	97.670228 
1917.000000	97.669223 
1916.000000	97.667954 
1915.000000	97.666630 
1914.000000	97.665670 
1913.000000	97.665179 
1912.000000	97.664818 
1911.000000	97.664321 
1910.000000	97.663701 
1909.000000	97.663134 
1908.000000	97.662772 
1907.000000	97.662546 
1906.000000	97.662084 
1905.000000	97.660992 
1904.000000	97.659300 
1903.000000	97.657551 
1902.000000	97.656327 
1901.000000	97.655673 
1900.000000	97.655219 
1899.000000	97.654708 
1898.000000	97.654200 
1897.000000	97.653781 
1896.000000	97.653275 
1895.000000	97.652349 
1894.000000	97.650851 
1893.000000	97.648968 
1892.000000	97.647217 
1891.000000	97.646158 
1890.000000	97.646006 
1889.000000	97.646384 
1888.000000	97.646658 
1887.000000	97.646646 
1886.000000	97.646548 
1885.000000	97.646348 
1884.000000	97.645671 
1883.000000	97.644348 
1882.000000	97.642936 
1881.000000	97.642324 
1880.000000	97.642797 
1879.000000	97.643609 
1878.000000	97.643678 
1877.000000	97.642920 
1876.000000	97.642425 
1875.000000	97.643146 
1874.000000	97.644861 
1873.000000	97.646559 
1872.000000	97.647622 
1871.000000	97.648173 
1870.000000	97.648452 
1869.000000	97.648523 
1868.000000	97.648577 
1867.000000	97.648986 
1866.000000	97.649590 
1865.000000	97.649535 
1864.000000	97.648544 
1863.000000	97.647737 
1862.000000	97.648426 
1861.000000	97.650517 
1860.000000	97.652798 
1859.000000	97.654594 
1858.000000	97.656322 
1857.000000	97.658523 
1856.000000	97.661321 
1855.000000	97.664593 
1854.000000	97.667731 
1853.000000	97.669654 
1852.000000	97.670063 
1851.000000	97.669949 
1850.000000	97.670332 
1849.000000	97.671126 
1848.000000	97.671833 
1847.000000	97.672629 
1846.000000	97.674068 
1845.000000	97.676077 
1844.000000	97.677863 
1843.000000	97.679065 
1842.000000	97.680120 
1841.000000	97.681355 
1840.000000	97.682792 
1839.000000	97.684426 
1838.000000	97.686064 
1837.000000	97.687244 
1836.000000	97.687737 
1835.000000	97.687980 
1834.000000	97.688611 
1833.000000	97.689718 
1832.000000	97.690928 
1831.000000	97.691826 
1830.000000	97.692277 
1829.000000	97.692557 
1828.000000	97.693154 
1827.000000	97.694277 
1826.000000	97.695736 
1825.000000	97.697114 
1824.000000	97.698114 
1823.000000	97.698804 
1822.000000	97.699410 
1821.000000	97.699899 
1820.000000	97.700033 
1819.000000	97.699783 
1818.000000	97.699546 
1817.000000	97.699734 
1816.000000	97.700290 
1815.000000	97.701004 
1814.000000	97.702024 
1813.000000	97.703589 
1812.000000	97.705256 
1811.000000	97.705959 
1810.000000	97.705348 
1809.000000	97.704410 
1808.000000	97.704150 
1807.000000	97.704430 
1806.000000	97.704742 
1805.000000	97.705101 
1804.000000	97.705780 
1803.000000	97.706720 
1802.000000	97.707642 
1801.000000	97.708555 
1800.000000	97.709318 
1799.000000	97.709428 
1798.000000	97.708992 
1797.000000	97.708462 
1796.000000	97.707745 
1795.000000	97.706815 
1794.000000	97.706568 
1793.000000	97.708140 
1792.000000	97.710739 
1791.000000	97.712185 
1790.000000	97.712483 
1789.000000	97.713603 
1788.000000	97.716461 
1787.000000	97.719998 
1786.000000	97.722525 
1785.000000	97.723392 
1784.000000	97.723254 
1783.000000	97.723351 
1782.000000	97.724357 
1781.000000	97.726217 
1780.000000	97.728493 
1779.000000	97.730724 
1778.000000	97.733024 
1777.000000	97.735583 
1776.000000	97.738188 
1775.000000	97.740643 
1774.000000	97.742981 
1773.000000	97.745628 
1772.000000	97.748614 
1771.000000	97.751100 
1770.000000	97.752661 
1769.000000	97.753600 
1768.000000	97.754407 
1767.000000	97.755354 
1766.000000	97.756478 
1765.000000	97.757970 
1764.000000	97.759948 
1763.000000	97.761964 
1762.000000	97.763235 
1761.000000	97.763862 
1760.000000	97.765001 
1759.000000	97.767303 
1758.000000	97.770183 
1757.000000	97.772594 
1756.000000	97.774413 
1755.000000	97.776021 
1754.000000	97.776853 
1753.000000	97.775914 
1752.000000	97.773918 
1751.000000	97.773842 
1750.000000	97.777350 
1749.000000	97.782353 
1748.000000	97.785821 
1747.000000	97.786987 
1746.000000	97.786583 
1745.000000	97.785785 
1744.000000	97.785821 
1743.000000	97.786801 
1742.000000	97.787469 
1741.000000	97.787130 
1740.000000	97.786573 
1739.000000	97.786674 
1738.000000	97.786871 
1737.000000	97.786312 
1736.000000	97.784611 
1735.000000	97.782753 
1734.000000	97.781511 
1733.000000	97.780107 
1732.000000	97.780170 
1731.000000	97.784124 
1730.000000	97.791173 
1729.000000	97.797098 
1728.000000	97.798676 
1727.000000	97.796540 
1726.000000	97.793477 
1725.000000	97.791987 
1724.000000	97.792965 
1723.000000	97.795401 
1722.000000	97.797622 
1721.000000	97.798243 
1720.000000	97.796919 
1719.000000	97.794281 
1718.000000	97.791189 
1717.000000	97.787662 
1716.000000	97.781994 
1715.000000	97.773877 
1714.000000	97.766340 
1713.000000	97.761351 
1712.000000	97.757751 
1711.000000	97.754665 
1710.000000	97.752329 
1709.000000	97.750249 
1708.000000	97.747670 
1707.000000	97.745020 
1706.000000	97.743347 
1705.000000	97.741735 
1704.000000	97.737209 
1703.000000	97.729047 
1702.000000	97.718628 
1701.000000	97.710477 
1700.000000	97.705365 
1699.000000	97.698538 
1698.000000	97.692353 
1697.000000	97.689557 
1696.000000	97.687036 
1695.000000	97.681853 
1694.000000	97.676070 
1693.000000	97.672081 
1692.000000	97.668350 
1691.000000	97.663257 
1690.000000	97.657079 
1689.000000	97.651002 
1688.000000	97.645688 
1687.000000	97.640880 
1686.000000	97.636192 
1685.000000	97.632274 
1684.000000	97.627042 
1683.000000	97.619424 
1682.000000	97.613083 
1681.000000	97.608554 
1680.000000	97.604976 
1679.000000	97.602037 
1678.000000	97.599287 
1677.000000	97.595950 
1676.000000	97.591524 
1675.000000	97.585481 
1674.000000	97.576996 
1673.000000	97.567314 
1672.000000	97.559056 
1671.000000	97.554325 
1670.000000	97.552721 
1669.000000	97.550145 
1668.000000	97.545357 
1667.000000	97.540988 
1666.000000	97.537367 
1665.000000	97.533444 
1664.000000	97.529922 
1663.000000	97.527810 
1662.000000	97.524881 
1661.000000	97.518476 
1660.000000	97.510629 
1659.000000	97.504889 
1658.000000	97.502373 
1657.000000	97.500373 
1656.000000	97.496657 
1655.000000	97.489867 
1654.000000	97.482164 
1653.000000	97.468320 
1652.000000	97.446865 
1651.000000	97.433263 
1650.000000	97.427884 
1649.000000	97.424753 
1648.000000	97.422942 
1647.000000	97.422228 
1646.000000	97.420202 
1645.000000	97.416721 
1644.000000	97.413554 
1643.000000	97.411263 
1642.000000	97.409471 
1641.000000	97.407654 
1640.000000	97.405440 
1639.000000	97.402731 
1638.000000	97.399649 
1637.000000	97.397276 
1636.000000	97.396034 
1635.000000	97.394929 
1634.000000	97.395128 
1633.000000	97.396753 
1632.000000	97.397309 
1631.000000	97.396900 
1630.000000	97.397656 
1629.000000	97.399787 
1628.000000	97.402117 
1627.000000	97.404947 
1626.000000	97.409137 
1625.000000	97.414203 
1624.000000	97.420174 
1623.000000	97.427715 
1622.000000	97.435506 
1621.000000	97.440792 
1620.000000	97.443039 
1619.000000	97.444306 
1618.000000	97.447370 
1617.000000	97.451714 
1616.000000	97.454966 
1615.000000	97.460115 
1614.000000	97.469248 
1613.000000	97.477937 
1612.000000	97.482046 
1611.000000	97.482551 
1610.000000	97.483350 
1609.000000	97.487218 
1608.000000	97.495382 
1607.000000	97.507623 
1606.000000	97.520490 
1605.000000	97.530177 
1604.000000	97.537077 
1603.000000	97.543841 
1602.000000	97.550952 
1601.000000	97.556862 
1600.000000	97.561728 
1599.000000	97.567706 
1598.000000	97.575438 
1597.000000	97.583517 
1596.000000	97.591040 
1595.000000	97.598572 
1594.000000	97.606230 
1593.000000	97.612585 
1592.000000	97.616842 
1591.000000	97.620405 
1590.000000	97.624966 
1589.000000	97.630455 
1588.000000	97.636285 
1587.000000	97.642758 
1586.000000	97.649289 
1585.000000	97.653842 
1584.000000	97.656671 
1583.000000	97.660820 
1582.000000	97.667642 
1581.000000	97.675323 
1580.000000	97.682008 
1579.000000	97.687752 
1578.000000	97.693332 
1577.000000	97.699225 
1576.000000	97.704259 
1575.000000	97.708475 
1574.000000	97.713783 
1573.000000	97.719942 
1572.000000	97.726373 
1571.000000	97.733764 
1570.000000	97.739947 
1569.000000	97.739630 
1568.000000	97.735223 
1567.000000	97.733158 
1566.000000	97.733797 
1565.000000	97.733931 
1564.000000	97.734188 
1563.000000	97.734712 
1562.000000	97.734292 
1561.000000	97.728659 
1560.000000	97.726090 
1559.000000	97.733525 
1558.000000	97.736094 
1557.000000	97.735344 
1556.000000	97.737541 
1555.000000	97.740766 
1554.000000	97.740956 
1553.000000	97.738617 
1552.000000	97.735531 
1551.000000	97.731496 
1550.000000	97.725145 
1549.000000	97.718235 
1548.000000	97.713923 
1547.000000	97.712473 
1546.000000	97.710097 
1545.000000	97.704274 
1544.000000	97.696885 
1543.000000	97.691108 
1542.000000	97.688539 
1541.000000	97.688272 
1540.000000	97.681328 
1539.000000	97.664704 
1538.000000	97.649581 
1537.000000	97.640189 
1536.000000	97.632879 
1535.000000	97.626182 
1534.000000	97.621533 
1533.000000	97.618685 
1532.000000	97.614972 
1531.000000	97.608568 
1530.000000	97.600093 
1529.000000	97.590891 
1528.000000	97.581243 
1527.000000	97.571025 
1526.000000	97.560758 
1525.000000	97.551829 
1524.000000	97.545248 
1523.000000	97.540516 
1522.000000	97.535578 
1521.000000	97.526780 
1520.000000	97.513097 
1519.000000	97.497697 
1518.000000	97.483420 
1517.000000	97.471649 
1516.000000	97.462409 
1515.000000	97.455071 
1514.000000	97.448634 
1513.000000	97.441619 
1512.000000	97.432747 
1511.000000	97.421391 
1510.000000	97.408550 
1509.000000	97.396019 
1508.000000	97.386214 
1507.000000	97.378409 
1506.000000	97.368386 
1505.000000	97.356580 
1504.000000	97.345415 
1503.000000	97.334801 
1502.000000	97.324083 
1501.000000	97.313667 
1500.000000	97.304109 
1499.000000	97.294952 
1498.000000	97.284379 
1497.000000	97.271998 
1496.000000	97.259699 
1495.000000	97.249206 
1494.000000	97.240553 
1493.000000	97.233002 
1492.000000	97.226198 
1491.000000	97.220124 
1490.000000	97.213945 
1489.000000	97.206251 
1488.000000	97.196087 
1487.000000	97.183756 
1486.000000	97.171031 
1485.000000	97.158532 
1484.000000	97.146381 
1483.000000	97.135882 
1482.000000	97.127892 
1481.000000	97.121189 
1480.000000	97.113159 
1479.000000	97.102958 
1478.000000	97.092379 
1477.000000	97.083596 
1476.000000	97.075906 
1475.000000	97.066011 
1474.000000	97.052874 
1473.000000	97.040503 
1472.000000	97.032536 
1471.000000	97.026474 
1470.000000	97.018580 
1469.000000	97.008117 
1468.000000	96.995679 
1467.000000	96.982022 
1466.000000	96.969213 
1465.000000	96.960256 
1464.000000	96.955148 
1463.000000	96.949334 
1462.000000	96.939575 
1461.000000	96.927982 
1460.000000	96.919271 
1459.000000	96.915517 
1458.000000	96.911783 
1457.000000	96.901265 
1456.000000	96.886569 
1455.000000	96.873607 
1454.000000	96.861543 
1453.000000	96.850456 
1452.000000	96.843238 
1451.000000	96.841630 
1450.000000	96.844095 
1449.000000	96.848573 
1448.000000	96.852521 
1447.000000	96.852458 
1446.000000	96.847100 
1445.000000	96.840208 
1444.000000	96.836917 
1443.000000	96.837291 
1442.000000	96.837331 
1441.000000	96.834137 
1440.000000	96.828363 
1439.000000	96.821438 
1438.000000	96.813677 
1437.000000	96.807294 
1436.000000	96.805240 
1435.000000	96.805388 
1434.000000	96.804106 
1433.000000	96.802333 
1432.000000	96.802943 
1431.000000	96.807356 
1430.000000	96.813477 
1429.000000	96.818340 
1428.000000	96.820987 
1427.000000	96.822705 
1426.000000	96.825600 
1425.000000	96.831276 
1424.000000	96.840335 
1423.000000	96.849443 
1422.000000	96.855240 
1421.000000	96.860796 
1420.000000	96.873162 
1419.000000	96.890319 
1418.000000	96.899565 
1417.000000	96.899676 
1416.000000	96.901762 
1415.000000	96.910518 
1414.000000	96.920665 
1413.000000	96.927142 
1412.000000	96.932348 
1411.000000	96.940608 
1410.000000	96.950556 
1409.000000	96.959213 
1408.000000	96.967350 
1407.000000	96.977338 
1406.000000	96.989336 
1405.000000	97.002577 
1404.000000	97.017758 
1403.000000	97.033056 
1402.000000	97.044863 
1401.000000	97.054666 
1400.000000	97.068889 
1399.000000	97.090110 
1398.000000	97.111999 
1397.000000	97.128607 
1396.000000	97.142023 
1395.000000	97.157060 
1394.000000	97.172882 
1393.000000	97.186281 
1392.000000	97.199342 
1391.000000	97.215220 
1390.000000	97.233323 
1389.000000	97.250971 
1388.000000	97.266215 
1387.000000	97.278428 
1386.000000	97.288021 
1385.000000	97.297629 
1384.000000	97.310888 
1383.000000	97.328021 
1382.000000	97.345023 
1381.000000	97.358477 
1380.000000	97.368735 
1379.000000	97.378646 
1378.000000	97.390335 
1377.000000	97.403787 
1376.000000	97.417718 
1375.000000	97.430677 
1374.000000	97.441674 
1373.000000	97.451446 
1372.000000	97.462187 
1371.000000	97.475636 
1370.000000	97.491491 
1369.000000	97.506929 
1368.000000	97.520007 
1367.000000	97.531070 
1366.000000	97.541530 
1365.000000	97.552905 
1364.000000	97.565270 
1363.000000	97.576391 
1362.000000	97.584171 
1361.000000	97.589936 
1360.000000	97.597501 
1359.000000	97.609213 
1358.000000	97.623731 
1357.000000	97.637622 
1356.000000	97.648745 
1355.000000	97.657198 
1354.000000	97.663965 
1353.000000	97.670554 
1352.000000	97.678104 
1351.000000	97.687208 
1350.000000	97.697488 
1349.000000	97.705857 
1348.000000	97.709862 
1347.000000	97.711174 
1346.000000	97.714361 
1345.000000	97.721825 
1344.000000	97.731806 
1343.000000	97.741438 
1342.000000	97.749778 
1341.000000	97.756831 
1340.000000	97.761825 
1339.000000	97.764288 
1338.000000	97.765355 
1337.000000	97.766745 
1336.000000	97.768907 
1335.000000	97.770911 
1334.000000	97.772221 
1333.000000	97.773697 
1332.000000	97.776409 
1331.000000	97.780612 
1330.000000	97.785767 
1329.000000	97.790938 
1328.000000	97.795276 
1327.000000	97.798722 
1326.000000	97.801498 
1325.000000	97.802420 
1324.000000	97.800145 
1323.000000	97.795029 
1322.000000	97.789168 
1321.000000	97.784829 
1320.000000	97.783251 
1319.000000	97.784326 
1318.000000	97.786869 
1317.000000	97.789477 
1316.000000	97.791053 
1315.000000	97.790785 
1314.000000	97.788495 
1313.000000	97.785713 
1312.000000	97.785060 
1311.000000	97.787485 
1310.000000	97.790908 
1309.000000	97.792817 
1308.000000	97.793265 
1307.000000	97.794231 
1306.000000	97.796595 
1305.000000	97.799067 
1304.000000	97.800749 
1303.000000	97.801888 
1302.000000	97.802156 
1301.000000	97.800266 
1300.000000	97.796351 
1299.000000	97.792900 
1298.000000	97.791960 
1297.000000	97.792518 
1296.000000	97.792027 
1295.000000	97.790054 
1294.000000	97.788687 
1293.000000	97.789736 
1292.000000	97.792854 
1291.000000	97.796471 
1290.000000	97.799595 
1289.000000	97.801988 
1288.000000	97.803021 
1287.000000	97.801460 
1286.000000	97.796934 
1285.000000	97.791415 
1284.000000	97.788302 
1283.000000	97.789062 
1282.000000	97.791205 
1281.000000	97.790550 
1280.000000	97.785763 
1279.000000	97.780027 
1278.000000	97.777840 
1277.000000	97.780730 
1276.000000	97.786339 
1275.000000	97.791316 
1274.000000	97.794289 
1273.000000	97.796102 
1272.000000	97.797933 
1271.000000	97.799783 
1270.000000	97.800839 
1269.000000	97.800712 
1268.000000	97.799659 
1267.000000	97.797488 
1266.000000	97.793319 
1265.000000	97.787705 
1264.000000	97.783887 
1263.000000	97.784866 
1262.000000	97.789431 
1261.000000	97.793015 
1260.000000	97.793164 
1259.000000	97.792496 
1258.000000	97.794776 
1257.000000	97.799662 
1256.000000	97.803034 
1255.000000	97.802302 
1254.000000	97.799837 
1253.000000	97.800066 
1252.000000	97.803614 
1251.000000	97.806105 
1250.000000	97.803513 
1249.000000	97.797308 
1248.000000	97.792670 
1247.000000	97.792098 
1246.000000	97.792952 
1245.000000	97.792056 
1244.000000	97.790167 
1243.000000	97.790207 
1242.000000	97.793065 
1241.000000	97.797309 
1240.000000	97.801489 
1239.000000	97.804238 
1238.000000	97.803373 
1237.000000	97.797713 
1236.000000	97.789424 
1235.000000	97.782228 
1234.000000	97.777319 
1233.000000	97.772837 
1232.000000	97.766821 
1231.000000	97.758333 
1230.000000	97.746405 
1229.000000	97.730733 
1228.000000	97.713262 
1227.000000	97.696237 
1226.000000	97.678394 
1225.000000	97.655679 
1224.000000	97.626217 
1223.000000	97.591948 
1222.000000	97.554774 
1221.000000	97.513909 
1220.000000	97.468526 
1219.000000	97.420566 
1218.000000	97.372686 
1217.000000	97.324747 
1216.000000	97.273945 
1215.000000	97.217567 
1214.000000	97.155192 
1213.000000	97.089662 
1212.000000	97.025937 
1211.000000	96.966438 
1210.000000	96.907067 
1209.000000	96.840675 
1208.000000	96.765356 
1207.000000	96.686828 
1206.000000	96.611745 
1205.000000	96.541187 
1204.000000	96.471838 
1203.000000	96.400536 
1202.000000	96.325904 
1201.000000	96.247976 
1200.000000	96.168298 
1199.000000	96.088949 
1198.000000	96.010096 
1197.000000	95.930095 
1196.000000	95.848594 
1195.000000	95.767388 
1194.000000	95.687556 
1193.000000	95.607813 
1192.000000	95.526472 
1191.000000	95.442944 
1190.000000	95.356694 
1189.000000	95.266967 
1188.000000	95.174250 
1187.000000	95.080128 
1186.000000	94.985374 
1185.000000	94.889824 
1184.000000	94.793496 
1183.000000	94.695619 
1182.000000	94.593824 
1181.000000	94.487322 
1180.000000	94.379396 
1179.000000	94.272807 
1178.000000	94.163997 
1177.000000	94.046806 
1176.000000	93.921229 
1175.000000	93.793215 
1174.000000	93.666129 
1173.000000	93.538225 
1172.000000	93.408850 
1171.000000	93.280470 
1170.000000	93.153248 
1169.000000	93.024440 
1168.000000	92.895693 
1167.000000	92.775340 
1166.000000	92.671643 
1165.000000	92.589820 
1164.000000	92.537100 
1163.000000	92.522580 
1162.000000	92.547170 
1161.000000	92.597792 
1160.000000	92.654112 
1159.000000	92.697618 
1158.000000	92.714267 
1157.000000	92.695658 
1156.000000	92.641915 
1155.000000	92.560531 
1154.000000	92.460392 
1153.000000	92.349085 
1152.000000	92.234970 
1151.000000	92.125419 
1150.000000	92.020936 
1149.000000	91.916569 
1148.000000	91.810903 
1147.000000	91.708103 
1146.000000	91.609708 
1145.000000	91.511177 
1144.000000	91.409266 
1143.000000	91.306623 
1142.000000	91.206068 
1141.000000	91.105980 
1140.000000	91.004391 
1139.000000	90.902336 
1138.000000	90.800569 
1137.000000	90.698009 
1136.000000	90.595370 
1135.000000	90.494850 
1134.000000	90.394550 
1133.000000	90.289141 
1132.000000	90.177800 
1131.000000	90.065399 
1130.000000	89.954410 
1129.000000	89.842080 
1128.000000	89.727056 
1127.000000	89.611546 
1126.000000	89.495039 
1125.000000	89.373432 
1124.000000	89.247017 
1123.000000	89.122307 
1122.000000	89.003134 
1121.000000	88.886564 
1120.000000	88.769763 
1119.000000	88.653593 
1118.000000	88.537442 
1117.000000	88.418770 
1116.000000	88.300307 
1115.000000	88.189686 
1114.000000	88.089469 
1113.000000	87.995128 
1112.000000	87.903841 
1111.000000	87.816362 
1110.000000	87.729727 
1109.000000	87.638571 
1108.000000	87.544590 
1107.000000	87.454003 
1106.000000	87.365448 
1105.000000	87.271578 
1104.000000	87.172623 
1103.000000	87.076047 
1102.000000	86.981861 
1101.000000	86.882506 
1100.000000	86.778790 
1099.000000	86.681186 
1098.000000	86.593938 
1097.000000	86.509309 
1096.000000	86.421508 
1095.000000	86.332621 
1094.000000	86.242409 
1093.000000	86.146529 
1092.000000	86.048965 
1091.000000	85.962380 
1090.000000	85.891165 
1089.000000	85.826279 
1088.000000	85.760205 
1087.000000	85.694177 
1086.000000	85.627967 
1085.000000	85.556770 
1084.000000	85.482001 
1083.000000	85.411500 
1082.000000	85.345130 
1081.000000	85.273608 
1080.000000	85.195008 
1079.000000	85.118293 
1078.000000	85.046653 
1077.000000	84.971268 
1076.000000	84.885439 
1075.000000	84.790462 
1074.000000	84.684109 
1073.000000	84.558410 
1072.000000	84.413072 
1071.000000	84.256293 
1070.000000	84.087609 
1069.000000	83.894793 
1068.000000	83.673269 
1067.000000	83.434750 
1066.000000	83.191905 
1065.000000	82.948051 
1064.000000	82.706218 
1063.000000	82.472055 
1062.000000	82.241297 
1061.000000	82.000156 
1060.000000	81.745421 
1059.000000	81.490177 
1058.000000	81.243716 
1057.000000	81.000117 
1056.000000	80.752215 
1055.000000	80.501342 
1054.000000	80.247103 
1053.000000	79.982985 
1052.000000	79.709389 
1051.000000	79.435881 
1050.000000	79.163506 
1049.000000	78.881638 
1048.000000	78.588466 
1047.000000	78.295910 
1046.000000	78.009430 
1045.000000	77.722002 
1044.000000	77.431542 
1043.000000	77.145589 
1042.000000	76.865209 
1041.000000	76.582762 
1040.000000	76.299845 
1039.000000	76.029070 
1038.000000	75.773877 
1037.000000	75.525616 
1036.000000	75.284595 
1035.000000	75.063900 
1034.000000	74.867676 
1033.000000	74.685694 
1032.000000	74.513714 
1031.000000	74.358874 
1030.000000	74.220991 
1029.000000	74.090014 
1028.000000	73.966459 
1027.000000	73.862638 
1026.000000	73.778936 
1025.000000	73.700399 
1024.000000	73.620994 
1023.000000	73.549008 
1022.000000	73.484171 
1021.000000	73.412687 
1020.000000	73.330327 
1019.000000	73.248187 
1018.000000	73.170640 
1017.000000	73.089853 
1016.000000	73.006353 
1015.000000	72.931835 
1014.000000	72.866594 
1013.000000	72.797335 
1012.000000	72.722451 
1011.000000	72.656502 
1010.000000	72.604722 
1009.000000	72.556611 
1008.000000	72.509790 
1007.000000	72.476458 
1006.000000	72.460703 
1005.000000	72.452923 
1004.000000	72.451830 
1003.000000	72.467837 
1002.000000	72.499027 
1001.000000	72.528401 
1000.000000	72.551773 
999.000000	 72.584651 
998.000000	 72.634708 
997.000000	 72.691100 
996.000000	 72.747705 
995.000000	 72.813472 
994.000000	 72.892064 
993.000000	 72.973663 
992.000000	 73.054163 
991.000000	 73.140937 
990.000000	 73.233561 
989.000000	 73.321261 
988.000000	 73.405684 
987.000000	 73.503748 
986.000000	 73.621631 
985.000000	 73.748248 
984.000000	 73.879838 
983.000000	 74.027418 
982.000000	 74.193130 
981.000000	 74.363149 
980.000000	 74.532150 
979.000000	 74.712068 
978.000000	 74.908080 
977.000000	 75.108527 
976.000000	 75.307655 
975.000000	 75.516758 
974.000000	 75.742867 
973.000000	 75.976554 
972.000000	 76.210388 
971.000000	 76.450574 
970.000000	 76.700685 
969.000000	 76.951578 
968.000000	 77.196521 
967.000000	 77.440354 
966.000000	 77.686249 
965.000000	 77.929390 
964.000000	 78.170185 
963.000000	 78.417376 
962.000000	 78.671368 
961.000000	 78.920157 
960.000000	 79.157737 
959.000000	 79.391043 
958.000000	 79.623436 
957.000000	 79.847396 
956.000000	 80.059779 
955.000000	 80.268937 
954.000000	 80.480366 
953.000000	 80.688894 
952.000000	 80.889928 
951.000000	 81.084535 
950.000000	 81.269730 
949.000000	 81.438535 
948.000000	 81.593742 
947.000000	 81.747200 
946.000000	 81.901556 
945.000000	 82.046935 
944.000000	 82.178950 
943.000000	 82.304887 
942.000000	 82.428583 
941.000000	 82.544648 
940.000000	 82.652590 
939.000000	 82.761771 
938.000000	 82.877177 
937.000000	 82.993623 
936.000000	 83.108114 
935.000000	 83.224370 
934.000000	 83.342137 
933.000000	 83.456557 
932.000000	 83.571272 
931.000000	 83.697004 
930.000000	 83.833179 
929.000000	 83.965679 
928.000000	 84.086812 
927.000000	 84.202927 
926.000000	 84.318397 
925.000000	 84.426704 
924.000000	 84.522420 
923.000000	 84.609003 
922.000000	 84.690633 
921.000000	 84.768551 
920.000000	 84.847684 
919.000000	 84.933050 
918.000000	 85.017012 
917.000000	 85.084726 
916.000000	 85.136266 
915.000000	 85.190346 
914.000000	 85.263309 
913.000000	 85.357562 
912.000000	 85.471838 
911.000000	 85.607142 
910.000000	 85.759650 
909.000000	 85.923086 
908.000000	 86.101312 
907.000000	 86.304407 
906.000000	 86.530924 
905.000000	 86.768924 
904.000000	 87.014689 
903.000000	 87.273375 
902.000000	 87.540409 
901.000000	 87.801039 
900.000000	 88.051744 
899.000000	 88.304808 
898.000000	 88.567360 
897.000000	 88.830934 
896.000000	 89.084879 
895.000000	 89.325459 
894.000000	 89.549418 
893.000000	 89.753751 
892.000000	 89.945072 
891.000000	 90.135503 
890.000000	 90.326292 
889.000000	 90.507819 
888.000000	 90.676208 
887.000000	 90.835631 
886.000000	 90.984102 
885.000000	 91.113133 
884.000000	 91.223172 
883.000000	 91.323705 
882.000000	 91.416923 
881.000000	 91.498771 
880.000000	 91.578384 
879.000000	 91.676571 
878.000000	 91.799381 
877.000000	 91.931826 
876.000000	 92.063623 
875.000000	 92.202551 
874.000000	 92.356869 
873.000000	 92.524387 
872.000000	 92.705671 
871.000000	 92.908081 
870.000000	 93.128083 
869.000000	 93.346903 
868.000000	 93.551971 
867.000000	 93.747669 
866.000000	 93.938982 
865.000000	 94.120966 
864.000000	 94.292586 
863.000000	 94.465983 
862.000000	 94.651193 
861.000000	 94.842063 
860.000000	 95.025982 
859.000000	 95.198387 
858.000000	 95.361120 
857.000000	 95.515670 
856.000000	 95.664145 
855.000000	 95.808302 
854.000000	 95.942381 
853.000000	 96.055642 
852.000000	 96.147034 
851.000000	 96.229439 
850.000000	 96.315625 
849.000000	 96.407925 
848.000000	 96.503664 
847.000000	 96.599794 
846.000000	 96.688860 
845.000000	 96.761615 
844.000000	 96.818208 
843.000000	 96.867638 
842.000000	 96.913367 
841.000000	 96.949327 
840.000000	 96.971866 
839.000000	 96.983700 
838.000000	 96.983804 
837.000000	 96.966932 
836.000000	 96.937933 
835.000000	 96.913699 
834.000000	 96.904394 
833.000000	 96.904039 
832.000000	 96.905591 
831.000000	 96.912780 
830.000000	 96.929579 
829.000000	 96.950793 
828.000000	 96.973756 
827.000000	 97.009110 
826.000000	 97.068242 
825.000000	 97.147316 
824.000000	 97.232644 
823.000000	 97.313247 
822.000000	 97.381476 
821.000000	 97.432697 
820.000000	 97.471686 
819.000000	 97.509053 
818.000000	 97.544755 
817.000000	 97.563591 
816.000000	 97.551959 
815.000000	 97.510815 
814.000000	 97.446837 
813.000000	 97.357798 
812.000000	 97.231854 
811.000000	 97.054596 
810.000000	 96.812067 
809.000000	 96.493967 
808.000000	 96.100529 
807.000000	 95.643337 
806.000000	 95.137781 
805.000000	 94.600912 
804.000000	 94.057267 
803.000000	 93.534969 
802.000000	 93.051572 
801.000000	 92.615851 
800.000000	 92.246875 
799.000000	 91.974246 
798.000000	 91.810990 
797.000000	 91.740190 
796.000000	 91.734468 
795.000000	 91.773587 
794.000000	 91.838780 
793.000000	 91.909872 
792.000000	 91.978320 
791.000000	 92.048590 
790.000000	 92.118345 
789.000000	 92.169761 
788.000000	 92.185800 
787.000000	 92.161275 
786.000000	 92.093244 
785.000000	 91.975961 
784.000000	 91.812937 
783.000000	 91.621307 
782.000000	 91.418495 
781.000000	 91.217993 
780.000000	 91.041994 
779.000000	 90.919541 
778.000000	 90.863204 
777.000000	 90.862968 
776.000000	 90.909783 
775.000000	 91.007085 
774.000000	 91.150717 
773.000000	 91.316593 
772.000000	 91.480338 
771.000000	 91.634898 
770.000000	 91.779949 
769.000000	 91.909667 
768.000000	 92.020949 
767.000000	 92.118913 
766.000000	 92.203601 
765.000000	 92.264920 
764.000000	 92.301739 
763.000000	 92.333228 
762.000000	 92.379646 
761.000000	 92.442290 
760.000000	 92.511790 
759.000000	 92.584518 
758.000000	 92.660962 
757.000000	 92.739828 
756.000000	 92.824841 
755.000000	 92.926759 
754.000000	 93.046604 
753.000000	 93.164848 
752.000000	 93.258354 
751.000000	 93.323523 
750.000000	 93.376957 
749.000000	 93.439890 
748.000000	 93.526068 
747.000000	 93.634804 
746.000000	 93.748900 
745.000000	 93.847963 
744.000000	 93.930958 
743.000000	 94.019155 
742.000000	 94.132479 
741.000000	 94.270809 
740.000000	 94.421516 
739.000000	 94.574250 
738.000000	 94.722440 
737.000000	 94.859870 
736.000000	 94.983607 
735.000000	 95.095588 
734.000000	 95.197864 
733.000000	 95.290919 
732.000000	 95.376494 
731.000000	 95.454379 
730.000000	 95.516702 
729.000000	 95.554708 
728.000000	 95.574268 
727.000000	 95.595102 
726.000000	 95.631896 
725.000000	 95.686574 
724.000000	 95.757306 
723.000000	 95.840921 
722.000000	 95.926436 
721.000000	 96.002294 
720.000000	 96.073141 
719.000000	 96.152812 
718.000000	 96.238047 
717.000000	 96.308811 
716.000000	 96.356719 
715.000000	 96.395693 
714.000000	 96.441071 
713.000000	 96.494109 
712.000000	 96.553904 
711.000000	 96.626163 
710.000000	 96.708828 
709.000000	 96.785202 
708.000000	 96.842207 
707.000000	 96.883004 
706.000000	 96.911251 
705.000000	 96.918600 
704.000000	 96.898129 
703.000000	 96.853118 
702.000000	 96.781668 
701.000000	 96.665188 
700.000000	 96.483118 
699.000000	 96.233974 
698.000000	 95.935951 
697.000000	 95.622502 
696.000000	 95.345060 
695.000000	 95.158184 
694.000000	 95.088286 
693.000000	 95.121258 
692.000000	 95.223828 
691.000000	 95.368964 
690.000000	 95.534662 
689.000000	 95.697286 
688.000000	 95.840894 
687.000000	 95.963401 
686.000000	 96.067537 
685.000000	 96.154943 
684.000000	 96.233092 
683.000000	 96.314878 
682.000000	 96.403119 
681.000000	 96.487693 
680.000000	 96.561658 
679.000000	 96.629068 
678.000000	 96.691514 
677.000000	 96.744879 
676.000000	 96.804759 
675.000000	 96.893440 
674.000000	 97.001453 
673.000000	 97.088584 
672.000000	 97.135148 
671.000000	 97.170931 
670.000000	 97.253056 
669.000000	 97.426210 
668.000000	 97.623044 
667.000000	 97.692850 
666.000000	 97.666981 
665.000000	 97.631960 
664.000000	 97.609382 
663.000000	 97.612819 
662.000000	 97.652070 
661.000000	 97.711311 
660.000000	 97.773425 
659.000000	 97.836196 
658.000000	 97.891037 
657.000000	 97.911980 
656.000000	 97.894159 
655.000000	 97.859349 
654.000000	 97.818327 
653.000000	 97.762368 
652.000000	 97.706360 
651.000000	 97.697074 
650.000000	 97.749930 

