4000.000000	99.166727 
3999.000000	99.166555 
3998.000000	99.165866 
3997.000000	99.164802 
3996.000000	99.163788 
3995.000000	99.163276 
3994.000000	99.163493 
3993.000000	99.164263 
3992.000000	99.165076 
3991.000000	99.165504 
3990.000000	99.165518 
3989.000000	99.165401 
3988.000000	99.165441 
3987.000000	99.165757 
3986.000000	99.166286 
3985.000000	99.166814 
3984.000000	99.167049 
3983.000000	99.166861 
3982.000000	99.166465 
3981.000000	99.166220 
3980.000000	99.166148 
3979.000000	99.165826 
3978.000000	99.164917 
3977.000000	99.163646 
3976.000000	99.162658 
3975.000000	99.162405 
3974.000000	99.162748 
3973.000000	99.163061 
3972.000000	99.162671 
3971.000000	99.161304 
3970.000000	99.159233 
3969.000000	99.157096 
3968.000000	99.155574 
3967.000000	99.155042 
3966.000000	99.155305 
3965.000000	99.155637 
3964.000000	99.155227 
3963.000000	99.153769 
3962.000000	99.151671 
3961.000000	99.149606 
3960.000000	99.147914 
3959.000000	99.146635 
3958.000000	99.145874 
3957.000000	99.145795 
3956.000000	99.146263 
3955.000000	99.146649 
3954.000000	99.146219 
3953.000000	99.144709 
3952.000000	99.142499 
3951.000000	99.140330 
3950.000000	99.138612 
3949.000000	99.137061 
3948.000000	99.135097 
3947.000000	99.132560 
3946.000000	99.130082 
3945.000000	99.128668 
3944.000000	99.128838 
3943.000000	99.129955 
3942.000000	99.130662 
3941.000000	99.130261 
3940.000000	99.129178 
3939.000000	99.128169 
3938.000000	99.127387 
3937.000000	99.126314 
3936.000000	99.124593 
3935.000000	99.122685 
3934.000000	99.121551 
3933.000000	99.121619 
3932.000000	99.122314 
3931.000000	99.122756 
3930.000000	99.122833 
3929.000000	99.123271 
3928.000000	99.124570 
3927.000000	99.126154 
3926.000000	99.126871 
3925.000000	99.126010 
3924.000000	99.123600 
3923.000000	99.120305 
3922.000000	99.117088 
3921.000000	99.114751 
3920.000000	99.113490 
3919.000000	99.112888 
3918.000000	99.112538 
3917.000000	99.112439 
3916.000000	99.112704 
3915.000000	99.113166 
3914.000000	99.113598 
3913.000000	99.113967 
3912.000000	99.114198 
3911.000000	99.114133 
3910.000000	99.113673 
3909.000000	99.112941 
3908.000000	99.112173 
3907.000000	99.111507 
3906.000000	99.110901 
3905.000000	99.110172 
3904.000000	99.109106 
3903.000000	99.107741 
3902.000000	99.106482 
3901.000000	99.105747 
3900.000000	99.105600 
3899.000000	99.105669 
3898.000000	99.105508 
3897.000000	99.105025 
3896.000000	99.104413 
3895.000000	99.103882 
3894.000000	99.103497 
3893.000000	99.103170 
3892.000000	99.102753 
3891.000000	99.102167 
3890.000000	99.101412 
3889.000000	99.100512 
3888.000000	99.099541 
3887.000000	99.098673 
3886.000000	99.098018 
3885.000000	99.097460 
3884.000000	99.096769 
3883.000000	99.095895 
3882.000000	99.095023 
3881.000000	99.094365 
3880.000000	99.093934 
3879.000000	99.093546 
3878.000000	99.093036 
3877.000000	99.092427 
3876.000000	99.091893 
3875.000000	99.091596 
3874.000000	99.091460 
3873.000000	99.091134 
3872.000000	99.090367 
3871.000000	99.089324 
3870.000000	99.088499 
3869.000000	99.088118 
3868.000000	99.087862 
3867.000000	99.087369 
3866.000000	99.086838 
3865.000000	99.086687 
3864.000000	99.086705 
3863.000000	99.086262 
3862.000000	99.085225 
3861.000000	99.084103 
3860.000000	99.083326 
3859.000000	99.082816 
3858.000000	99.082051 
3857.000000	99.080638 
3856.000000	99.078831 
3855.000000	99.077658 
3854.000000	99.077615 
3853.000000	99.077860 
3852.000000	99.077786 
3851.000000	99.077745 
3850.000000	99.078087 
3849.000000	99.078923 
3848.000000	99.079989 
3847.000000	99.080841 
3846.000000	99.081224 
3845.000000	99.081123 
3844.000000	99.080653 
3843.000000	99.080045 
3842.000000	99.079419 
3841.000000	99.078869 
3840.000000	99.078621 
3839.000000	99.078875 
3838.000000	99.079477 
3837.000000	99.080032 
3836.000000	99.080249 
3835.000000	99.080098 
3834.000000	99.079740 
3833.000000	99.079463 
3832.000000	99.079501 
3831.000000	99.079792 
3830.000000	99.080071 
3829.000000	99.080188 
3828.000000	99.080303 
3827.000000	99.080766 
3826.000000	99.081624 
3825.000000	99.082363 
3824.000000	99.082372 
3823.000000	99.081657 
3822.000000	99.080846 
3821.000000	99.080480 
3820.000000	99.080384 
3819.000000	99.080086 
3818.000000	99.079521 
3817.000000	99.079232 
3816.000000	99.079709 
3815.000000	99.080703 
3814.000000	99.081448 
3813.000000	99.081628 
3812.000000	99.081579 
3811.000000	99.081682 
3810.000000	99.081788 
3809.000000	99.081443 
3808.000000	99.080640 
3807.000000	99.079959 
3806.000000	99.079662 
3805.000000	99.079124 
3804.000000	99.077651 
3803.000000	99.075758 
3802.000000	99.074929 
3801.000000	99.075811 
3800.000000	99.077347 
3799.000000	99.078108 
3798.000000	99.077977 
3797.000000	99.077939 
3796.000000	99.078683 
3795.000000	99.079745 
3794.000000	99.080304 
3793.000000	99.080311 
3792.000000	99.080432 
3791.000000	99.081083 
3790.000000	99.081939 
3789.000000	99.082386 
3788.000000	99.082145 
3787.000000	99.081291 
3786.000000	99.080163 
3785.000000	99.079187 
3784.000000	99.078416 
3783.000000	99.077147 
3782.000000	99.074697 
3781.000000	99.071697 
3780.000000	99.069905 
3779.000000	99.070448 
3778.000000	99.072515 
3777.000000	99.074243 
3776.000000	99.074655 
3775.000000	99.074575 
3774.000000	99.075055 
3773.000000	99.075719 
3772.000000	99.075484 
3771.000000	99.074111 
3770.000000	99.071820 
3769.000000	99.068583 
3768.000000	99.064706 
3767.000000	99.061321 
3766.000000	99.059881 
3765.000000	99.060989 
3764.000000	99.063415 
3763.000000	99.065024 
3762.000000	99.065104 
3761.000000	99.064520 
3760.000000	99.063165 
3759.000000	99.059835 
3758.000000	99.054907 
3757.000000	99.050173 
3756.000000	99.045541 
3755.000000	99.039469 
3754.000000	99.032320 
3753.000000	99.026787 
3752.000000	99.023659 
3751.000000	99.019899 
3750.000000	99.015046 
3749.000000	99.013360 
3748.000000	99.015684 
3747.000000	99.017972 
3746.000000	99.018401 
3745.000000	99.019956 
3744.000000	99.024671 
3743.000000	99.028887 
3742.000000	99.028110 
3741.000000	99.023020 
3740.000000	99.017768 
3739.000000	99.015119 
3738.000000	99.015101 
3737.000000	99.017721 
3736.000000	99.023785 
3735.000000	99.032311 
3734.000000	99.039636 
3733.000000	99.043028 
3732.000000	99.043004 
3731.000000	99.041082 
3730.000000	99.037534 
3729.000000	99.032384 
3728.000000	99.027508 
3727.000000	99.025544 
3726.000000	99.026651 
3725.000000	99.028476 
3724.000000	99.029788 
3723.000000	99.031622 
3722.000000	99.034677 
3721.000000	99.038053 
3720.000000	99.040092 
3719.000000	99.039886 
3718.000000	99.038051 
3717.000000	99.035711 
3716.000000	99.032997 
3715.000000	99.029355 
3714.000000	99.025047 
3713.000000	99.021609 
3712.000000	99.020199 
3711.000000	99.020776 
3710.000000	99.022659 
3709.000000	99.024970 
3708.000000	99.026934 
3707.000000	99.028035 
3706.000000	99.028085 
3705.000000	99.027491 
3704.000000	99.027176 
3703.000000	99.027529 
3702.000000	99.027294 
3701.000000	99.024708 
3700.000000	99.019427 
3699.000000	99.012755 
3698.000000	99.006835 
3697.000000	99.003219 
3696.000000	99.001500 
3695.000000	98.999762 
3694.000000	98.996984 
3693.000000	98.994152 
3692.000000	98.992573 
3691.000000	98.992143 
3690.000000	98.991469 
3689.000000	98.989907 
3688.000000	98.988497 
3687.000000	98.987663 
3686.000000	98.985937 
3685.000000	98.982430 
3684.000000	98.978120 
3683.000000	98.974409 
3682.000000	98.971479 
3681.000000	98.968695 
3680.000000	98.965596 
3679.000000	98.961352 
3678.000000	98.955245 
3677.000000	98.948732 
3676.000000	98.944841 
3675.000000	98.944021 
3674.000000	98.943480 
3673.000000	98.940631 
3672.000000	98.935900 
3671.000000	98.932392 
3670.000000	98.931360 
3669.000000	98.930328 
3668.000000	98.927624 
3667.000000	98.924558 
3666.000000	98.922895 
3665.000000	98.922889 
3664.000000	98.923008 
3663.000000	98.921384 
3662.000000	98.917381 
3661.000000	98.911637 
3660.000000	98.904983 
3659.000000	98.897803 
3658.000000	98.890792 
3657.000000	98.885008 
3656.000000	98.880805 
3655.000000	98.877156 
3654.000000	98.872555 
3653.000000	98.866703 
3652.000000	98.861081 
3651.000000	98.857040 
3650.000000	98.853548 
3649.000000	98.849225 
3648.000000	98.845591 
3647.000000	98.844396 
3646.000000	98.844928 
3645.000000	98.845918 
3644.000000	98.847182 
3643.000000	98.848834 
3642.000000	98.850147 
3641.000000	98.849701 
3640.000000	98.846943 
3639.000000	98.842928 
3638.000000	98.838994 
3637.000000	98.835200 
3636.000000	98.830828 
3635.000000	98.825976 
3634.000000	98.821445 
3633.000000	98.817072 
3632.000000	98.811766 
3631.000000	98.805680 
3630.000000	98.801105 
3629.000000	98.799524 
3628.000000	98.799508 
3627.000000	98.799442 
3626.000000	98.799356 
3625.000000	98.800189 
3624.000000	98.802553 
3623.000000	98.806042 
3622.000000	98.809582 
3621.000000	98.812188 
3620.000000	98.812452 
3619.000000	98.808852 
3618.000000	98.802003 
3617.000000	98.795098 
3616.000000	98.791177 
3615.000000	98.791235 
3614.000000	98.794003 
3613.000000	98.796684 
3612.000000	98.797067 
3611.000000	98.795108 
3610.000000	98.792522 
3609.000000	98.791234 
3608.000000	98.791694 
3607.000000	98.792956 
3606.000000	98.794338 
3605.000000	98.796178 
3604.000000	98.799045 
3603.000000	98.802679 
3602.000000	98.805890 
3601.000000	98.807607 
3600.000000	98.807545 
3599.000000	98.806257 
3598.000000	98.805001 
3597.000000	98.804913 
3596.000000	98.806066 
3595.000000	98.807431 
3594.000000	98.807734 
3593.000000	98.806553 
3592.000000	98.804558 
3591.000000	98.802763 
3590.000000	98.802070 
3589.000000	98.803080 
3588.000000	98.805607 
3587.000000	98.808421 
3586.000000	98.810394 
3585.000000	98.811489 
3584.000000	98.812472 
3583.000000	98.813962 
3582.000000	98.815987 
3581.000000	98.817986 
3580.000000	98.819274 
3579.000000	98.819583 
3578.000000	98.819242 
3577.000000	98.818850 
3576.000000	98.818636 
3575.000000	98.818336 
3574.000000	98.817649 
3573.000000	98.816636 
3572.000000	98.815656 
3571.000000	98.814993 
3570.000000	98.814817 
3569.000000	98.815495 
3568.000000	98.817312 
3567.000000	98.819700 
3566.000000	98.821525 
3565.000000	98.822283 
3564.000000	98.822324 
3563.000000	98.822196 
3562.000000	98.822116 
3561.000000	98.821951 
3560.000000	98.821579 
3559.000000	98.821099 
3558.000000	98.820800 
3557.000000	98.820975 
3556.000000	98.821726 
3555.000000	98.822886 
3554.000000	98.824166 
3553.000000	98.825265 
3552.000000	98.825870 
3551.000000	98.825740 
3550.000000	98.824963 
3549.000000	98.824092 
3548.000000	98.823751 
3547.000000	98.823929 
3546.000000	98.823953 
3545.000000	98.823291 
3544.000000	98.822224 
3543.000000	98.821522 
3542.000000	98.821598 
3541.000000	98.822247 
3540.000000	98.823051 
3539.000000	98.823774 
3538.000000	98.824405 
3537.000000	98.824904 
3536.000000	98.825093 
3535.000000	98.824798 
3534.000000	98.824038 
3533.000000	98.823124 
3532.000000	98.822496 
3531.000000	98.822393 
3530.000000	98.822596 
3529.000000	98.822549 
3528.000000	98.821863 
3527.000000	98.820637 
3526.000000	98.819343 
3525.000000	98.818436 
3524.000000	98.818052 
3523.000000	98.818053 
3522.000000	98.818217 
3521.000000	98.818374 
3520.000000	98.818423 
3519.000000	98.818295 
3518.000000	98.817968 
3517.000000	98.817466 
3516.000000	98.816841 
3515.000000	98.816172 
3514.000000	98.815565 
3513.000000	98.815129 
3512.000000	98.814891 
3511.000000	98.814726 
3510.000000	98.814408 
3509.000000	98.813821 
3508.000000	98.813083 
3507.000000	98.812442 
3506.000000	98.812034 
3505.000000	98.811763 
3504.000000	98.811370 
3503.000000	98.810691 
3502.000000	98.809876 
3501.000000	98.809280 
3500.000000	98.809123 
3499.000000	98.809288 
3498.000000	98.809396 
3497.000000	98.809131 
3496.000000	98.808458 
3495.000000	98.807657 
3494.000000	98.807150 
3493.000000	98.807175 
3492.000000	98.807576 
3491.000000	98.807931 
3490.000000	98.808016 
3489.000000	98.808069 
3488.000000	98.808407 
3487.000000	98.808848 
3486.000000	98.808842 
3485.000000	98.808225 
3484.000000	98.807535 
3483.000000	98.807404 
3482.000000	98.807858 
3481.000000	98.808402 
3480.000000	98.808620 
3479.000000	98.808419 
3478.000000	98.807790 
3477.000000	98.806698 
3476.000000	98.805282 
3475.000000	98.803957 
3474.000000	98.803204 
3473.000000	98.803225 
3472.000000	98.803781 
3471.000000	98.804358 
3470.000000	98.804574 
3469.000000	98.804537 
3468.000000	98.804801 
3467.000000	98.805823 
3466.000000	98.807469 
3465.000000	98.809054 
3464.000000	98.809824 
3463.000000	98.809419 
3462.000000	98.808025 
3461.000000	98.806310 
3460.000000	98.805034 
3459.000000	98.804367 
3458.000000	98.803672 
3457.000000	98.802146 
3456.000000	98.799731 
3455.000000	98.797308 
3454.000000	98.795935 
3453.000000	98.795990 
3452.000000	98.797082 
3451.000000	98.798446 
3450.000000	98.799378 
3449.000000	98.799453 
3448.000000	98.798541 
3447.000000	98.796812 
3446.000000	98.794685 
3445.000000	98.792659 
3444.000000	98.791134 
3443.000000	98.790302 
3442.000000	98.790115 
3441.000000	98.790304 
3440.000000	98.790512 
3439.000000	98.790467 
3438.000000	98.790047 
3437.000000	98.789260 
3436.000000	98.788273 
3435.000000	98.787395 
3434.000000	98.786863 
3433.000000	98.786626 
3432.000000	98.786392 
3431.000000	98.785997 
3430.000000	98.785613 
3429.000000	98.785474 
3428.000000	98.785497 
3427.000000	98.785348 
3426.000000	98.784914 
3425.000000	98.784469 
3424.000000	98.784270 
3423.000000	98.784135 
3422.000000	98.783637 
3421.000000	98.782631 
3420.000000	98.781445 
3419.000000	98.780593 
3418.000000	98.780315 
3417.000000	98.780460 
3416.000000	98.780677 
3415.000000	98.780680 
3414.000000	98.780301 
3413.000000	98.779448 
3412.000000	98.778192 
3411.000000	98.776867 
3410.000000	98.775941 
3409.000000	98.775698 
3408.000000	98.776094 
3407.000000	98.776817 
3406.000000	98.777516 
3405.000000	98.778039 
3404.000000	98.778422 
3403.000000	98.778624 
3402.000000	98.778328 
3401.000000	98.777240 
3400.000000	98.775556 
3399.000000	98.773908 
3398.000000	98.772688 
3397.000000	98.771658 
3396.000000	98.770421 
3395.000000	98.769105 
3394.000000	98.768306 
3393.000000	98.768327 
3392.000000	98.768787 
3391.000000	98.769016 
3390.000000	98.768709 
3389.000000	98.768048 
3388.000000	98.767397 
3387.000000	98.767041 
3386.000000	98.767016 
3385.000000	98.766959 
3384.000000	98.766224 
3383.000000	98.764477 
3382.000000	98.762271 
3381.000000	98.760707 
3380.000000	98.760277 
3379.000000	98.760389 
3378.000000	98.760246 
3377.000000	98.760054 
3376.000000	98.760745 
3375.000000	98.762503 
3374.000000	98.764218 
3373.000000	98.764651 
3372.000000	98.763845 
3371.000000	98.763008 
3370.000000	98.763075 
3369.000000	98.763724 
3368.000000	98.763971 
3367.000000	98.763439 
3366.000000	98.762771 
3365.000000	98.762855 
3364.000000	98.763904 
3363.000000	98.765320 
3362.000000	98.766190 
3361.000000	98.765867 
3360.000000	98.764307 
3359.000000	98.762140 
3358.000000	98.760316 
3357.000000	98.759387 
3356.000000	98.759110 
3355.000000	98.758895 
3354.000000	98.758687 
3353.000000	98.759186 
3352.000000	98.761087 
3351.000000	98.764293 
3350.000000	98.767838 
3349.000000	98.770463 
3348.000000	98.771450 
3347.000000	98.771156 
3346.000000	98.770815 
3345.000000	98.771521 
3344.000000	98.773047 
3343.000000	98.773956 
3342.000000	98.773104 
3341.000000	98.770818 
3340.000000	98.768419 
3339.000000	98.766668 
3338.000000	98.765206 
3337.000000	98.763481 
3336.000000	98.761715 
3335.000000	98.760744 
3334.000000	98.761119 
3333.000000	98.762600 
3332.000000	98.764411 
3331.000000	98.765835 
3330.000000	98.766562 
3329.000000	98.766629 
3328.000000	98.766225 
3327.000000	98.765585 
3326.000000	98.764980 
3325.000000	98.764589 
3324.000000	98.764311 
3323.000000	98.763809 
3322.000000	98.762822 
3321.000000	98.761466 
3320.000000	98.760178 
3319.000000	98.759400 
3318.000000	98.759341 
3317.000000	98.759931 
3316.000000	98.760888 
3315.000000	98.761812 
3314.000000	98.762365 
3313.000000	98.762477 
3312.000000	98.762386 
3311.000000	98.762461 
3310.000000	98.762905 
3309.000000	98.763593 
3308.000000	98.764123 
3307.000000	98.764114 
3306.000000	98.763527 
3305.000000	98.762660 
3304.000000	98.761933 
3303.000000	98.761584 
3302.000000	98.761572 
3301.000000	98.761716 
3300.000000	98.761811 
3299.000000	98.761752 
3298.000000	98.761559 
3297.000000	98.761324 
3296.000000	98.761149 
3295.000000	98.761069 
3294.000000	98.761058 
3293.000000	98.761071 
3292.000000	98.761071 
3291.000000	98.761041 
3290.000000	98.760974 
3289.000000	98.760878 
3288.000000	98.760776 
3287.000000	98.760689 
3286.000000	98.760613 
3285.000000	98.760532 
3284.000000	98.760440 
3283.000000	98.760354 
3282.000000	98.760291 
3281.000000	98.760253 
3280.000000	98.760228 
3279.000000	98.760200 
3278.000000	98.760166 
3277.000000	98.760136 
3276.000000	98.760116 
3275.000000	98.760108 
3274.000000	98.760107 
3273.000000	98.760109 
3272.000000	98.760119 
3271.000000	98.760148 
3270.000000	98.760199 
3269.000000	98.760262 
3268.000000	98.760326 
3267.000000	98.760384 
3266.000000	98.760445 
3265.000000	98.760540 
3264.000000	98.760702 
3263.000000	98.760932 
3262.000000	98.761177 
3261.000000	98.761381 
3260.000000	98.761540 
3259.000000	98.761674 
3258.000000	98.761764 
3257.000000	98.761814 
3256.000000	98.761920 
3255.000000	98.762161 
3254.000000	98.762446 
3253.000000	98.762625 
3252.000000	98.762720 
3251.000000	98.762944 
3250.000000	98.763434 
3249.000000	98.764089 
3248.000000	98.764664 
3247.000000	98.765014 
3246.000000	98.765174 
3245.000000	98.765259 
3244.000000	98.765342 
3243.000000	98.765422 
3242.000000	98.765470 
3241.000000	98.765468 
3240.000000	98.765462 
3239.000000	98.765587 
3238.000000	98.766005 
3237.000000	98.766764 
3236.000000	98.767758 
3235.000000	98.768747 
3234.000000	98.769467 
3233.000000	98.769770 
3232.000000	98.769693 
3231.000000	98.769486 
3230.000000	98.769457 
3229.000000	98.769724 
3228.000000	98.770180 
3227.000000	98.770650 
3226.000000	98.771074 
3225.000000	98.771477 
3224.000000	98.771795 
3223.000000	98.771892 
3222.000000	98.771770 
3221.000000	98.771650 
3220.000000	98.771775 
3219.000000	98.772200 
3218.000000	98.772784 
3217.000000	98.773299 
3216.000000	98.773535 
3215.000000	98.773407 
3214.000000	98.773097 
3213.000000	98.773000 
3212.000000	98.773384 
3211.000000	98.774094 
3210.000000	98.774695 
3209.000000	98.774904 
3208.000000	98.774763 
3207.000000	98.774420 
3206.000000	98.773954 
3205.000000	98.773493 
3204.000000	98.773332 
3203.000000	98.773712 
3202.000000	98.774484 
3201.000000	98.775161 
3200.000000	98.775451 
3199.000000	98.775675 
3198.000000	98.776435 
3197.000000	98.777771 
3196.000000	98.778859 
3195.000000	98.778800 
3194.000000	98.777671 
3193.000000	98.776521 
3192.000000	98.776271 
3191.000000	98.776921 
3190.000000	98.777870 
3189.000000	98.778709 
3188.000000	98.779485 
3187.000000	98.780495 
3186.000000	98.782016 
3185.000000	98.783956 
3184.000000	98.785725 
3183.000000	98.786782 
3182.000000	98.787274 
3181.000000	98.787805 
3180.000000	98.788633 
3179.000000	98.789499 
3178.000000	98.790280 
3177.000000	98.791299 
3176.000000	98.792791 
3175.000000	98.794485 
3174.000000	98.795951 
3173.000000	98.797044 
3172.000000	98.797752 
3171.000000	98.797967 
3170.000000	98.797732 
3169.000000	98.797488 
3168.000000	98.797707 
3167.000000	98.798389 
3166.000000	98.799151 
3165.000000	98.799692 
3164.000000	98.799983 
3163.000000	98.800131 
3162.000000	98.800297 
3161.000000	98.800687 
3160.000000	98.801429 
3159.000000	98.802449 
3158.000000	98.803535 
3157.000000	98.804518 
3156.000000	98.805332 
3155.000000	98.805958 
3154.000000	98.806425 
3153.000000	98.806853 
3152.000000	98.807366 
3151.000000	98.807942 
3150.000000	98.808444 
3149.000000	98.808801 
3148.000000	98.809085 
3147.000000	98.809453 
3146.000000	98.810017 
3145.000000	98.810768 
3144.000000	98.811595 
3143.000000	98.812336 
3142.000000	98.812899 
3141.000000	98.813301 
3140.000000	98.813652 
3139.000000	98.814087 
3138.000000	98.814655 
3137.000000	98.815305 
3136.000000	98.815915 
3135.000000	98.816371 
3134.000000	98.816652 
3133.000000	98.816886 
3132.000000	98.817271 
3131.000000	98.817890 
3130.000000	98.818654 
3129.000000	98.819443 
3128.000000	98.820255 
3127.000000	98.821156 
3126.000000	98.822139 
3125.000000	98.823090 
3124.000000	98.823881 
3123.000000	98.824472 
3122.000000	98.824933 
3121.000000	98.825412 
3120.000000	98.826032 
3119.000000	98.826795 
3118.000000	98.827601 
3117.000000	98.828366 
3116.000000	98.829066 
3115.000000	98.829659 
3114.000000	98.830056 
3113.000000	98.830256 
3112.000000	98.830475 
3111.000000	98.831033 
3110.000000	98.832084 
3109.000000	98.833461 
3108.000000	98.834764 
3107.000000	98.835665 
3106.000000	98.836100 
3105.000000	98.836183 
3104.000000	98.835980 
3103.000000	98.835535 
3102.000000	98.835096 
3101.000000	98.835008 
3100.000000	98.835371 
3099.000000	98.835982 
3098.000000	98.836714 
3097.000000	98.837720 
3096.000000	98.839012 
3095.000000	98.840165 
3094.000000	98.840752 
3093.000000	98.840825 
3092.000000	98.840813 
3091.000000	98.841016 
3090.000000	98.841412 
3089.000000	98.841865 
3088.000000	98.842281 
3087.000000	98.842627 
3086.000000	98.842977 
3085.000000	98.843484 
3084.000000	98.844180 
3083.000000	98.844866 
3082.000000	98.845335 
3081.000000	98.845671 
3080.000000	98.846150 
3079.000000	98.846880 
3078.000000	98.847639 
3077.000000	98.848174 
3076.000000	98.848522 
3075.000000	98.848856 
3074.000000	98.849087 
3073.000000	98.848975 
3072.000000	98.848639 
3071.000000	98.848587 
3070.000000	98.849157 
3069.000000	98.850228 
3068.000000	98.851469 
3067.000000	98.852630 
3066.000000	98.853476 
3065.000000	98.853736 
3064.000000	98.853311 
3063.000000	98.852382 
3062.000000	98.851244 
3061.000000	98.850180 
3060.000000	98.849479 
3059.000000	98.849406 
3058.000000	98.850101 
3057.000000	98.851570 
3056.000000	98.853568 
3055.000000	98.855308 
3054.000000	98.855690 
3053.000000	98.854244 
3052.000000	98.851895 
3051.000000	98.850371 
3050.000000	98.850480 
3049.000000	98.851543 
3048.000000	98.852467 
3047.000000	98.852925 
3046.000000	98.853133 
3045.000000	98.853002 
3044.000000	98.852196 
3043.000000	98.850927 
3042.000000	98.850090 
3041.000000	98.850342 
3040.000000	98.851329 
3039.000000	98.852051 
3038.000000	98.851941 
3037.000000	98.851262 
3036.000000	98.850401 
3035.000000	98.849099 
3034.000000	98.846743 
3033.000000	98.843316 
3032.000000	98.839615 
3031.000000	98.836471 
3030.000000	98.834122 
3029.000000	98.832416 
3028.000000	98.831082 
3027.000000	98.829536 
3026.000000	98.827007 
3025.000000	98.823440 
3024.000000	98.819964 
3023.000000	98.817851 
3022.000000	98.817210 
3021.000000	98.817301 
3020.000000	98.817799 
3019.000000	98.818848 
3018.000000	98.819828 
3017.000000	98.819150 
3016.000000	98.815895 
3015.000000	98.811079 
3014.000000	98.806936 
3013.000000	98.804960 
3012.000000	98.804818 
3011.000000	98.804721 
3010.000000	98.802707 
3009.000000	98.798066 
3008.000000	98.791933 
3007.000000	98.786444 
3006.000000	98.782845 
3005.000000	98.780684 
3004.000000	98.778840 
3003.000000	98.776956 
3002.000000	98.775638 
3001.000000	98.775533 
3000.000000	98.776482 
2999.000000	98.777367 
2998.000000	98.776663 
2997.000000	98.773488 
2996.000000	98.768410 
2995.000000	98.763118 
2994.000000	98.759031 
2993.000000	98.756331 
2992.000000	98.754324 
2991.000000	98.752375 
2990.000000	98.750344 
2989.000000	98.748470 
2988.000000	98.747146 
2987.000000	98.746591 
2986.000000	98.746639 
2985.000000	98.747042 
2984.000000	98.747973 
2983.000000	98.749837 
2982.000000	98.752539 
2981.000000	98.755271 
2980.000000	98.757052 
2979.000000	98.757130 
2978.000000	98.755057 
2977.000000	98.751195 
2976.000000	98.747255 
2975.000000	98.745409 
2974.000000	98.746407 
2973.000000	98.749087 
2972.000000	98.751943 
2971.000000	98.754517 
2970.000000	98.756679 
2969.000000	98.757690 
2968.000000	98.757065 
2967.000000	98.755808 
2966.000000	98.755662 
2965.000000	98.757245 
2964.000000	98.759750 
2963.000000	98.762259 
2962.000000	98.764529 
2961.000000	98.766545 
2960.000000	98.768180 
2959.000000	98.769550 
2958.000000	98.771120 
2957.000000	98.773121 
2956.000000	98.775152 
2955.000000	98.776497 
2954.000000	98.776736 
2953.000000	98.776183 
2952.000000	98.775986 
2951.000000	98.777484 
2950.000000	98.780832 
2949.000000	98.784342 
2948.000000	98.785843 
2947.000000	98.784755 
2946.000000	98.782438 
2945.000000	98.780559 
2944.000000	98.779600 
2943.000000	98.779099 
2942.000000	98.778567 
2941.000000	98.777656 
2940.000000	98.776090 
2939.000000	98.774156 
2938.000000	98.772925 
2937.000000	98.773177 
2936.000000	98.774065 
2935.000000	98.773491 
2934.000000	98.770119 
2933.000000	98.764710 
2932.000000	98.759541 
2931.000000	98.756597 
2930.000000	98.756331 
2929.000000	98.757773 
2928.000000	98.759309 
2927.000000	98.759603 
2926.000000	98.758230 
2925.000000	98.755878 
2924.000000	98.753969 
2923.000000	98.753736 
2922.000000	98.755246 
2921.000000	98.757230 
2920.000000	98.758194 
2919.000000	98.757920 
2918.000000	98.757619 
2917.000000	98.758395 
2916.000000	98.759860 
2915.000000	98.760639 
2914.000000	98.760150 
2913.000000	98.759289 
2912.000000	98.759207 
2911.000000	98.759822 
2910.000000	98.760035 
2909.000000	98.759266 
2908.000000	98.758285 
2907.000000	98.758351 
2906.000000	98.759770 
2905.000000	98.761493 
2904.000000	98.762031 
2903.000000	98.760801 
2902.000000	98.758657 
2901.000000	98.757374 
2900.000000	98.758009 
2899.000000	98.760346 
2898.000000	98.763374 
2897.000000	98.766241 
2896.000000	98.768544 
2895.000000	98.769987 
2894.000000	98.770463 
2893.000000	98.770627 
2892.000000	98.771715 
2891.000000	98.774248 
2890.000000	98.777258 
2889.000000	98.779343 
2888.000000	98.780267 
2887.000000	98.780902 
2886.000000	98.781781 
2885.000000	98.782575 
2884.000000	98.783202 
2883.000000	98.784493 
2882.000000	98.787042 
2881.000000	98.790060 
2880.000000	98.792278 
2879.000000	98.793844 
2878.000000	98.796270 
2877.000000	98.800376 
2876.000000	98.805100 
2875.000000	98.808760 
2874.000000	98.810790 
2873.000000	98.811658 
2872.000000	98.811793 
2871.000000	98.811431 
2870.000000	98.811161 
2869.000000	98.811669 
2868.000000	98.812886 
2867.000000	98.814017 
2866.000000	98.814500 
2865.000000	98.814431 
2864.000000	98.814091 
2863.000000	98.813728 
2862.000000	98.813960 
2861.000000	98.815637 
2860.000000	98.818784 
2859.000000	98.822192 
2858.000000	98.824685 
2857.000000	98.826452 
2856.000000	98.828648 
2855.000000	98.831858 
2854.000000	98.835401 
2853.000000	98.838097 
2852.000000	98.839380 
2851.000000	98.839598 
2850.000000	98.839593 
2849.000000	98.840056 
2848.000000	98.841096 
2847.000000	98.842320 
2846.000000	98.843331 
2845.000000	98.844140 
2844.000000	98.845103 
2843.000000	98.846581 
2842.000000	98.848703 
2841.000000	98.851290 
2840.000000	98.853841 
2839.000000	98.855726 
2838.000000	98.856660 
2837.000000	98.856936 
2836.000000	98.857126 
2835.000000	98.857635 
2834.000000	98.858639 
2833.000000	98.860295 
2832.000000	98.862701 
2831.000000	98.865594 
2830.000000	98.868339 
2829.000000	98.870347 
2828.000000	98.871499 
2827.000000	98.872185 
2826.000000	98.873009 
2825.000000	98.874330 
2824.000000	98.875980 
2823.000000	98.877431 
2822.000000	98.878300 
2821.000000	98.878662 
2820.000000	98.878818 
2819.000000	98.878892 
2818.000000	98.878853 
2817.000000	98.878860 
2816.000000	98.879277 
2815.000000	98.880292 
2814.000000	98.881638 
2813.000000	98.882766 
2812.000000	98.883290 
2811.000000	98.883250 
2810.000000	98.883043 
2809.000000	98.883122 
2808.000000	98.883693 
2807.000000	98.884659 
2806.000000	98.885780 
2805.000000	98.886841 
2804.000000	98.887692 
2803.000000	98.888254 
2802.000000	98.888586 
2801.000000	98.888936 
2800.000000	98.889557 
2799.000000	98.890441 
2798.000000	98.891274 
2797.000000	98.891739 
2796.000000	98.891814 
2795.000000	98.891751 
2794.000000	98.891838 
2793.000000	98.892164 
2792.000000	98.892659 
2791.000000	98.893210 
2790.000000	98.893726 
2789.000000	98.894157 
2788.000000	98.894499 
2787.000000	98.894802 
2786.000000	98.895153 
2785.000000	98.895614 
2784.000000	98.896173 
2783.000000	98.896753 
2782.000000	98.897273 
2781.000000	98.897710 
2780.000000	98.898131 
2779.000000	98.898642 
2778.000000	98.899293 
2777.000000	98.900023 
2776.000000	98.900687 
2775.000000	98.901183 
2774.000000	98.901541 
2773.000000	98.901874 
2772.000000	98.902233 
2771.000000	98.902590 
2770.000000	98.902972 
2769.000000	98.903517 
2768.000000	98.904319 
2767.000000	98.905281 
2766.000000	98.906167 
2765.000000	98.906817 
2764.000000	98.907255 
2763.000000	98.907589 
2762.000000	98.907869 
2761.000000	98.908095 
2760.000000	98.908311 
2759.000000	98.908626 
2758.000000	98.909094 
2757.000000	98.909605 
2756.000000	98.909945 
2755.000000	98.910048 
2754.000000	98.910135 
2753.000000	98.910531 
2752.000000	98.911309 
2751.000000	98.912200 
2750.000000	98.912890 
2749.000000	98.913349 
2748.000000	98.913702 
2747.000000	98.913883 
2746.000000	98.913700 
2745.000000	98.913215 
2744.000000	98.912797 
2743.000000	98.912734 
2742.000000	98.912984 
2741.000000	98.913306 
2740.000000	98.913531 
2739.000000	98.913666 
2738.000000	98.913776 
2737.000000	98.913900 
2736.000000	98.914064 
2735.000000	98.914280 
2734.000000	98.914508 
2733.000000	98.914680 
2732.000000	98.914772 
2731.000000	98.914843 
2730.000000	98.914968 
2729.000000	98.915154 
2728.000000	98.915331 
2727.000000	98.915416 
2726.000000	98.915396 
2725.000000	98.915327 
2724.000000	98.915280 
2723.000000	98.915270 
2722.000000	98.915280 
2721.000000	98.915300 
2720.000000	98.915332 
2719.000000	98.915381 
2718.000000	98.915443 
2717.000000	98.915516 
2716.000000	98.915595 
2715.000000	98.915676 
2714.000000	98.915761 
2713.000000	98.915853 
2712.000000	98.915957 
2711.000000	98.916069 
2710.000000	98.916185 
2709.000000	98.916306 
2708.000000	98.916438 
2707.000000	98.916586 
2706.000000	98.916753 
2705.000000	98.916937 
2704.000000	98.917132 
2703.000000	98.917333 
2702.000000	98.917532 
2701.000000	98.917726 
2700.000000	98.917915 
2699.000000	98.918101 
2698.000000	98.918283 
2697.000000	98.918459 
2696.000000	98.918622 
2695.000000	98.918771 
2694.000000	98.918908 
2693.000000	98.919036 
2692.000000	98.919157 
2691.000000	98.919274 
2690.000000	98.919386 
2689.000000	98.919494 
2688.000000	98.919598 
2687.000000	98.919694 
2686.000000	98.919780 
2685.000000	98.919865 
2684.000000	98.919963 
2683.000000	98.920076 
2682.000000	98.920185 
2681.000000	98.920273 
2680.000000	98.920355 
2679.000000	98.920469 
2678.000000	98.920639 
2677.000000	98.920883 
2676.000000	98.921196 
2675.000000	98.921473 
2674.000000	98.921530 
2673.000000	98.921295 
2672.000000	98.921007 
2671.000000	98.920991 
2670.000000	98.921248 
2669.000000	98.921430 
2668.000000	98.921306 
2667.000000	98.921032 
2666.000000	98.920866 
2665.000000	98.920753 
2664.000000	98.920453 
2663.000000	98.919969 
2662.000000	98.919599 
2661.000000	98.919536 
2660.000000	98.919636 
2659.000000	98.919635 
2658.000000	98.919462 
2657.000000	98.919246 
2656.000000	98.919107 
2655.000000	98.918989 
2654.000000	98.918672 
2653.000000	98.917962 
2652.000000	98.916955 
2651.000000	98.916096 
2650.000000	98.915849 
2649.000000	98.916253 
2648.000000	98.916864 
2647.000000	98.917167 
2646.000000	98.916959 
2645.000000	98.916329 
2644.000000	98.915457 
2643.000000	98.914576 
2642.000000	98.913989 
2641.000000	98.913918 
2640.000000	98.914354 
2639.000000	98.915116 
2638.000000	98.915990 
2637.000000	98.916706 
2636.000000	98.916945 
2635.000000	98.916664 
2634.000000	98.916316 
2633.000000	98.916382 
2632.000000	98.916617 
2631.000000	98.916224 
2630.000000	98.914904 
2629.000000	98.913225 
2628.000000	98.911919 
2627.000000	98.911124 
2626.000000	98.910590 
2625.000000	98.910259 
2624.000000	98.910253 
2623.000000	98.910467 
2622.000000	98.910502 
2621.000000	98.909997 
2620.000000	98.908850 
2619.000000	98.907214 
2618.000000	98.905512 
2617.000000	98.904329 
2616.000000	98.903988 
2615.000000	98.904257 
2614.000000	98.904535 
2613.000000	98.904452 
2612.000000	98.904121 
2611.000000	98.903809 
2610.000000	98.903635 
2609.000000	98.903579 
2608.000000	98.903517 
2607.000000	98.903240 
2606.000000	98.902649 
2605.000000	98.901957 
2604.000000	98.901477 
2603.000000	98.901187 
2602.000000	98.900759 
2601.000000	98.900085 
2600.000000	98.899484 
2599.000000	98.899220 
2598.000000	98.899121 
2597.000000	98.898882 
2596.000000	98.898456 
2595.000000	98.897910 
2594.000000	98.897197 
2593.000000	98.896400 
2592.000000	98.895958 
2591.000000	98.896191 
2590.000000	98.896717 
2589.000000	98.896718 
2588.000000	98.895884 
2587.000000	98.894714 
2586.000000	98.893923 
2585.000000	98.893812 
2584.000000	98.894317 
2583.000000	98.895204 
2582.000000	98.896007 
2581.000000	98.896205 
2580.000000	98.895772 
2579.000000	98.895272 
2578.000000	98.895263 
2577.000000	98.895687 
2576.000000	98.895989 
2575.000000	98.895613 
2574.000000	98.894340 
2573.000000	98.892495 
2572.000000	98.890827 
2571.000000	98.889825 
2570.000000	98.889147 
2569.000000	98.888063 
2568.000000	98.886466 
2567.000000	98.885004 
2566.000000	98.884083 
2565.000000	98.883303 
2564.000000	98.882192 
2563.000000	98.881003 
2562.000000	98.880351 
2561.000000	98.880420 
2560.000000	98.881031 
2559.000000	98.882115 
2558.000000	98.883489 
2557.000000	98.884393 
2556.000000	98.883994 
2555.000000	98.882381 
2554.000000	98.880574 
2553.000000	98.879319 
2552.000000	98.878423 
2551.000000	98.877544 
2550.000000	98.876948 
2549.000000	98.876922 
2548.000000	98.876890 
2547.000000	98.875882 
2546.000000	98.873817 
2545.000000	98.871710 
2544.000000	98.870353 
2543.000000	98.869338 
2542.000000	98.867851 
2541.000000	98.866100 
2540.000000	98.865269 
2539.000000	98.865983 
2538.000000	98.867550 
2537.000000	98.868660 
2536.000000	98.868793 
2535.000000	98.868451 
2534.000000	98.868199 
2533.000000	98.867891 
2532.000000	98.867051 
2531.000000	98.865732 
2530.000000	98.864551 
2529.000000	98.863853 
2528.000000	98.863250 
2527.000000	98.862255 
2526.000000	98.861115 
2525.000000	98.860580 
2524.000000	98.860938 
2523.000000	98.861700 
2522.000000	98.862200 
2521.000000	98.862273 
2520.000000	98.862185 
2519.000000	98.862194 
2518.000000	98.862298 
2517.000000	98.862262 
2516.000000	98.861798 
2515.000000	98.860840 
2514.000000	98.859764 
2513.000000	98.859204 
2512.000000	98.859449 
2511.000000	98.860255 
2510.000000	98.861164 
2509.000000	98.861935 
2508.000000	98.862502 
2507.000000	98.862712 
2506.000000	98.862453 
2505.000000	98.861984 
2504.000000	98.861788 
2503.000000	98.861981 
2502.000000	98.862151 
2501.000000	98.861897 
2500.000000	98.861290 
2499.000000	98.860692 
2498.000000	98.860323 
2497.000000	98.860139 
2496.000000	98.860039 
2495.000000	98.859977 
2494.000000	98.859878 
2493.000000	98.859622 
2492.000000	98.859229 
2491.000000	98.858982 
2490.000000	98.859190 
2489.000000	98.859807 
2488.000000	98.860310 
2487.000000	98.860162 
2486.000000	98.859352 
2485.000000	98.858430 
2484.000000	98.857973 
2483.000000	98.858055 
2482.000000	98.858301 
2481.000000	98.858314 
2480.000000	98.858012 
2479.000000	98.857593 
2478.000000	98.857373 
2477.000000	98.857560 
2476.000000	98.857957 
2475.000000	98.857908 
2474.000000	98.856785 
2473.000000	98.854611 
2472.000000	98.852078 
2471.000000	98.849899 
2470.000000	98.848436 
2469.000000	98.847867 
2468.000000	98.848172 
2467.000000	98.848926 
2466.000000	98.849490 
2465.000000	98.849618 
2464.000000	98.849674 
2463.000000	98.850140 
2462.000000	98.851137 
2461.000000	98.852468 
2460.000000	98.853833 
2459.000000	98.854876 
2458.000000	98.855252 
2457.000000	98.854817 
2456.000000	98.853621 
2455.000000	98.851774 
2454.000000	98.849532 
2453.000000	98.847358 
2452.000000	98.845616 
2451.000000	98.844319 
2450.000000	98.843503 
2449.000000	98.843594 
2448.000000	98.844886 
2447.000000	98.846701 
2446.000000	98.847660 
2445.000000	98.846988 
2444.000000	98.845131 
2443.000000	98.843191 
2442.000000	98.842018 
2441.000000	98.841820 
2440.000000	98.842219 
2439.000000	98.842652 
2438.000000	98.843021 
2437.000000	98.843848 
2436.000000	98.845430 
2435.000000	98.847089 
2434.000000	98.847781 
2433.000000	98.847351 
2432.000000	98.846656 
2431.000000	98.846557 
2430.000000	98.847232 
2429.000000	98.848430 
2428.000000	98.849724 
2427.000000	98.850405 
2426.000000	98.849759 
2425.000000	98.847719 
2424.000000	98.845237 
2423.000000	98.843475 
2422.000000	98.842705 
2421.000000	98.842530 
2420.000000	98.842848 
2419.000000	98.843890 
2418.000000	98.845599 
2417.000000	98.847802 
2416.000000	98.850443 
2415.000000	98.852868 
2414.000000	98.853752 
2413.000000	98.852792 
2412.000000	98.851583 
2411.000000	98.851463 
2410.000000	98.851567 
2409.000000	98.850517 
2408.000000	98.848898 
2407.000000	98.848388 
2406.000000	98.849125 
2405.000000	98.849588 
2404.000000	98.848726 
2403.000000	98.846797 
2402.000000	98.844538 
2401.000000	98.842952 
2400.000000	98.843457 
2399.000000	98.846667 
2398.000000	98.851135 
2397.000000	98.854588 
2396.000000	98.856232 
2395.000000	98.856697 
2394.000000	98.856293 
2393.000000	98.854925 
2392.000000	98.853397 
2391.000000	98.852940 
2390.000000	98.853252 
2389.000000	98.852520 
2388.000000	98.849664 
2387.000000	98.845251 
2386.000000	98.840246 
2385.000000	98.835417 
2384.000000	98.832163 
2383.000000	98.832296 
2382.000000	98.836623 
2381.000000	98.845060 
2380.000000	98.858200 
2379.000000	98.876690 
2378.000000	98.897657 
2377.000000	98.913741 
2376.000000	98.918566 
2375.000000	98.912054 
2374.000000	98.899205 
2373.000000	98.884468 
2372.000000	98.869564 
2371.000000	98.856817 
2370.000000	98.850242 
2369.000000	98.851306 
2368.000000	98.856071 
2367.000000	98.858941 
2366.000000	98.858677 
2365.000000	98.858489 
2364.000000	98.860616 
2363.000000	98.863130 
2362.000000	98.863142 
2361.000000	98.860443 
2360.000000	98.855928 
2359.000000	98.850151 
2358.000000	98.844919 
2357.000000	98.842955 
2356.000000	98.845135 
2355.000000	98.848738 
2354.000000	98.852318 
2353.000000	98.854684 
2352.000000	98.854114 
2351.000000	98.850251 
2350.000000	98.844614 
2349.000000	98.840053 
2348.000000	98.838288 
2347.000000	98.839332 
2346.000000	98.839564 
2345.000000	98.834742 
2344.000000	98.826889 
2343.000000	98.820699 
2342.000000	98.821483 
2341.000000	98.830557 
2340.000000	98.844184 
2339.000000	98.855148 
2338.000000	98.858922 
2337.000000	98.857741 
2336.000000	98.855610 
2335.000000	98.854460 
2334.000000	98.852546 
2333.000000	98.848335 
2332.000000	98.839564 
2331.000000	98.827076 
2330.000000	98.810912 
2329.000000	98.794145 
2328.000000	98.777798 
2327.000000	98.765976 
2326.000000	98.760886 
2325.000000	98.762129 
2324.000000	98.766487 
2323.000000	98.770853 
2322.000000	98.773927 
2321.000000	98.774633 
2320.000000	98.772591 
2319.000000	98.770931 
2318.000000	98.772368 
2317.000000	98.777785 
2316.000000	98.783271 
2315.000000	98.787069 
2314.000000	98.787802 
2313.000000	98.786804 
2312.000000	98.783249 
2311.000000	98.778665 
2310.000000	98.774016 
2309.000000	98.771039 
2308.000000	98.769091 
2307.000000	98.768677 
2306.000000	98.769476 
2305.000000	98.770809 
2304.000000	98.770742 
2303.000000	98.770157 
2302.000000	98.771261 
2301.000000	98.775962 
2300.000000	98.782151 
2299.000000	98.787004 
2298.000000	98.788060 
2297.000000	98.786057 
2296.000000	98.782537 
2295.000000	98.780359 
2294.000000	98.781218 
2293.000000	98.785395 
2292.000000	98.791196 
2291.000000	98.797285 
2290.000000	98.803604 
2289.000000	98.810438 
2288.000000	98.817043 
2287.000000	98.821913 
2286.000000	98.824433 
2285.000000	98.825218 
2284.000000	98.825479 
2283.000000	98.825772 
2282.000000	98.826227 
2281.000000	98.826654 
2280.000000	98.826538 
2279.000000	98.825042 
2278.000000	98.821932 
2277.000000	98.818238 
2276.000000	98.815705 
2275.000000	98.815564 
2274.000000	98.817781 
2273.000000	98.821511 
2272.000000	98.825642 
2271.000000	98.829087 
2270.000000	98.830996 
2269.000000	98.831311 
2268.000000	98.830901 
2267.000000	98.830795 
2266.000000	98.831174 
2265.000000	98.831462 
2264.000000	98.831202 
2263.000000	98.830444 
2262.000000	98.829362 
2261.000000	98.827993 
2260.000000	98.826520 
2259.000000	98.825268 
2258.000000	98.824406 
2257.000000	98.823901 
2256.000000	98.823913 
2255.000000	98.824752 
2254.000000	98.826221 
2253.000000	98.827348 
2252.000000	98.827147 
2251.000000	98.825520 
2250.000000	98.823075 
2249.000000	98.820552 
2248.000000	98.818480 
2247.000000	98.817224 
2246.000000	98.816813 
2245.000000	98.816779 
2244.000000	98.816417 
2243.000000	98.815417 
2242.000000	98.814050 
2241.000000	98.812911 
2240.000000	98.812397 
2239.000000	98.812448 
2238.000000	98.812678 
2237.000000	98.812679 
2236.000000	98.812330 
2235.000000	98.811774 
2234.000000	98.811231 
2233.000000	98.810809 
2232.000000	98.810473 
2231.000000	98.810152 
2230.000000	98.809804 
2229.000000	98.809389 
2228.000000	98.808886 
2227.000000	98.808336 
2226.000000	98.807800 
2225.000000	98.807286 
2224.000000	98.806762 
2223.000000	98.806237 
2222.000000	98.805755 
2221.000000	98.805332 
2220.000000	98.804944 
2219.000000	98.804569 
2218.000000	98.804194 
2217.000000	98.803823 
2216.000000	98.803473 
2215.000000	98.803154 
2214.000000	98.802863 
2213.000000	98.802592 
2212.000000	98.802346 
2211.000000	98.802146 
2210.000000	98.802020 
2209.000000	98.801972 
2208.000000	98.801984 
2207.000000	98.802022 
2206.000000	98.802065 
2205.000000	98.802098 
2204.000000	98.802109 
2203.000000	98.802083 
2202.000000	98.802012 
2201.000000	98.801894 
2200.000000	98.801727 
2199.000000	98.801500 
2198.000000	98.801213 
2197.000000	98.800874 
2196.000000	98.800498 
2195.000000	98.800103 
2194.000000	98.799707 
2193.000000	98.799328 
2192.000000	98.799009 
2191.000000	98.798776 
2190.000000	98.798566 
2189.000000	98.798267 
2188.000000	98.797862 
2187.000000	98.797433 
2186.000000	98.797011 
2185.000000	98.796514 
2184.000000	98.795926 
2183.000000	98.795478 
2182.000000	98.795469 
2181.000000	98.795959 
2180.000000	98.796503 
2179.000000	98.796544 
2178.000000	98.795915 
2177.000000	98.795015 
2176.000000	98.794415 
2175.000000	98.794361 
2174.000000	98.794878 
2173.000000	98.795940 
2172.000000	98.797425 
2171.000000	98.799133 
2170.000000	98.800846 
2169.000000	98.802202 
2168.000000	98.802658 
2167.000000	98.801945 
2166.000000	98.800588 
2165.000000	98.799440 
2164.000000	98.798617 
2163.000000	98.797613 
2162.000000	98.796602 
2161.000000	98.796682 
2160.000000	98.798186 
2159.000000	98.799699 
2158.000000	98.799826 
2157.000000	98.799157 
2156.000000	98.799134 
2155.000000	98.799954 
2154.000000	98.801038 
2153.000000	98.802656 
2152.000000	98.805455 
2151.000000	98.808746 
2150.000000	98.810727 
2149.000000	98.810806 
2148.000000	98.810576 
2147.000000	98.811880 
2146.000000	98.814615 
2145.000000	98.817276 
2144.000000	98.819184 
2143.000000	98.821101 
2142.000000	98.823588 
2141.000000	98.825777 
2140.000000	98.826457 
2139.000000	98.825889 
2138.000000	98.825797 
2137.000000	98.827318 
2136.000000	98.829474 
2135.000000	98.830083 
2134.000000	98.828082 
2133.000000	98.824561 
2132.000000	98.821998 
2131.000000	98.822023 
2130.000000	98.824413 
2129.000000	98.827676 
2128.000000	98.830371 
2127.000000	98.832157 
2126.000000	98.833560 
2125.000000	98.835223 
2124.000000	98.837348 
2123.000000	98.839529 
2122.000000	98.840964 
2121.000000	98.841037 
2120.000000	98.839869 
2119.000000	98.838302 
2118.000000	98.837341 
2117.000000	98.837527 
2116.000000	98.838698 
2115.000000	98.840078 
2114.000000	98.840693 
2113.000000	98.840120 
2112.000000	98.839025 
2111.000000	98.838722 
2110.000000	98.839865 
2109.000000	98.841774 
2108.000000	98.843354 
2107.000000	98.844398 
2106.000000	98.845390 
2105.000000	98.846494 
2104.000000	98.847577 
2103.000000	98.848817 
2102.000000	98.850210 
2101.000000	98.850654 
2100.000000	98.848930 
2099.000000	98.846061 
2098.000000	98.845190 
2097.000000	98.848117 
2096.000000	98.853376 
2095.000000	98.858140 
2094.000000	98.861312 
2093.000000	98.863428 
2092.000000	98.864651 
2091.000000	98.864865 
2090.000000	98.865216 
2089.000000	98.867501 
2088.000000	98.871647 
2087.000000	98.875277 
2086.000000	98.876475 
2085.000000	98.875866 
2084.000000	98.875541 
2083.000000	98.876579 
2082.000000	98.878370 
2081.000000	98.879959 
2080.000000	98.881350 
2079.000000	98.883367 
2078.000000	98.886435 
2077.000000	98.889576 
2076.000000	98.890939 
2075.000000	98.889763 
2074.000000	98.887533 
2073.000000	98.886296 
2072.000000	98.886231 
2071.000000	98.885814 
2070.000000	98.884124 
2069.000000	98.882117 
2068.000000	98.881411 
2067.000000	98.882443 
2066.000000	98.884195 
2065.000000	98.885149 
2064.000000	98.884349 
2063.000000	98.882099 
2062.000000	98.880111 
2061.000000	98.880418 
2060.000000	98.883568 
2059.000000	98.888423 
2058.000000	98.893024 
2057.000000	98.895895 
2056.000000	98.896750 
2055.000000	98.896234 
2054.000000	98.895542 
2053.000000	98.895643 
2052.000000	98.896551 
2051.000000	98.897496 
2050.000000	98.897831 
2049.000000	98.897678 
2048.000000	98.897565 
2047.000000	98.897706 
2046.000000	98.897948 
2045.000000	98.898209 
2044.000000	98.898592 
2043.000000	98.899113 
2042.000000	98.899607 
2041.000000	98.899945 
2040.000000	98.900189 
2039.000000	98.900471 
2038.000000	98.900790 
2037.000000	98.900998 
2036.000000	98.900976 
2035.000000	98.900760 
2034.000000	98.900491 
2033.000000	98.900286 
2032.000000	98.900129 
2031.000000	98.899922 
2030.000000	98.899574 
2029.000000	98.899095 
2028.000000	98.898545 
2027.000000	98.897968 
2026.000000	98.897372 
2025.000000	98.896765 
2024.000000	98.896169 
2023.000000	98.895607 
2022.000000	98.895085 
2021.000000	98.894573 
2020.000000	98.894004 
2019.000000	98.893314 
2018.000000	98.892474 
2017.000000	98.891499 
2016.000000	98.890428 
2015.000000	98.889299 
2014.000000	98.888134 
2013.000000	98.886954 
2012.000000	98.885787 
2011.000000	98.884667 
2010.000000	98.883614 
2009.000000	98.882616 
2008.000000	98.881637 
2007.000000	98.880649 
2006.000000	98.879652 
2005.000000	98.878671 
2004.000000	98.877735 
2003.000000	98.876853 
2002.000000	98.876023 
2001.000000	98.875220 
2000.000000	98.874401 
1999.000000	98.873517 
1998.000000	98.872557 
1997.000000	98.871557 
1996.000000	98.870587 
1995.000000	98.869712 
1994.000000	98.868964 
1993.000000	98.868336 
1992.000000	98.867788 
1991.000000	98.867274 
1990.000000	98.866778 
1989.000000	98.866324 
1988.000000	98.865947 
1987.000000	98.865659 
1986.000000	98.865435 
1985.000000	98.865242 
1984.000000	98.865059 
1983.000000	98.864875 
1982.000000	98.864674 
1981.000000	98.864440 
1980.000000	98.864163 
1979.000000	98.863849 
1978.000000	98.863517 
1977.000000	98.863192 
1976.000000	98.862896 
1975.000000	98.862643 
1974.000000	98.862449 
1973.000000	98.862341 
1972.000000	98.862341 
1971.000000	98.862445 
1970.000000	98.862613 
1969.000000	98.862786 
1968.000000	98.862914 
1967.000000	98.862983 
1966.000000	98.863017 
1965.000000	98.863058 
1964.000000	98.863135 
1963.000000	98.863247 
1962.000000	98.863361 
1961.000000	98.863435 
1960.000000	98.863436 
1959.000000	98.863354 
1958.000000	98.863222 
1957.000000	98.863099 
1956.000000	98.863039 
1955.000000	98.863050 
1954.000000	98.863090 
1953.000000	98.863102 
1952.000000	98.863053 
1951.000000	98.862944 
1950.000000	98.862809 
1949.000000	98.862689 
1948.000000	98.862606 
1947.000000	98.862546 
1946.000000	98.862468 
1945.000000	98.862339 
1944.000000	98.862160 
1943.000000	98.861960 
1942.000000	98.861777 
1941.000000	98.861637 
1940.000000	98.861557 
1939.000000	98.861539 
1938.000000	98.861577 
1937.000000	98.861659 
1936.000000	98.861778 
1935.000000	98.861931 
1934.000000	98.862115 
1933.000000	98.862324 
1932.000000	98.862550 
1931.000000	98.862777 
1930.000000	98.862980 
1929.000000	98.863140 
1928.000000	98.863247 
1927.000000	98.863310 
1926.000000	98.863345 
1925.000000	98.863371 
1924.000000	98.863411 
1923.000000	98.863479 
1922.000000	98.863568 
1921.000000	98.863647 
1920.000000	98.863694 
1919.000000	98.863727 
1918.000000	98.863771 
1917.000000	98.863831 
1916.000000	98.863904 
1915.000000	98.864006 
1914.000000	98.864149 
1913.000000	98.864295 
1912.000000	98.864407 
1911.000000	98.864509 
1910.000000	98.864650 
1909.000000	98.864838 
1908.000000	98.865039 
1907.000000	98.865222 
1906.000000	98.865371 
1905.000000	98.865474 
1904.000000	98.865548 
1903.000000	98.865624 
1902.000000	98.865730 
1901.000000	98.865867 
1900.000000	98.866014 
1899.000000	98.866146 
1898.000000	98.866244 
1897.000000	98.866308 
1896.000000	98.866342 
1895.000000	98.866352 
1894.000000	98.866336 
1893.000000	98.866295 
1892.000000	98.866233 
1891.000000	98.866159 
1890.000000	98.866077 
1889.000000	98.865986 
1888.000000	98.865881 
1887.000000	98.865760 
1886.000000	98.865624 
1885.000000	98.865478 
1884.000000	98.865325 
1883.000000	98.865174 
1882.000000	98.865040 
1881.000000	98.864933 
1880.000000	98.864858 
1879.000000	98.864810 
1878.000000	98.864785 
1877.000000	98.864785 
1876.000000	98.864818 
1875.000000	98.864887 
1874.000000	98.864988 
1873.000000	98.865105 
1872.000000	98.865222 
1871.000000	98.865327 
1870.000000	98.865417 
1869.000000	98.865499 
1868.000000	98.865583 
1867.000000	98.865683 
1866.000000	98.865802 
1865.000000	98.865917 
1864.000000	98.866000 
1863.000000	98.866087 
1862.000000	98.866280 
1861.000000	98.866631 
1860.000000	98.867037 
1859.000000	98.867338 
1858.000000	98.867546 
1857.000000	98.867850 
1856.000000	98.868381 
1855.000000	98.869044 
1854.000000	98.869577 
1853.000000	98.869778 
1852.000000	98.869730 
1851.000000	98.869787 
1850.000000	98.870172 
1849.000000	98.870684 
1848.000000	98.870957 
1847.000000	98.871003 
1846.000000	98.871278 
1845.000000	98.872143 
1844.000000	98.873481 
1843.000000	98.874976 
1842.000000	98.876522 
1841.000000	98.878038 
1840.000000	98.879488 
1839.000000	98.881001 
1838.000000	98.882566 
1837.000000	98.883744 
1836.000000	98.884097 
1835.000000	98.883893 
1834.000000	98.883948 
1833.000000	98.884649 
1832.000000	98.885662 
1831.000000	98.886377 
1830.000000	98.886524 
1829.000000	98.886478 
1828.000000	98.886901 
1827.000000	98.888109 
1826.000000	98.889975 
1825.000000	98.892015 
1824.000000	98.893555 
1823.000000	98.894263 
1822.000000	98.894381 
1821.000000	98.894357 
1820.000000	98.894370 
1819.000000	98.894350 
1818.000000	98.894426 
1817.000000	98.894958 
1816.000000	98.895976 
1815.000000	98.897124 
1814.000000	98.898265 
1813.000000	98.899569 
1812.000000	98.900903 
1811.000000	98.901522 
1810.000000	98.901105 
1809.000000	98.900488 
1808.000000	98.900586 
1807.000000	98.901340 
1806.000000	98.902315 
1805.000000	98.903489 
1804.000000	98.904998 
1803.000000	98.906524 
1802.000000	98.907489 
1801.000000	98.907816 
1800.000000	98.907718 
1799.000000	98.907111 
1798.000000	98.906086 
1797.000000	98.905088 
1796.000000	98.904283 
1795.000000	98.903564 
1794.000000	98.903367 
1793.000000	98.904638 
1792.000000	98.907196 
1791.000000	98.909245 
1790.000000	98.909862 
1789.000000	98.910035 
1788.000000	98.910729 
1787.000000	98.911687 
1786.000000	98.912263 
1785.000000	98.912599 
1784.000000	98.913210 
1783.000000	98.914123 
1782.000000	98.915088 
1781.000000	98.916143 
1780.000000	98.917408 
1779.000000	98.918714 
1778.000000	98.919909 
1777.000000	98.921007 
1776.000000	98.922001 
1775.000000	98.922865 
1774.000000	98.923645 
1773.000000	98.924482 
1772.000000	98.925477 
1771.000000	98.926536 
1770.000000	98.927518 
1769.000000	98.928414 
1768.000000	98.929326 
1767.000000	98.930290 
1766.000000	98.931263 
1765.000000	98.932225 
1764.000000	98.933183 
1763.000000	98.934116 
1762.000000	98.935001 
1761.000000	98.935872 
1760.000000	98.936782 
1759.000000	98.937727 
1758.000000	98.938678 
1757.000000	98.939617 
1756.000000	98.940546 
1755.000000	98.941467 
1754.000000	98.942371 
1753.000000	98.943255 
1752.000000	98.944131 
1751.000000	98.945018 
1750.000000	98.945924 
1749.000000	98.946847 
1748.000000	98.947758 
1747.000000	98.948628 
1746.000000	98.949454 
1745.000000	98.950279 
1744.000000	98.951166 
1743.000000	98.952137 
1742.000000	98.953081 
1741.000000	98.953839 
1740.000000	98.954400 
1739.000000	98.954996 
1738.000000	98.955791 
1737.000000	98.956610 
1736.000000	98.957115 
1735.000000	98.957141 
1734.000000	98.956959 
1733.000000	98.957151 
1732.000000	98.958157 
1731.000000	98.959916 
1730.000000	98.962013 
1729.000000	98.963816 
1728.000000	98.964895 
1727.000000	98.965359 
1726.000000	98.965521 
1725.000000	98.965551 
1724.000000	98.965563 
1723.000000	98.965744 
1722.000000	98.966167 
1721.000000	98.966667 
1720.000000	98.966999 
1719.000000	98.967022 
1718.000000	98.966696 
1717.000000	98.966805 
1716.000000	98.967566 
1715.000000	98.967548 
1714.000000	98.966239 
1713.000000	98.964781 
1712.000000	98.964100 
1711.000000	98.964205 
1710.000000	98.964515 
1709.000000	98.964530 
1708.000000	98.964302 
1707.000000	98.964097 
1706.000000	98.964136 
1705.000000	98.964220 
1704.000000	98.963392 
1703.000000	98.960268 
1702.000000	98.954639 
1701.000000	98.948677 
1700.000000	98.945004 
1699.000000	98.942849 
1698.000000	98.942214 
1697.000000	98.943580 
1696.000000	98.945975 
1695.000000	98.946850 
1694.000000	98.946378 
1693.000000	98.945942 
1692.000000	98.945037 
1691.000000	98.943212 
1690.000000	98.940942 
1689.000000	98.938712 
1688.000000	98.936325 
1687.000000	98.933497 
1686.000000	98.931309 
1685.000000	98.931223 
1684.000000	98.931802 
1683.000000	98.930668 
1682.000000	98.929457 
1681.000000	98.928819 
1680.000000	98.928586 
1679.000000	98.928450 
1678.000000	98.928021 
1677.000000	98.926964 
1676.000000	98.925217 
1675.000000	98.923116 
1674.000000	98.921009 
1673.000000	98.919185 
1672.000000	98.917720 
1671.000000	98.916808 
1670.000000	98.916497 
1669.000000	98.916071 
1668.000000	98.915258 
1667.000000	98.914647 
1666.000000	98.914204 
1665.000000	98.913538 
1664.000000	98.912595 
1663.000000	98.911494 
1662.000000	98.910177 
1661.000000	98.908566 
1660.000000	98.906746 
1659.000000	98.905186 
1658.000000	98.904356 
1657.000000	98.904107 
1656.000000	98.903532 
1655.000000	98.902421 
1654.000000	98.901052 
1653.000000	98.897884 
1652.000000	98.892634 
1651.000000	98.889924 
1650.000000	98.888809 
1649.000000	98.887435 
1648.000000	98.885701 
1647.000000	98.884498 
1646.000000	98.883552 
1645.000000	98.882705 
1644.000000	98.882173 
1643.000000	98.881719 
1642.000000	98.881059 
1641.000000	98.880144 
1640.000000	98.878999 
1639.000000	98.877652 
1638.000000	98.876389 
1637.000000	98.875747 
1636.000000	98.875400 
1635.000000	98.874392 
1634.000000	98.873505 
1633.000000	98.873204 
1632.000000	98.872435 
1631.000000	98.870986 
1630.000000	98.869500 
1629.000000	98.868201 
1628.000000	98.866754 
1627.000000	98.865640 
1626.000000	98.865826 
1625.000000	98.867298 
1624.000000	98.868964 
1623.000000	98.869966 
1622.000000	98.870627 
1621.000000	98.871286 
1620.000000	98.871260 
1619.000000	98.870083 
1618.000000	98.868391 
1617.000000	98.866470 
1616.000000	98.863919 
1615.000000	98.862524 
1614.000000	98.863600 
1613.000000	98.865428 
1612.000000	98.865910 
1611.000000	98.864701 
1610.000000	98.863392 
1609.000000	98.863523 
1608.000000	98.865191 
1607.000000	98.867503 
1606.000000	98.869204 
1605.000000	98.869452 
1604.000000	98.868841 
1603.000000	98.869204 
1602.000000	98.871618 
1601.000000	98.874971 
1600.000000	98.877368 
1599.000000	98.878300 
1598.000000	98.878488 
1597.000000	98.878730 
1596.000000	98.879578 
1595.000000	98.881588 
1594.000000	98.884879 
1593.000000	98.888297 
1592.000000	98.890339 
1591.000000	98.890989 
1590.000000	98.891742 
1589.000000	98.893626 
1588.000000	98.896396 
1587.000000	98.899544 
1586.000000	98.902665 
1585.000000	98.905062 
1584.000000	98.906402 
1583.000000	98.907259 
1582.000000	98.908477 
1581.000000	98.909967 
1580.000000	98.911147 
1579.000000	98.912215 
1578.000000	98.914432 
1577.000000	98.918289 
1576.000000	98.921792 
1575.000000	98.924528 
1574.000000	98.928810 
1573.000000	98.933935 
1572.000000	98.938409 
1571.000000	98.942319 
1570.000000	98.945380 
1569.000000	98.945735 
1568.000000	98.943983 
1567.000000	98.942664 
1566.000000	98.942046 
1565.000000	98.941353 
1564.000000	98.940886 
1563.000000	98.941454 
1562.000000	98.942696 
1561.000000	98.943554 
1560.000000	98.944577 
1559.000000	98.946929 
1558.000000	98.948417 
1557.000000	98.950359 
1556.000000	98.952373 
1555.000000	98.953139 
1554.000000	98.953042 
1553.000000	98.953252 
1552.000000	98.954187 
1551.000000	98.955200 
1550.000000	98.955822 
1549.000000	98.956260 
1548.000000	98.956900 
1547.000000	98.957734 
1546.000000	98.958483 
1545.000000	98.959098 
1544.000000	98.959698 
1543.000000	98.960285 
1542.000000	98.960830 
1541.000000	98.961312 
1540.000000	98.961613 
1539.000000	98.961833 
1538.000000	98.962099 
1537.000000	98.962358 
1536.000000	98.962578 
1535.000000	98.962757 
1534.000000	98.962903 
1533.000000	98.963026 
1532.000000	98.963126 
1531.000000	98.963205 
1530.000000	98.963269 
1529.000000	98.963331 
1528.000000	98.963397 
1527.000000	98.963470 
1526.000000	98.963551 
1525.000000	98.963636 
1524.000000	98.963723 
1523.000000	98.963809 
1522.000000	98.963890 
1521.000000	98.963960 
1520.000000	98.964011 
1519.000000	98.964043 
1518.000000	98.964065 
1517.000000	98.964083 
1516.000000	98.964103 
1515.000000	98.964120 
1514.000000	98.964130 
1513.000000	98.964125 
1512.000000	98.964104 
1511.000000	98.964065 
1510.000000	98.964013 
1509.000000	98.963962 
1508.000000	98.963930 
1507.000000	98.963922 
1506.000000	98.963923 
1505.000000	98.963922 
1504.000000	98.963918 
1503.000000	98.963908 
1502.000000	98.963891 
1501.000000	98.963869 
1500.000000	98.963845 
1499.000000	98.963821 
1498.000000	98.963793 
1497.000000	98.963766 
1496.000000	98.963748 
1495.000000	98.963741 
1494.000000	98.963740 
1493.000000	98.963737 
1492.000000	98.963740 
1491.000000	98.963770 
1490.000000	98.963843 
1489.000000	98.963937 
1488.000000	98.963993 
1487.000000	98.963959 
1486.000000	98.963847 
1485.000000	98.963686 
1484.000000	98.963487 
1483.000000	98.963306 
1482.000000	98.963219 
1481.000000	98.963251 
1480.000000	98.963309 
1479.000000	98.963266 
1478.000000	98.963084 
1477.000000	98.962831 
1476.000000	98.962540 
1475.000000	98.962063 
1474.000000	98.961382 
1473.000000	98.960933 
1472.000000	98.961145 
1471.000000	98.961722 
1470.000000	98.962070 
1469.000000	98.961982 
1468.000000	98.961586 
1467.000000	98.961114 
1466.000000	98.960922 
1465.000000	98.961354 
1464.000000	98.962096 
1463.000000	98.962322 
1462.000000	98.961652 
1461.000000	98.960537 
1460.000000	98.959709 
1459.000000	98.959521 
1458.000000	98.959386 
1457.000000	98.958548 
1456.000000	98.957641 
1455.000000	98.957431 
1454.000000	98.957224 
1453.000000	98.956565 
1452.000000	98.956087 
1451.000000	98.956542 
1450.000000	98.957904 
1449.000000	98.959709 
1448.000000	98.961516 
1447.000000	98.962843 
1446.000000	98.963406 
1445.000000	98.963430 
1444.000000	98.963379 
1443.000000	98.963416 
1442.000000	98.963324 
1441.000000	98.962892 
1440.000000	98.962278 
1439.000000	98.961768 
1438.000000	98.961188 
1437.000000	98.960416 
1436.000000	98.960175 
1435.000000	98.960899 
1434.000000	98.962019 
1433.000000	98.963041 
1432.000000	98.964005 
1431.000000	98.965274 
1430.000000	98.966609 
1429.000000	98.967216 
1428.000000	98.966910 
1427.000000	98.966416 
1426.000000	98.966599 
1425.000000	98.967598 
1424.000000	98.969097 
1423.000000	98.970545 
1422.000000	98.971334 
1421.000000	98.971575 
1420.000000	98.972109 
1419.000000	98.973273 
1418.000000	98.973813 
1417.000000	98.973508 
1416.000000	98.974020 
1415.000000	98.976107 
1414.000000	98.978539 
1413.000000	98.979621 
1412.000000	98.979429 
1411.000000	98.979546 
1410.000000	98.980558 
1409.000000	98.981606 
1408.000000	98.982100 
1407.000000	98.982298 
1406.000000	98.982582 
1405.000000	98.983128 
1404.000000	98.984339 
1403.000000	98.986133 
1402.000000	98.987621 
1401.000000	98.988859 
1400.000000	98.991409 
1399.000000	98.996339 
1398.000000	99.001945 
1397.000000	99.005594 
1396.000000	99.007062 
1395.000000	99.008206 
1394.000000	99.010173 
1393.000000	99.012257 
1392.000000	99.014363 
1391.000000	99.017288 
1390.000000	99.021249 
1389.000000	99.025299 
1388.000000	99.028152 
1387.000000	99.029532 
1386.000000	99.030264 
1385.000000	99.031445 
1384.000000	99.033764 
1383.000000	99.037139 
1382.000000	99.040562 
1381.000000	99.043039 
1380.000000	99.044475 
1379.000000	99.045875 
1378.000000	99.048475 
1377.000000	99.052414 
1376.000000	99.056619 
1375.000000	99.060067 
1374.000000	99.062933 
1373.000000	99.066121 
1372.000000	99.070185 
1371.000000	99.075130 
1370.000000	99.080922 
1369.000000	99.086826 
1368.000000	99.092412 
1367.000000	99.097754 
1366.000000	99.102428 
1365.000000	99.105655 
1364.000000	99.106986 
1363.000000	99.106864 
1362.000000	99.106561 
1361.000000	99.107226 
1360.000000	99.109617 
1359.000000	99.114164 
1358.000000	99.120236 
1357.000000	99.125868 
1356.000000	99.129600 
1355.000000	99.131897 
1354.000000	99.134158 
1353.000000	99.137333 
1352.000000	99.141432 
1351.000000	99.146247 
1350.000000	99.152255 
1349.000000	99.157772 
1348.000000	99.160387 
1347.000000	99.160216 
1346.000000	99.159943 
1345.000000	99.160882 
1344.000000	99.161767 
1343.000000	99.161768 
1342.000000	99.162468 
1341.000000	99.165432 
1340.000000	99.169614 
1339.000000	99.172613 
1338.000000	99.173179 
1337.000000	99.171677 
1336.000000	99.169020 
1335.000000	99.165904 
1334.000000	99.162976 
1333.000000	99.160950 
1332.000000	99.160363 
1331.000000	99.161553 
1330.000000	99.164374 
1329.000000	99.167521 
1328.000000	99.169376 
1327.000000	99.169693 
1326.000000	99.169639 
1325.000000	99.169261 
1324.000000	99.167777 
1323.000000	99.165126 
1322.000000	99.161976 
1321.000000	99.158707 
1320.000000	99.155712 
1319.000000	99.154014 
1318.000000	99.154346 
1317.000000	99.156158 
1316.000000	99.158140 
1315.000000	99.159362 
1314.000000	99.159577 
1313.000000	99.159291 
1312.000000	99.159621 
1311.000000	99.161206 
1310.000000	99.163192 
1309.000000	99.164157 
1308.000000	99.164182 
1307.000000	99.164844 
1306.000000	99.167087 
1305.000000	99.169701 
1304.000000	99.171107 
1303.000000	99.170964 
1302.000000	99.169706 
1301.000000	99.167655 
1300.000000	99.165464 
1299.000000	99.164322 
1298.000000	99.164648 
1297.000000	99.165234 
1296.000000	99.164626 
1295.000000	99.163085 
1294.000000	99.162243 
1293.000000	99.163139 
1292.000000	99.165381 
1291.000000	99.167909 
1290.000000	99.169841 
1289.000000	99.170588 
1288.000000	99.169833 
1287.000000	99.167839 
1286.000000	99.165521 
1285.000000	99.164040 
1284.000000	99.164244 
1283.000000	99.166013 
1282.000000	99.167917 
1281.000000	99.168115 
1280.000000	99.166063 
1279.000000	99.163246 
1278.000000	99.161793 
1277.000000	99.162611 
1276.000000	99.165139 
1275.000000	99.168420 
1274.000000	99.171507 
1273.000000	99.173233 
1272.000000	99.172703 
1271.000000	99.170260 
1270.000000	99.167226 
1269.000000	99.164477 
1268.000000	99.161864 
1267.000000	99.158834 
1266.000000	99.154843 
1265.000000	99.149897 
1264.000000	99.145365 
1263.000000	99.143327 
1262.000000	99.144194 
1261.000000	99.146068 
1260.000000	99.147757 
1259.000000	99.151283 
1258.000000	99.158763 
1257.000000	99.167874 
1256.000000	99.173084 
1255.000000	99.171945 
1254.000000	99.167937 
1253.000000	99.166098 
1252.000000	99.167086 
1251.000000	99.167393 
1250.000000	99.164648 
1249.000000	99.160804 
1248.000000	99.159539 
1247.000000	99.161543 
1246.000000	99.163426 
1245.000000	99.161827 
1244.000000	99.157552 
1243.000000	99.154528 
1242.000000	99.155102 
1241.000000	99.157773 
1240.000000	99.159569 
1239.000000	99.159052 
1238.000000	99.156637 
1237.000000	99.153397 
1236.000000	99.150233 
1235.000000	99.147270 
1234.000000	99.143608 
1233.000000	99.138573 
1232.000000	99.133275 
1231.000000	99.129495 
1230.000000	99.126882 
1229.000000	99.123207 
1228.000000	99.117770 
1227.000000	99.112299 
1226.000000	99.107588 
1225.000000	99.101446 
1224.000000	99.091721 
1223.000000	99.079554 
1222.000000	99.067553 
1221.000000	99.055856 
1220.000000	99.042324 
1219.000000	99.026376 
1218.000000	99.010447 
1217.000000	98.997376 
1216.000000	98.987375 
1215.000000	98.977727 
1214.000000	98.965189 
1213.000000	98.949176 
1212.000000	98.932735 
1211.000000	98.919058 
1210.000000	98.906905 
1209.000000	98.891590 
1208.000000	98.871170 
1207.000000	98.849446 
1206.000000	98.831301 
1205.000000	98.816537 
1204.000000	98.800495 
1203.000000	98.779834 
1202.000000	98.755674 
1201.000000	98.731534 
1200.000000	98.709990 
1199.000000	98.691616 
1198.000000	98.675603 
1197.000000	98.660877 
1196.000000	98.647019 
1195.000000	98.634124 
1194.000000	98.621730 
1193.000000	98.608350 
1192.000000	98.592642 
1191.000000	98.574764 
1190.000000	98.556162 
1189.000000	98.538112 
1188.000000	98.520695 
1187.000000	98.503032 
1186.000000	98.484402 
1185.000000	98.465146 
1184.000000	98.446129 
1183.000000	98.427343 
1182.000000	98.408103 
1181.000000	98.388988 
1180.000000	98.371976 
1179.000000	98.357209 
1178.000000	98.340929 
1177.000000	98.318828 
1176.000000	98.290927 
1175.000000	98.261323 
1174.000000	98.233860 
1173.000000	98.210001 
1172.000000	98.190034 
1171.000000	98.172875 
1170.000000	98.154597 
1169.000000	98.130868 
1168.000000	98.102072 
1167.000000	98.073430 
1166.000000	98.049391 
1165.000000	98.030965 
1164.000000	98.019188 
1163.000000	98.016854 
1162.000000	98.024212 
1161.000000	98.035758 
1160.000000	98.044139 
1159.000000	98.045846 
1158.000000	98.041195 
1157.000000	98.030831 
1156.000000	98.014537 
1155.000000	97.992287 
1154.000000	97.964807 
1153.000000	97.934129 
1152.000000	97.904364 
1151.000000	97.879684 
1150.000000	97.859899 
1149.000000	97.840219 
1148.000000	97.817086 
1147.000000	97.791993 
1146.000000	97.767753 
1145.000000	97.743466 
1144.000000	97.715918 
1143.000000	97.684323 
1142.000000	97.650890 
1141.000000	97.617688 
1140.000000	97.585310 
1139.000000	97.553815 
1138.000000	97.522858 
1137.000000	97.491557 
1136.000000	97.459728 
1135.000000	97.428338 
1134.000000	97.397428 
1133.000000	97.364970 
1132.000000	97.329174 
1131.000000	97.290553 
1130.000000	97.250402 
1129.000000	97.208904 
1128.000000	97.166421 
1127.000000	97.124922 
1126.000000	97.085797 
1125.000000	97.047290 
1124.000000	97.006268 
1123.000000	96.962233 
1122.000000	96.918073 
1121.000000	96.877084 
1120.000000	96.840096 
1119.000000	96.804960 
1118.000000	96.768335 
1117.000000	96.728894 
1116.000000	96.689122 
1115.000000	96.653071 
1114.000000	96.622381 
1113.000000	96.595579 
1112.000000	96.570679 
1111.000000	96.546369 
1110.000000	96.520874 
1109.000000	96.492198 
1108.000000	96.460171 
1107.000000	96.425999 
1106.000000	96.390150 
1105.000000	96.352894 
1104.000000	96.316415 
1103.000000	96.283140 
1102.000000	96.251877 
1101.000000	96.218783 
1100.000000	96.183687 
1099.000000	96.150229 
1098.000000	96.121575 
1097.000000	96.096905 
1096.000000	96.073130 
1095.000000	96.046891 
1094.000000	96.015104 
1093.000000	95.977483 
1092.000000	95.939312 
1091.000000	95.908136 
1090.000000	95.886420 
1089.000000	95.869859 
1088.000000	95.852586 
1087.000000	95.830675 
1086.000000	95.801502 
1085.000000	95.764974 
1084.000000	95.726266 
1083.000000	95.692618 
1082.000000	95.665743 
1081.000000	95.641238 
1080.000000	95.616218 
1079.000000	95.592752 
1078.000000	95.572371 
1077.000000	95.551885 
1076.000000	95.526924 
1075.000000	95.496072 
1074.000000	95.460250 
1073.000000	95.421671 
1072.000000	95.384063 
1071.000000	95.349227 
1070.000000	95.311991 
1069.000000	95.263409 
1068.000000	95.200857 
1067.000000	95.131256 
1066.000000	95.063400 
1065.000000	95.001408 
1064.000000	94.946546 
1063.000000	94.898691 
1062.000000	94.852419 
1061.000000	94.797510 
1060.000000	94.728284 
1059.000000	94.649504 
1058.000000	94.570099 
1057.000000	94.494385 
1056.000000	94.422531 
1055.000000	94.355387 
1054.000000	94.293626 
1053.000000	94.233741 
1052.000000	94.169116 
1051.000000	94.095348 
1050.000000	94.013085 
1049.000000	93.926550 
1048.000000	93.840495 
1047.000000	93.757407 
1046.000000	93.676887 
1045.000000	93.598317 
1044.000000	93.522599 
1043.000000	93.449321 
1042.000000	93.374718 
1041.000000	93.296431 
1040.000000	93.218489 
1039.000000	93.146928 
1038.000000	93.082087 
1037.000000	93.020441 
1036.000000	92.962571 
1035.000000	92.913105 
1034.000000	92.873356 
1033.000000	92.840136 
1032.000000	92.811340 
1031.000000	92.786709 
1030.000000	92.763976 
1029.000000	92.740855 
1028.000000	92.720422 
1027.000000	92.707880 
1026.000000	92.702320 
1025.000000	92.698094 
1024.000000	92.693779 
1023.000000	92.692681 
1022.000000	92.694678 
1021.000000	92.695052 
1020.000000	92.691868 
1019.000000	92.687757 
1018.000000	92.684070 
1017.000000	92.679785 
1016.000000	92.676325 
1015.000000	92.676916 
1014.000000	92.681005 
1013.000000	92.685477 
1012.000000	92.690885 
1011.000000	92.699928 
1010.000000	92.710694 
1009.000000	92.718850 
1008.000000	92.726248 
1007.000000	92.740152 
1006.000000	92.764107 
1005.000000	92.796221 
1004.000000	92.835017 
1003.000000	92.878924 
1002.000000	92.921044 
1001.000000	92.953979 
1000.000000	92.981073 
999.000000	 93.014395 
998.000000	 93.059858 
997.000000	 93.111310 
996.000000	 93.160287 
995.000000	 93.205043 
994.000000	 93.249115 
993.000000	 93.297345 
992.000000	 93.353789 
991.000000	 93.417226 
990.000000	 93.478937 
989.000000	 93.531641 
988.000000	 93.579981 
987.000000	 93.634857 
986.000000	 93.698739 
985.000000	 93.765162 
984.000000	 93.831893 
983.000000	 93.904403 
982.000000	 93.984758 
981.000000	 94.066891 
980.000000	 94.145926 
979.000000	 94.223859 
978.000000	 94.302744 
977.000000	 94.380105 
976.000000	 94.454904 
975.000000	 94.531181 
974.000000	 94.611695 
973.000000	 94.693681 
972.000000	 94.774690 
971.000000	 94.857443 
970.000000	 94.945022 
969.000000	 95.035255 
968.000000	 95.123266 
967.000000	 95.206613 
966.000000	 95.285842 
965.000000	 95.362946 
964.000000	 95.440746 
963.000000	 95.520821 
962.000000	 95.601004 
961.000000	 95.677718 
960.000000	 95.750763 
959.000000	 95.822275 
958.000000	 95.891226 
957.000000	 95.953441 
956.000000	 96.007733 
955.000000	 96.058281 
954.000000	 96.110207 
953.000000	 96.165747 
952.000000	 96.224365 
951.000000	 96.282568 
950.000000	 96.334142 
949.000000	 96.375260 
948.000000	 96.409389 
947.000000	 96.443241 
946.000000	 96.478132 
945.000000	 96.509789 
944.000000	 96.536205 
943.000000	 96.560450 
942.000000	 96.585477 
941.000000	 96.611373 
940.000000	 96.638646 
939.000000	 96.669012 
938.000000	 96.701568 
937.000000	 96.732569 
936.000000	 96.760201 
935.000000	 96.785796 
934.000000	 96.810163 
933.000000	 96.833061 
932.000000	 96.856417 
931.000000	 96.883136 
930.000000	 96.911959 
929.000000	 96.938346 
928.000000	 96.961497 
927.000000	 96.985628 
926.000000	 97.012683 
925.000000	 97.038092 
924.000000	 97.055912 
923.000000	 97.065173 
922.000000	 97.070083 
921.000000	 97.076728 
920.000000	 97.089816 
919.000000	 97.109111 
918.000000	 97.128177 
917.000000	 97.139895 
916.000000	 97.144339 
915.000000	 97.148869 
914.000000	 97.160398 
913.000000	 97.179880 
912.000000	 97.203614 
911.000000	 97.227150 
910.000000	 97.249096 
909.000000	 97.274208 
908.000000	 97.310892 
907.000000	 97.362255 
906.000000	 97.421535 
905.000000	 97.479983 
904.000000	 97.536371 
903.000000	 97.593334 
902.000000	 97.648067 
901.000000	 97.694474 
900.000000	 97.733440 
899.000000	 97.773546 
898.000000	 97.821007 
897.000000	 97.874197 
896.000000	 97.927818 
895.000000	 97.976915 
894.000000	 98.017470 
893.000000	 98.049295 
892.000000	 98.078652 
891.000000	 98.112532 
890.000000	 98.150017 
889.000000	 98.184391 
888.000000	 98.213062 
887.000000	 98.239600 
886.000000	 98.266817 
885.000000	 98.294145 
884.000000	 98.321264 
883.000000	 98.347594 
882.000000	 98.369150 
881.000000	 98.383958 
880.000000	 98.400360 
879.000000	 98.430516 
878.000000	 98.473595 
877.000000	 98.514400 
876.000000	 98.541258 
875.000000	 98.556599 
874.000000	 98.568374 
873.000000	 98.580814 
872.000000	 98.597174 
871.000000	 98.621643 
870.000000	 98.652430 
869.000000	 98.680581 
868.000000	 98.701227 
867.000000	 98.719542 
866.000000	 98.741106 
865.000000	 98.763240 
864.000000	 98.781784 
863.000000	 98.800127 
862.000000	 98.824213 
861.000000	 98.852791 
860.000000	 98.879949 
859.000000	 98.904704 
858.000000	 98.931314 
857.000000	 98.961192 
856.000000	 98.990193 
855.000000	 99.013563 
854.000000	 99.029093 
853.000000	 99.035956 
852.000000	 99.035085 
851.000000	 99.031507 
850.000000	 99.032958 
849.000000	 99.044672 
848.000000	 99.065948 
847.000000	 99.090578 
846.000000	 99.110347 
845.000000	 99.120959 
844.000000	 99.125953 
843.000000	 99.132696 
842.000000	 99.143461 
841.000000	 99.152883 
840.000000	 99.154770 
839.000000	 99.147937 
838.000000	 99.134805 
837.000000	 99.118787 
836.000000	 99.104821 
835.000000	 99.097832 
834.000000	 99.097325 
833.000000	 99.096982 
832.000000	 99.092443 
831.000000	 99.086177 
830.000000	 99.082306 
829.000000	 99.080922 
828.000000	 99.081514 
827.000000	 99.088072 
826.000000	 99.104963 
825.000000	 99.129299 
824.000000	 99.152094 
823.000000	 99.166244 
822.000000	 99.170870 
821.000000	 99.170101 
820.000000	 99.170173 
819.000000	 99.175195 
818.000000	 99.182613 
817.000000	 99.184109 
816.000000	 99.173155 
815.000000	 99.151257 
814.000000	 99.126488 
813.000000	 99.106941 
812.000000	 99.094881 
811.000000	 99.083933 
810.000000	 99.060952 
809.000000	 99.013802 
808.000000	 98.939720 
807.000000	 98.846279 
806.000000	 98.745115 
805.000000	 98.645829 
804.000000	 98.553960 
803.000000	 98.470579 
802.000000	 98.393637 
801.000000	 98.323817 
800.000000	 98.268753 
799.000000	 98.237049 
798.000000	 98.228892 
797.000000	 98.237497 
796.000000	 98.258212 
795.000000	 98.289497 
794.000000	 98.326069 
793.000000	 98.359837 
792.000000	 98.388786 
791.000000	 98.417078 
790.000000	 98.445065 
789.000000	 98.466656 
788.000000	 98.477989 
787.000000	 98.481131 
786.000000	 98.477174 
785.000000	 98.462440 
784.000000	 98.434077 
783.000000	 98.393939 
782.000000	 98.345984 
781.000000	 98.296743 
780.000000	 98.258775 
779.000000	 98.244221 
778.000000	 98.251834 
777.000000	 98.268645 
776.000000	 98.287916 
775.000000	 98.316658 
774.000000	 98.360996 
773.000000	 98.413861 
772.000000	 98.463611 
771.000000	 98.507026 
770.000000	 98.546633 
769.000000	 98.581651 
768.000000	 98.608828 
767.000000	 98.627577 
766.000000	 98.638671 
765.000000	 98.642792 
764.000000	 98.645486 
763.000000	 98.657127 
762.000000	 98.680815 
761.000000	 98.705453 
760.000000	 98.718257 
759.000000	 98.719929 
758.000000	 98.720731 
757.000000	 98.726528 
756.000000	 98.737240 
755.000000	 98.754913 
754.000000	 98.782039 
753.000000	 98.811516 
752.000000	 98.828242 
751.000000	 98.824786 
750.000000	 98.810737 
749.000000	 98.804057 
748.000000	 98.815234 
747.000000	 98.841334 
746.000000	 98.871684 
745.000000	 98.897018 
744.000000	 98.915039 
743.000000	 98.929409 
742.000000	 98.944149 
741.000000	 98.959453 
740.000000	 98.973509 
739.000000	 98.986721 
738.000000	 99.001433 
737.000000	 99.017593 
736.000000	 99.031488 
735.000000	 99.040296 
734.000000	 99.046453 
733.000000	 99.055488 
732.000000	 99.069542 
731.000000	 99.084525 
730.000000	 99.094823 
729.000000	 99.099050 
728.000000	 99.101173 
727.000000	 99.106256 
726.000000	 99.115384 
725.000000	 99.127151 
724.000000	 99.140999 
723.000000	 99.154799 
722.000000	 99.162028 
721.000000	 99.158311 
720.000000	 99.150369 
719.000000	 99.149954 
718.000000	 99.158495 
717.000000	 99.167630 
716.000000	 99.173241 
715.000000	 99.178746 
714.000000	 99.183432 
713.000000	 99.178077 
712.000000	 99.160230 
711.000000	 99.142200 
710.000000	 99.135386 
709.000000	 99.139143 
708.000000	 99.144383 
707.000000	 99.147031 
706.000000	 99.147022 
705.000000	 99.143017 
704.000000	 99.134860 
703.000000	 99.125565 
702.000000	 99.117147 
701.000000	 99.107352 
700.000000	 99.093157 
699.000000	 99.076657 
698.000000	 99.062792 
697.000000	 99.053435 
696.000000	 99.047483 
695.000000	 99.044138 
694.000000	 99.044668 
693.000000	 99.050510 
692.000000	 99.061161 
691.000000	 99.074970 
690.000000	 99.089185 
689.000000	 99.100345 
688.000000	 99.106298 
687.000000	 99.107227 
686.000000	 99.105226 
685.000000	 99.102836 
684.000000	 99.101716 
683.000000	 99.102185 
682.000000	 99.103190 
681.000000	 99.103872 
680.000000	 99.105408 
679.000000	 99.110329 
678.000000	 99.119025 
677.000000	 99.127692 
676.000000	 99.134061 
675.000000	 99.138035 
674.000000	 99.139360 
673.000000	 99.137536 
672.000000	 99.135854 
671.000000	 99.141359 
670.000000	 99.162117 
669.000000	 99.200227 
668.000000	 99.227817 
667.000000	 99.212567 
666.000000	 99.177847 
665.000000	 99.154882 
664.000000	 99.143647 
663.000000	 99.140434 
662.000000	 99.143485 
661.000000	 99.149631 
660.000000	 99.157045 
659.000000	 99.166334 
658.000000	 99.175673 
657.000000	 99.178668 
656.000000	 99.173493 
655.000000	 99.165436 
654.000000	 99.159426 
653.000000	 99.154947 
652.000000	 99.151167 
651.000000	 99.150301 
650.000000	 99.152804 

