4000.000000	96.062405 
3999.000000	96.062031 
3998.000000	96.060172 
3997.000000	96.057390 
3996.000000	96.054874 
3995.000000	96.053591 
3994.000000	96.053733 
3993.000000	96.054647 
3992.000000	96.055344 
3991.000000	96.055329 
3990.000000	96.054870 
3989.000000	96.054417 
3988.000000	96.053874 
3987.000000	96.052830 
3986.000000	96.051354 
3985.000000	96.050060 
3984.000000	96.049331 
3983.000000	96.049008 
3982.000000	96.049119 
3981.000000	96.050231 
3980.000000	96.052518 
3979.000000	96.054976 
3978.000000	96.056220 
3977.000000	96.055909 
3976.000000	96.054884 
3975.000000	96.053961 
3974.000000	96.053034 
3973.000000	96.051637 
3972.000000	96.049700 
3971.000000	96.047556 
3970.000000	96.045596 
3969.000000	96.044265 
3968.000000	96.043948 
3967.000000	96.044652 
3966.000000	96.045921 
3965.000000	96.047033 
3964.000000	96.047329 
3963.000000	96.046573 
3962.000000	96.045153 
3961.000000	96.043841 
3960.000000	96.043014 
3959.000000	96.042360 
3958.000000	96.041438 
3957.000000	96.040331 
3956.000000	96.039390 
3955.000000	96.038698 
3954.000000	96.038071 
3953.000000	96.037344 
3952.000000	96.036497 
3951.000000	96.035519 
3950.000000	96.034408 
3949.000000	96.033291 
3948.000000	96.032433 
3947.000000	96.032086 
3946.000000	96.032231 
3945.000000	96.032465 
3944.000000	96.032248 
3943.000000	96.031479 
3942.000000	96.030634 
3941.000000	96.030246 
3940.000000	96.030334 
3939.000000	96.030445 
3938.000000	96.030193 
3937.000000	96.029757 
3936.000000	96.029513 
3935.000000	96.029307 
3934.000000	96.028543 
3933.000000	96.026956 
3932.000000	96.025011 
3931.000000	96.023356 
3930.000000	96.022281 
3929.000000	96.021938 
3928.000000	96.022412 
3927.000000	96.023340 
3926.000000	96.023734 
3925.000000	96.023051 
3924.000000	96.021900 
3923.000000	96.021092 
3922.000000	96.020495 
3921.000000	96.019643 
3920.000000	96.018712 
3919.000000	96.018241 
3918.000000	96.018099 
3917.000000	96.017673 
3916.000000	96.016857 
3915.000000	96.016140 
3914.000000	96.015757 
3913.000000	96.015532 
3912.000000	96.015289 
3911.000000	96.015121 
3910.000000	96.014949 
3909.000000	96.014620 
3908.000000	96.014079 
3907.000000	96.013363 
3906.000000	96.012363 
3905.000000	96.011014 
3904.000000	96.009572 
3903.000000	96.008353 
3902.000000	96.007403 
3901.000000	96.006583 
3900.000000	96.005795 
3899.000000	96.005005 
3898.000000	96.004195 
3897.000000	96.003392 
3896.000000	96.002588 
3895.000000	96.001771 
3894.000000	96.000940 
3893.000000	96.000099 
3892.000000	95.999244 
3891.000000	95.998375 
3890.000000	95.997504 
3889.000000	95.996645 
3888.000000	95.995804 
3887.000000	95.994972 
3886.000000	95.994138 
3885.000000	95.993307 
3884.000000	95.992479 
3883.000000	95.991645 
3882.000000	95.990792 
3881.000000	95.989923 
3880.000000	95.989054 
3879.000000	95.988202 
3878.000000	95.987364 
3877.000000	95.986522 
3876.000000	95.985657 
3875.000000	95.984764 
3874.000000	95.983852 
3873.000000	95.982933 
3872.000000	95.982011 
3871.000000	95.981085 
3870.000000	95.980171 
3869.000000	95.979302 
3868.000000	95.978495 
3867.000000	95.977734 
3866.000000	95.976999 
3865.000000	95.976289 
3864.000000	95.975622 
3863.000000	95.974995 
3862.000000	95.974385 
3861.000000	95.973778 
3860.000000	95.973174 
3859.000000	95.972576 
3858.000000	95.971980 
3857.000000	95.971388 
3856.000000	95.970813 
3855.000000	95.970259 
3854.000000	95.969734 
3853.000000	95.969256 
3852.000000	95.968837 
3851.000000	95.968478 
3850.000000	95.968174 
3849.000000	95.967919 
3848.000000	95.967699 
3847.000000	95.967497 
3846.000000	95.967285 
3845.000000	95.967048 
3844.000000	95.966781 
3843.000000	95.966497 
3842.000000	95.966218 
3841.000000	95.965970 
3840.000000	95.965772 
3839.000000	95.965632 
3838.000000	95.965548 
3837.000000	95.965514 
3836.000000	95.965528 
3835.000000	95.965593 
3834.000000	95.965717 
3833.000000	95.965903 
3832.000000	95.966150 
3831.000000	95.966450 
3830.000000	95.966793 
3829.000000	95.967168 
3828.000000	95.967565 
3827.000000	95.967970 
3826.000000	95.968369 
3825.000000	95.968763 
3824.000000	95.969162 
3823.000000	95.969565 
3822.000000	95.969967 
3821.000000	95.970379 
3820.000000	95.970833 
3819.000000	95.971353 
3818.000000	95.971937 
3817.000000	95.972568 
3816.000000	95.973239 
3815.000000	95.973951 
3814.000000	95.974693 
3813.000000	95.975435 
3812.000000	95.976162 
3811.000000	95.976879 
3810.000000	95.977595 
3809.000000	95.978304 
3808.000000	95.978987 
3807.000000	95.979632 
3806.000000	95.980243 
3805.000000	95.980833 
3804.000000	95.981434 
3803.000000	95.982055 
3802.000000	95.982703 
3801.000000	95.983471 
3800.000000	95.984406 
3799.000000	95.985358 
3798.000000	95.986151 
3797.000000	95.986787 
3796.000000	95.987489 
3795.000000	95.988446 
3794.000000	95.989553 
3793.000000	95.990437 
3792.000000	95.990944 
3791.000000	95.991383 
3790.000000	95.992007 
3789.000000	95.992556 
3788.000000	95.992707 
3787.000000	95.992625 
3786.000000	95.992556 
3785.000000	95.992303 
3784.000000	95.991714 
3783.000000	95.991217 
3782.000000	95.990949 
3781.000000	95.990396 
3780.000000	95.989434 
3779.000000	95.989167 
3778.000000	95.990349 
3777.000000	95.991997 
3776.000000	95.992136 
3775.000000	95.990102 
3774.000000	95.987482 
3773.000000	95.986361 
3772.000000	95.986455 
3771.000000	95.985725 
3770.000000	95.983870 
3769.000000	95.982730 
3768.000000	95.982742 
3767.000000	95.981963 
3766.000000	95.978683 
3765.000000	95.974016 
3764.000000	95.971167 
3763.000000	95.971459 
3762.000000	95.972611 
3761.000000	95.972093 
3760.000000	95.970666 
3759.000000	95.970322 
3758.000000	95.969162 
3757.000000	95.964620 
3756.000000	95.958095 
3755.000000	95.952224 
3754.000000	95.946520 
3753.000000	95.939161 
3752.000000	95.933224 
3751.000000	95.932585 
3750.000000	95.932384 
3749.000000	95.927027 
3748.000000	95.921918 
3747.000000	95.924669 
3746.000000	95.931114 
3745.000000	95.931171 
3744.000000	95.930139 
3743.000000	95.936119 
3742.000000	95.941802 
3741.000000	95.938105 
3740.000000	95.927856 
3739.000000	95.923635 
3738.000000	95.929432 
3737.000000	95.933754 
3736.000000	95.928913 
3735.000000	95.924092 
3734.000000	95.928625 
3733.000000	95.935772 
3732.000000	95.936636 
3731.000000	95.933548 
3730.000000	95.932847 
3729.000000	95.934514 
3728.000000	95.932839 
3727.000000	95.925928 
3726.000000	95.920359 
3725.000000	95.920683 
3724.000000	95.922849 
3723.000000	95.922498 
3722.000000	95.921665 
3721.000000	95.923273 
3720.000000	95.925579 
3719.000000	95.926110 
3718.000000	95.923409 
3717.000000	95.918838 
3716.000000	95.914892 
3715.000000	95.909518 
3714.000000	95.897698 
3713.000000	95.879813 
3712.000000	95.864839 
3711.000000	95.859302 
3710.000000	95.858289 
3709.000000	95.854417 
3708.000000	95.844825 
3707.000000	95.830438 
3706.000000	95.814748 
3705.000000	95.801081 
3704.000000	95.789997 
3703.000000	95.778811 
3702.000000	95.763486 
3701.000000	95.741685 
3700.000000	95.715596 
3699.000000	95.690596 
3698.000000	95.669050 
3697.000000	95.650300 
3696.000000	95.636440 
3695.000000	95.628655 
3694.000000	95.622080 
3693.000000	95.612456 
3692.000000	95.603508 
3691.000000	95.602488 
3690.000000	95.608475 
3689.000000	95.613985 
3688.000000	95.615484 
3687.000000	95.615339 
3686.000000	95.614275 
3685.000000	95.607907 
3684.000000	95.595095 
3683.000000	95.583033 
3682.000000	95.576236 
3681.000000	95.565277 
3680.000000	95.540374 
3679.000000	95.508354 
3678.000000	95.483846 
3677.000000	95.462360 
3676.000000	95.431398 
3675.000000	95.399463 
3674.000000	95.378449 
3673.000000	95.364830 
3672.000000	95.346166 
3671.000000	95.316081 
3670.000000	95.287632 
3669.000000	95.273165 
3668.000000	95.262083 
3667.000000	95.242237 
3666.000000	95.216727 
3665.000000	95.193124 
3664.000000	95.172455 
3663.000000	95.149991 
3662.000000	95.121028 
3661.000000	95.085909 
3660.000000	95.050607 
3659.000000	95.019376 
3658.000000	94.989776 
3657.000000	94.953731 
3656.000000	94.910229 
3655.000000	94.867394 
3654.000000	94.831391 
3653.000000	94.800018 
3652.000000	94.764870 
3651.000000	94.722763 
3650.000000	94.683236 
3649.000000	94.653354 
3648.000000	94.627657 
3647.000000	94.603559 
3646.000000	94.585590 
3645.000000	94.574498 
3644.000000	94.564119 
3643.000000	94.548911 
3642.000000	94.529012 
3641.000000	94.508285 
3640.000000	94.486923 
3639.000000	94.460922 
3638.000000	94.430518 
3637.000000	94.400934 
3636.000000	94.373528 
3635.000000	94.341147 
3634.000000	94.300335 
3633.000000	94.260049 
3632.000000	94.230711 
3631.000000	94.207402 
3630.000000	94.175045 
3629.000000	94.138816 
3628.000000	94.117346 
3627.000000	94.108647 
3626.000000	94.098587 
3625.000000	94.083253 
3624.000000	94.069821 
3623.000000	94.066244 
3622.000000	94.070321 
3621.000000	94.070765 
3620.000000	94.061802 
3619.000000	94.050653 
3618.000000	94.046182 
3617.000000	94.051890 
3616.000000	94.069150 
3615.000000	94.095302 
3614.000000	94.124765 
3613.000000	94.154476 
3612.000000	94.183710 
3611.000000	94.209488 
3610.000000	94.227514 
3609.000000	94.238194 
3608.000000	94.247760 
3607.000000	94.260500 
3606.000000	94.274120 
3605.000000	94.286796 
3604.000000	94.301636 
3603.000000	94.322181 
3602.000000	94.347106 
3601.000000	94.370333 
3600.000000	94.388362 
3599.000000	94.401665 
3598.000000	94.412073 
3597.000000	94.421780 
3596.000000	94.433305 
3595.000000	94.445194 
3594.000000	94.454183 
3593.000000	94.459516 
3592.000000	94.464329 
3591.000000	94.472306 
3590.000000	94.481788 
3589.000000	94.486530 
3588.000000	94.484770 
3587.000000	94.482149 
3586.000000	94.483048 
3585.000000	94.487453 
3584.000000	94.495385 
3583.000000	94.507294 
3582.000000	94.521906 
3581.000000	94.534834 
3580.000000	94.541602 
3579.000000	94.541013 
3578.000000	94.535910 
3577.000000	94.530891 
3576.000000	94.529026 
3575.000000	94.530274 
3574.000000	94.532268 
3573.000000	94.533312 
3572.000000	94.533223 
3571.000000	94.532541 
3570.000000	94.529811 
3569.000000	94.521286 
3568.000000	94.506856 
3567.000000	94.493781 
3566.000000	94.488567 
3565.000000	94.490568 
3564.000000	94.496229 
3563.000000	94.503167 
3562.000000	94.509936 
3561.000000	94.515066 
3560.000000	94.517089 
3559.000000	94.515686 
3558.000000	94.511979 
3557.000000	94.508018 
3556.000000	94.505430 
3555.000000	94.504358 
3554.000000	94.503588 
3553.000000	94.502508 
3552.000000	94.502347 
3551.000000	94.504485 
3550.000000	94.508399 
3549.000000	94.512030 
3548.000000	94.513768 
3547.000000	94.513277 
3546.000000	94.510703 
3545.000000	94.506555 
3544.000000	94.502440 
3543.000000	94.500379 
3542.000000	94.500987 
3541.000000	94.503323 
3540.000000	94.506031 
3539.000000	94.507985 
3538.000000	94.508472 
3537.000000	94.507637 
3536.000000	94.506453 
3535.000000	94.505688 
3534.000000	94.505412 
3533.000000	94.505351 
3532.000000	94.505362 
3531.000000	94.505426 
3530.000000	94.505520 
3529.000000	94.505600 
3528.000000	94.505619 
3527.000000	94.505559 
3526.000000	94.505479 
3525.000000	94.505475 
3524.000000	94.505585 
3523.000000	94.505783 
3522.000000	94.505992 
3521.000000	94.506115 
3520.000000	94.506138 
3519.000000	94.506165 
3518.000000	94.506272 
3517.000000	94.506279 
3516.000000	94.505868 
3515.000000	94.505030 
3514.000000	94.504354 
3513.000000	94.504537 
3512.000000	94.505509 
3511.000000	94.506230 
3510.000000	94.505677 
3509.000000	94.503938 
3508.000000	94.502307 
3507.000000	94.502086 
3506.000000	94.503343 
3505.000000	94.504833 
3504.000000	94.505171 
3503.000000	94.503961 
3502.000000	94.501784 
3501.000000	94.499535 
3500.000000	94.497949 
3499.000000	94.497414 
3498.000000	94.497782 
3497.000000	94.498393 
3496.000000	94.498458 
3495.000000	94.497666 
3494.000000	94.496608 
3493.000000	94.496346 
3492.000000	94.497100 
3491.000000	94.497697 
3490.000000	94.496875 
3489.000000	94.494769 
3488.000000	94.492456 
3487.000000	94.490105 
3486.000000	94.486583 
3485.000000	94.481335 
3484.000000	94.475641 
3483.000000	94.471325 
3482.000000	94.468815 
3481.000000	94.467200 
3480.000000	94.465737 
3479.000000	94.464310 
3478.000000	94.462601 
3477.000000	94.459859 
3476.000000	94.455762 
3475.000000	94.450949 
3474.000000	94.446352 
3473.000000	94.442546 
3472.000000	94.439832 
3471.000000	94.438293 
3470.000000	94.437439 
3469.000000	94.436158 
3468.000000	94.433496 
3467.000000	94.429623 
3466.000000	94.425693 
3465.000000	94.422504 
3464.000000	94.419688 
3463.000000	94.416322 
3462.000000	94.411989 
3461.000000	94.406970 
3460.000000	94.401708 
3459.000000	94.396427 
3458.000000	94.391233 
3457.000000	94.386220 
3456.000000	94.381506 
3455.000000	94.377286 
3454.000000	94.373868 
3453.000000	94.371265 
3452.000000	94.369166 
3451.000000	94.367273 
3450.000000	94.365375 
3449.000000	94.363027 
3448.000000	94.359492 
3447.000000	94.354399 
3446.000000	94.348244 
3445.000000	94.342233 
3444.000000	94.337519 
3443.000000	94.334419 
3442.000000	94.332101 
3441.000000	94.329039 
3440.000000	94.324189 
3439.000000	94.317859 
3438.000000	94.311434 
3437.000000	94.306184 
3436.000000	94.302617 
3435.000000	94.300803 
3434.000000	94.300666 
3433.000000	94.301533 
3432.000000	94.302183 
3431.000000	94.301685 
3430.000000	94.299899 
3429.000000	94.297088 
3428.000000	94.293212 
3427.000000	94.288101 
3426.000000	94.282278 
3425.000000	94.277229 
3424.000000	94.274362 
3423.000000	94.273658 
3422.000000	94.273640 
3421.000000	94.272844 
3420.000000	94.271029 
3419.000000	94.268743 
3418.000000	94.266364 
3417.000000	94.264101 
3416.000000	94.262465 
3415.000000	94.261908 
3414.000000	94.261970 
3413.000000	94.261471 
3412.000000	94.259831 
3411.000000	94.257722 
3410.000000	94.256201 
3409.000000	94.255569 
3408.000000	94.255235 
3407.000000	94.254382 
3406.000000	94.252601 
3405.000000	94.250203 
3404.000000	94.248052 
3403.000000	94.246874 
3402.000000	94.246695 
3401.000000	94.247000 
3400.000000	94.247329 
3399.000000	94.247508 
3398.000000	94.247446 
3397.000000	94.247096 
3396.000000	94.246645 
3395.000000	94.246513 
3394.000000	94.246934 
3393.000000	94.247534 
3392.000000	94.247403 
3391.000000	94.245786 
3390.000000	94.242940 
3389.000000	94.240358 
3388.000000	94.239774 
3387.000000	94.241669 
3386.000000	94.244660 
3385.000000	94.246413 
3384.000000	94.245588 
3383.000000	94.242968 
3382.000000	94.240955 
3381.000000	94.241606 
3380.000000	94.244955 
3379.000000	94.249097 
3378.000000	94.252178 
3377.000000	94.254297 
3376.000000	94.256822 
3375.000000	94.260183 
3374.000000	94.263159 
3373.000000	94.264571 
3372.000000	94.264916 
3371.000000	94.265821 
3370.000000	94.268188 
3369.000000	94.271286 
3368.000000	94.273452 
3367.000000	94.273359 
3366.000000	94.270918 
3365.000000	94.267507 
3364.000000	94.265190 
3363.000000	94.265207 
3362.000000	94.267221 
3361.000000	94.270069 
3360.000000	94.273058 
3359.000000	94.276229 
3358.000000	94.279578 
3357.000000	94.282687 
3356.000000	94.285291 
3355.000000	94.287840 
3354.000000	94.291189 
3353.000000	94.295863 
3352.000000	94.301689 
3351.000000	94.307967 
3350.000000	94.313846 
3349.000000	94.318609 
3348.000000	94.321887 
3347.000000	94.323853 
3346.000000	94.325127 
3345.000000	94.326204 
3344.000000	94.326900 
3343.000000	94.326592 
3342.000000	94.325373 
3341.000000	94.324611 
3340.000000	94.325627 
3339.000000	94.328093 
3338.000000	94.330419 
3337.000000	94.331679 
3336.000000	94.332527 
3335.000000	94.334064 
3334.000000	94.336511 
3333.000000	94.339386 
3332.000000	94.342384 
3331.000000	94.345502 
3330.000000	94.348539 
3329.000000	94.351111 
3328.000000	94.353247 
3327.000000	94.355570 
3326.000000	94.358666 
3325.000000	94.362394 
3324.000000	94.365909 
3323.000000	94.368400 
3322.000000	94.369851 
3321.000000	94.371078 
3320.000000	94.373019 
3319.000000	94.376050 
3318.000000	94.379932 
3317.000000	94.384124 
3316.000000	94.388041 
3315.000000	94.391225 
3314.000000	94.393588 
3313.000000	94.395532 
3312.000000	94.397688 
3311.000000	94.400453 
3310.000000	94.403810 
3309.000000	94.407462 
3308.000000	94.410992 
3307.000000	94.413966 
3306.000000	94.416194 
3305.000000	94.417931 
3304.000000	94.419741 
3303.000000	94.422071 
3302.000000	94.424953 
3301.000000	94.428078 
3300.000000	94.431018 
3299.000000	94.433443 
3298.000000	94.435305 
3297.000000	94.436941 
3296.000000	94.438887 
3295.000000	94.441458 
3294.000000	94.444572 
3293.000000	94.447939 
3292.000000	94.451313 
3291.000000	94.454511 
3290.000000	94.457354 
3289.000000	94.459765 
3288.000000	94.461933 
3287.000000	94.464205 
3286.000000	94.466744 
3285.000000	94.469383 
3284.000000	94.471858 
3283.000000	94.474163 
3282.000000	94.476571 
3281.000000	94.479303 
3280.000000	94.482214 
3279.000000	94.484910 
3278.000000	94.487240 
3277.000000	94.489578 
3276.000000	94.492464 
3275.000000	94.495997 
3274.000000	94.499754 
3273.000000	94.503290 
3272.000000	94.506553 
3271.000000	94.509750 
3270.000000	94.512996 
3269.000000	94.516171 
3268.000000	94.519071 
3267.000000	94.521655 
3266.000000	94.524157 
3265.000000	94.526979 
3264.000000	94.530360 
3263.000000	94.534133 
3262.000000	94.537809 
3261.000000	94.541039 
3260.000000	94.543878 
3259.000000	94.546604 
3258.000000	94.549425 
3257.000000	94.552507 
3256.000000	94.556091 
3255.000000	94.560276 
3254.000000	94.564697 
3253.000000	94.568733 
3252.000000	94.572149 
3251.000000	94.575318 
3250.000000	94.578740 
3249.000000	94.582487 
3248.000000	94.586275 
3247.000000	94.589952 
3246.000000	94.593690 
3245.000000	94.597673 
3244.000000	94.601783 
3243.000000	94.605691 
3242.000000	94.609189 
3241.000000	94.612300 
3240.000000	94.615137 
3239.000000	94.617867 
3238.000000	94.620855 
3237.000000	94.624601 
3236.000000	94.629343 
3235.000000	94.634709 
3234.000000	94.639894 
3233.000000	94.644291 
3232.000000	94.647925 
3231.000000	94.651332 
3230.000000	94.655080 
3229.000000	94.659349 
3228.000000	94.663937 
3227.000000	94.668671 
3226.000000	94.673675 
3225.000000	94.679075 
3224.000000	94.684489 
3223.000000	94.689146 
3222.000000	94.692661 
3221.000000	94.695447 
3220.000000	94.698241 
3219.000000	94.701374 
3218.000000	94.704785 
3217.000000	94.708467 
3216.000000	94.712546 
3215.000000	94.717034 
3214.000000	94.721730 
3213.000000	94.726347 
3212.000000	94.730595 
3211.000000	94.734240 
3210.000000	94.737288 
3209.000000	94.740109 
3208.000000	94.743168 
3207.000000	94.746668 
3206.000000	94.750555 
3205.000000	94.754769 
3204.000000	94.759294 
3203.000000	94.763985 
3202.000000	94.768525 
3201.000000	94.772642 
3200.000000	94.776303 
3199.000000	94.779694 
3198.000000	94.783106 
3197.000000	94.786787 
3196.000000	94.790823 
3195.000000	94.795139 
3194.000000	94.799591 
3193.000000	94.804069 
3192.000000	94.808497 
3191.000000	94.812782 
3190.000000	94.816838 
3189.000000	94.820682 
3188.000000	94.824460 
3187.000000	94.828365 
3186.000000	94.832500 
3185.000000	94.836842 
3184.000000	94.841259 
3183.000000	94.845590 
3182.000000	94.849759 
3181.000000	94.853780 
3180.000000	94.857705 
3179.000000	94.861585 
3178.000000	94.865524 
3177.000000	94.869703 
3176.000000	94.874235 
3175.000000	94.879041 
3174.000000	94.883881 
3173.000000	94.888540 
3172.000000	94.892933 
3171.000000	94.897066 
3170.000000	94.901029 
3169.000000	94.905003 
3168.000000	94.909166 
3167.000000	94.913556 
3166.000000	94.918059 
3165.000000	94.922541 
3164.000000	94.926941 
3163.000000	94.931227 
3162.000000	94.935360 
3161.000000	94.939369 
3160.000000	94.943361 
3159.000000	94.947396 
3158.000000	94.951463 
3157.000000	94.955619 
3156.000000	94.960020 
3155.000000	94.964704 
3154.000000	94.969451 
3153.000000	94.973977 
3152.000000	94.978227 
3151.000000	94.982323 
3150.000000	94.986289 
3149.000000	94.989999 
3148.000000	94.993438 
3147.000000	94.996890 
3146.000000	95.000800 
3145.000000	95.005425 
3144.000000	95.010531 
3143.000000	95.015368 
3142.000000	95.019242 
3141.000000	95.022069 
3140.000000	95.024377 
3139.000000	95.026813 
3138.000000	95.029670 
3137.000000	95.032955 
3136.000000	95.036624 
3135.000000	95.040589 
3134.000000	95.044705 
3133.000000	95.048858 
3132.000000	95.052952 
3131.000000	95.056791 
3130.000000	95.060186 
3129.000000	95.063247 
3128.000000	95.066399 
3127.000000	95.069976 
3126.000000	95.073958 
3125.000000	95.078124 
3124.000000	95.082272 
3123.000000	95.086164 
3122.000000	95.089510 
3121.000000	95.092293 
3120.000000	95.094995 
3119.000000	95.098228 
3118.000000	95.102245 
3117.000000	95.106888 
3116.000000	95.111801 
3115.000000	95.116526 
3114.000000	95.120570 
3113.000000	95.123670 
3112.000000	95.126012 
3111.000000	95.128085 
3110.000000	95.130338 
3109.000000	95.133038 
3108.000000	95.136357 
3107.000000	95.140371 
3106.000000	95.144896 
3105.000000	95.149399 
3104.000000	95.153217 
3103.000000	95.155961 
3102.000000	95.157756 
3101.000000	95.159069 
3100.000000	95.160168 
3099.000000	95.160999 
3098.000000	95.161801 
3097.000000	95.163542 
3096.000000	95.167163 
3095.000000	95.172373 
3094.000000	95.177714 
3093.000000	95.182069 
3092.000000	95.185603 
3091.000000	95.189060 
3090.000000	95.192727 
3089.000000	95.196381 
3088.000000	95.199765 
3087.000000	95.202755 
3086.000000	95.205346 
3085.000000	95.207694 
3084.000000	95.209876 
3083.000000	95.211517 
3082.000000	95.212194 
3081.000000	95.212409 
3080.000000	95.213442 
3079.000000	95.215967 
3078.000000	95.219456 
3077.000000	95.223185 
3076.000000	95.227146 
3075.000000	95.231386 
3074.000000	95.235225 
3073.000000	95.237971 
3072.000000	95.239954 
3071.000000	95.242035 
3070.000000	95.244412 
3069.000000	95.246714 
3068.000000	95.248918 
3067.000000	95.251276 
3066.000000	95.253459 
3065.000000	95.254703 
3064.000000	95.254846 
3063.000000	95.254508 
3062.000000	95.254360 
3061.000000	95.254836 
3060.000000	95.256390 
3059.000000	95.259280 
3058.000000	95.263115 
3057.000000	95.267197 
3056.000000	95.271202 
3055.000000	95.274892 
3054.000000	95.277440 
3053.000000	95.278041 
3052.000000	95.277301 
3051.000000	95.277153 
3050.000000	95.278961 
3049.000000	95.282359 
3048.000000	95.286066 
3047.000000	95.289117 
3046.000000	95.291000 
3045.000000	95.291466 
3044.000000	95.291088 
3043.000000	95.291501 
3042.000000	95.294075 
3041.000000	95.298194 
3040.000000	95.301403 
3039.000000	95.301748 
3038.000000	95.299565 
3037.000000	95.296997 
3036.000000	95.295841 
3035.000000	95.295975 
3034.000000	95.296126 
3033.000000	95.295679 
3032.000000	95.295201 
3031.000000	95.295346 
3030.000000	95.295984 
3029.000000	95.296660 
3028.000000	95.297209 
3027.000000	95.297369 
3026.000000	95.296368 
3025.000000	95.293743 
3024.000000	95.290401 
3023.000000	95.288002 
3022.000000	95.287232 
3021.000000	95.287514 
3020.000000	95.288352 
3019.000000	95.289885 
3018.000000	95.291850 
3017.000000	95.293072 
3016.000000	95.292674 
3015.000000	95.291190 
3014.000000	95.289968 
3013.000000	95.289861 
3012.000000	95.290656 
3011.000000	95.291317 
3010.000000	95.290639 
3009.000000	95.288137 
3008.000000	95.284461 
3007.000000	95.280689 
3006.000000	95.277235 
3005.000000	95.273892 
3004.000000	95.270810 
3003.000000	95.268715 
3002.000000	95.268148 
3001.000000	95.269072 
3000.000000	95.271040 
2999.000000	95.272930 
2998.000000	95.272857 
2997.000000	95.269516 
2996.000000	95.263851 
2995.000000	95.258584 
2994.000000	95.255564 
2993.000000	95.254271 
2992.000000	95.252933 
2991.000000	95.250401 
2990.000000	95.246798 
2989.000000	95.243118 
2988.000000	95.240626 
2987.000000	95.240148 
2986.000000	95.241647 
2985.000000	95.244716 
2984.000000	95.249282 
2983.000000	95.255288 
2982.000000	95.261823 
2981.000000	95.267344 
2980.000000	95.270759 
2979.000000	95.271700 
2978.000000	95.269999 
2977.000000	95.266030 
2976.000000	95.261677 
2975.000000	95.259681 
2974.000000	95.261410 
2973.000000	95.265883 
2972.000000	95.271048 
2971.000000	95.275419 
2970.000000	95.278329 
2969.000000	95.279640 
2968.000000	95.279951 
2967.000000	95.280500 
2966.000000	95.282197 
2965.000000	95.285061 
2964.000000	95.288791 
2963.000000	95.293260 
2962.000000	95.298011 
2961.000000	95.301901 
2960.000000	95.303987 
2959.000000	95.304643 
2958.000000	95.305468 
2957.000000	95.308172 
2956.000000	95.313480 
2955.000000	95.320518 
2954.000000	95.327006 
2953.000000	95.330865 
2952.000000	95.332104 
2951.000000	95.332863 
2950.000000	95.335196 
2949.000000	95.339077 
2948.000000	95.342970 
2947.000000	95.345669 
2946.000000	95.346953 
2945.000000	95.346984 
2944.000000	95.346026 
2943.000000	95.344617 
2942.000000	95.343255 
2941.000000	95.341911 
2940.000000	95.340521 
2939.000000	95.339961 
2938.000000	95.341697 
2937.000000	95.346098 
2936.000000	95.351485 
2935.000000	95.355276 
2934.000000	95.356021 
2933.000000	95.354127 
2932.000000	95.351230 
2931.000000	95.349194 
2930.000000	95.349246 
2929.000000	95.351542 
2928.000000	95.355216 
2927.000000	95.358953 
2926.000000	95.361815 
2925.000000	95.363711 
2924.000000	95.365273 
2923.000000	95.367348 
2922.000000	95.370327 
2921.000000	95.373764 
2920.000000	95.376841 
2919.000000	95.379359 
2918.000000	95.381977 
2917.000000	95.385167 
2916.000000	95.388259 
2915.000000	95.390111 
2914.000000	95.390689 
2913.000000	95.391393 
2912.000000	95.393515 
2911.000000	95.396789 
2910.000000	95.399901 
2909.000000	95.402122 
2908.000000	95.403913 
2907.000000	95.405998 
2906.000000	95.408380 
2905.000000	95.410493 
2904.000000	95.411909 
2903.000000	95.412829 
2902.000000	95.413933 
2901.000000	95.415902 
2900.000000	95.419093 
2899.000000	95.423294 
2898.000000	95.427922 
2897.000000	95.432400 
2896.000000	95.436311 
2895.000000	95.439297 
2894.000000	95.441267 
2893.000000	95.442832 
2892.000000	95.445070 
2891.000000	95.448468 
2890.000000	95.452356 
2889.000000	95.455804 
2888.000000	95.458773 
2887.000000	95.461841 
2886.000000	95.465049 
2885.000000	95.467771 
2884.000000	95.469833 
2883.000000	95.472056 
2882.000000	95.475238 
2881.000000	95.479096 
2880.000000	95.482779 
2879.000000	95.486176 
2878.000000	95.490076 
2877.000000	95.495017 
2876.000000	95.500485 
2875.000000	95.505405 
2874.000000	95.509086 
2873.000000	95.511455 
2872.000000	95.512811 
2871.000000	95.513704 
2870.000000	95.514810 
2869.000000	95.516609 
2868.000000	95.519176 
2867.000000	95.522327 
2866.000000	95.525829 
2865.000000	95.529367 
2864.000000	95.532594 
2863.000000	95.535527 
2862.000000	95.538695 
2861.000000	95.542516 
2860.000000	95.546554 
2859.000000	95.549824 
2858.000000	95.551980 
2857.000000	95.553819 
2856.000000	95.556408 
2855.000000	95.559895 
2854.000000	95.563514 
2853.000000	95.566528 
2852.000000	95.568858 
2851.000000	95.570870 
2850.000000	95.573022 
2849.000000	95.575817 
2848.000000	95.579685 
2847.000000	95.584616 
2846.000000	95.589966 
2845.000000	95.594740 
2844.000000	95.598176 
2843.000000	95.600217 
2842.000000	95.601697 
2841.000000	95.603914 
2840.000000	95.607577 
2839.000000	95.612164 
2838.000000	95.616558 
2837.000000	95.620378 
2836.000000	95.624170 
2835.000000	95.628240 
2834.000000	95.631915 
2833.000000	95.634421 
2832.000000	95.635972 
2831.000000	95.637488 
2830.000000	95.639436 
2829.000000	95.641502 
2828.000000	95.643403 
2827.000000	95.645497 
2826.000000	95.648382 
2825.000000	95.652142 
2824.000000	95.656188 
2823.000000	95.659767 
2822.000000	95.662613 
2821.000000	95.665087 
2820.000000	95.667614 
2819.000000	95.670004 
2818.000000	95.671564 
2817.000000	95.672011 
2816.000000	95.671981 
2815.000000	95.672474 
2814.000000	95.673874 
2813.000000	95.675788 
2812.000000	95.677687 
2811.000000	95.679437 
2810.000000	95.681247 
2809.000000	95.683356 
2808.000000	95.685821 
2807.000000	95.688449 
2806.000000	95.690870 
2805.000000	95.692773 
2804.000000	95.694167 
2803.000000	95.695354 
2802.000000	95.696701 
2801.000000	95.698444 
2800.000000	95.700594 
2799.000000	95.702866 
2798.000000	95.704760 
2797.000000	95.705939 
2796.000000	95.706541 
2795.000000	95.707101 
2794.000000	95.708104 
2793.000000	95.709639 
2792.000000	95.711508 
2791.000000	95.713457 
2790.000000	95.715280 
2789.000000	95.716823 
2788.000000	95.718023 
2787.000000	95.718966 
2786.000000	95.719875 
2785.000000	95.720952 
2784.000000	95.722229 
2783.000000	95.723616 
2782.000000	95.725045 
2781.000000	95.726541 
2780.000000	95.728131 
2779.000000	95.729775 
2778.000000	95.731385 
2777.000000	95.732892 
2776.000000	95.734281 
2775.000000	95.735570 
2774.000000	95.736797 
2773.000000	95.738018 
2772.000000	95.739294 
2771.000000	95.740662 
2770.000000	95.742122 
2769.000000	95.743634 
2768.000000	95.745134 
2767.000000	95.746551 
2766.000000	95.747834 
2765.000000	95.748994 
2764.000000	95.750123 
2763.000000	95.751333 
2762.000000	95.752660 
2761.000000	95.754028 
2760.000000	95.755318 
2759.000000	95.756492 
2758.000000	95.757612 
2757.000000	95.758720 
2756.000000	95.759767 
2755.000000	95.760713 
2754.000000	95.761642 
2753.000000	95.762696 
2752.000000	95.763902 
2751.000000	95.765156 
2750.000000	95.766348 
2749.000000	95.767493 
2748.000000	95.768634 
2747.000000	95.769730 
2746.000000	95.770719 
2745.000000	95.771639 
2744.000000	95.772593 
2743.000000	95.773608 
2742.000000	95.774619 
2741.000000	95.775574 
2740.000000	95.776488 
2739.000000	95.777390 
2738.000000	95.778285 
2737.000000	95.779168 
2736.000000	95.780042 
2735.000000	95.780914 
2734.000000	95.781785 
2733.000000	95.782653 
2732.000000	95.783522 
2731.000000	95.784389 
2730.000000	95.785237 
2729.000000	95.786054 
2728.000000	95.786839 
2727.000000	95.787596 
2726.000000	95.788329 
2725.000000	95.789046 
2724.000000	95.789754 
2723.000000	95.790461 
2722.000000	95.791164 
2721.000000	95.791858 
2720.000000	95.792537 
2719.000000	95.793202 
2718.000000	95.793862 
2717.000000	95.794522 
2716.000000	95.795184 
2715.000000	95.795848 
2714.000000	95.796516 
2713.000000	95.797192 
2712.000000	95.797873 
2711.000000	95.798556 
2710.000000	95.799233 
2709.000000	95.799905 
2708.000000	95.800571 
2707.000000	95.801235 
2706.000000	95.801897 
2705.000000	95.802556 
2704.000000	95.803211 
2703.000000	95.803862 
2702.000000	95.804514 
2701.000000	95.805171 
2700.000000	95.805835 
2699.000000	95.806506 
2698.000000	95.807179 
2697.000000	95.807846 
2696.000000	95.808500 
2695.000000	95.809140 
2694.000000	95.809769 
2693.000000	95.810390 
2692.000000	95.811007 
2691.000000	95.811617 
2690.000000	95.812218 
2689.000000	95.812811 
2688.000000	95.813400 
2687.000000	95.813991 
2686.000000	95.814586 
2685.000000	95.815184 
2684.000000	95.815777 
2683.000000	95.816360 
2682.000000	95.816927 
2681.000000	95.817478 
2680.000000	95.818016 
2679.000000	95.818546 
2678.000000	95.819071 
2677.000000	95.819589 
2676.000000	95.820095 
2675.000000	95.820584 
2674.000000	95.821056 
2673.000000	95.821514 
2672.000000	95.821960 
2671.000000	95.822389 
2670.000000	95.822795 
2669.000000	95.823174 
2668.000000	95.823521 
2667.000000	95.823829 
2666.000000	95.824108 
2665.000000	95.824378 
2664.000000	95.824643 
2663.000000	95.824914 
2662.000000	95.825226 
2661.000000	95.825597 
2660.000000	95.825944 
2659.000000	95.826148 
2658.000000	95.826198 
2657.000000	95.826228 
2656.000000	95.826338 
2655.000000	95.826472 
2654.000000	95.826509 
2653.000000	95.826407 
2652.000000	95.826211 
2651.000000	95.826003 
2650.000000	95.825879 
2649.000000	95.825903 
2648.000000	95.826003 
2647.000000	95.825990 
2646.000000	95.825754 
2645.000000	95.825359 
2644.000000	95.824910 
2643.000000	95.824429 
2642.000000	95.823950 
2641.000000	95.823643 
2640.000000	95.823646 
2639.000000	95.823849 
2638.000000	95.823973 
2637.000000	95.823884 
2636.000000	95.823660 
2635.000000	95.823421 
2634.000000	95.823240 
2633.000000	95.823181 
2632.000000	95.823224 
2631.000000	95.823171 
2630.000000	95.822813 
2629.000000	95.822213 
2628.000000	95.821705 
2627.000000	95.821478 
2626.000000	95.821413 
2625.000000	95.821384 
2624.000000	95.821482 
2623.000000	95.821771 
2622.000000	95.822025 
2621.000000	95.821959 
2620.000000	95.821552 
2619.000000	95.820947 
2618.000000	95.820195 
2617.000000	95.819363 
2616.000000	95.818752 
2615.000000	95.818640 
2614.000000	95.818925 
2613.000000	95.819193 
2612.000000	95.819236 
2611.000000	95.819246 
2610.000000	95.819446 
2609.000000	95.819746 
2608.000000	95.819861 
2607.000000	95.819684 
2606.000000	95.819459 
2605.000000	95.819539 
2604.000000	95.820034 
2603.000000	95.820661 
2602.000000	95.821037 
2601.000000	95.821138 
2600.000000	95.821276 
2599.000000	95.821542 
2598.000000	95.821567 
2597.000000	95.821059 
2596.000000	95.820267 
2595.000000	95.819675 
2594.000000	95.819400 
2593.000000	95.819237 
2592.000000	95.819224 
2591.000000	95.819674 
2590.000000	95.820672 
2589.000000	95.821911 
2588.000000	95.823076 
2587.000000	95.823968 
2586.000000	95.824308 
2585.000000	95.823913 
2584.000000	95.823162 
2583.000000	95.822833 
2582.000000	95.823289 
2581.000000	95.824154 
2580.000000	95.824928 
2579.000000	95.825624 
2578.000000	95.826608 
2577.000000	95.827948 
2576.000000	95.829057 
2575.000000	95.829041 
2574.000000	95.827510 
2573.000000	95.825043 
2572.000000	95.822791 
2571.000000	95.821452 
2570.000000	95.820984 
2569.000000	95.821332 
2568.000000	95.822807 
2567.000000	95.825329 
2566.000000	95.827737 
2565.000000	95.828648 
2564.000000	95.827888 
2563.000000	95.826539 
2562.000000	95.825651 
2561.000000	95.825534 
2560.000000	95.826327 
2559.000000	95.828374 
2558.000000	95.831633 
2557.000000	95.835200 
2556.000000	95.837940 
2555.000000	95.839417 
2554.000000	95.839849 
2553.000000	95.839470 
2552.000000	95.838427 
2551.000000	95.837258 
2550.000000	95.836781 
2549.000000	95.837133 
2548.000000	95.837295 
2547.000000	95.836182 
2546.000000	95.834137 
2545.000000	95.832796 
2544.000000	95.833104 
2543.000000	95.834083 
2542.000000	95.834090 
2541.000000	95.833050 
2540.000000	95.832540 
2539.000000	95.833654 
2538.000000	95.835762 
2537.000000	95.837610 
2536.000000	95.838908 
2535.000000	95.840119 
2534.000000	95.841173 
2533.000000	95.841318 
2532.000000	95.840194 
2531.000000	95.838376 
2530.000000	95.836732 
2529.000000	95.835647 
2528.000000	95.835053 
2527.000000	95.834921 
2526.000000	95.835470 
2525.000000	95.836960 
2524.000000	95.839323 
2523.000000	95.841933 
2522.000000	95.843811 
2521.000000	95.844392 
2520.000000	95.843943 
2519.000000	95.843295 
2518.000000	95.843167 
2517.000000	95.843668 
2516.000000	95.844437 
2515.000000	95.845091 
2514.000000	95.845572 
2513.000000	95.846134 
2512.000000	95.847010 
2511.000000	95.848159 
2510.000000	95.849355 
2509.000000	95.850465 
2508.000000	95.851486 
2507.000000	95.852350 
2506.000000	95.852930 
2505.000000	95.853350 
2504.000000	95.854040 
2503.000000	95.855221 
2502.000000	95.856510 
2501.000000	95.857333 
2500.000000	95.857633 
2499.000000	95.857869 
2498.000000	95.858390 
2497.000000	95.859127 
2496.000000	95.859941 
2495.000000	95.860910 
2494.000000	95.862086 
2493.000000	95.863235 
2492.000000	95.864086 
2491.000000	95.864749 
2490.000000	95.865624 
2489.000000	95.866872 
2488.000000	95.868131 
2487.000000	95.868914 
2486.000000	95.869208 
2485.000000	95.869527 
2484.000000	95.870414 
2483.000000	95.871979 
2482.000000	95.873826 
2481.000000	95.875378 
2480.000000	95.876318 
2479.000000	95.876711 
2478.000000	95.876884 
2477.000000	95.877188 
2476.000000	95.877696 
2475.000000	95.878122 
2474.000000	95.878092 
2473.000000	95.877556 
2472.000000	95.876881 
2471.000000	95.876544 
2470.000000	95.876759 
2469.000000	95.877444 
2468.000000	95.878374 
2467.000000	95.879273 
2466.000000	95.879855 
2465.000000	95.879946 
2464.000000	95.879643 
2463.000000	95.879329 
2462.000000	95.879441 
2461.000000	95.880165 
2460.000000	95.881319 
2459.000000	95.882493 
2458.000000	95.883337 
2457.000000	95.883691 
2456.000000	95.883542 
2455.000000	95.883008 
2454.000000	95.882383 
2453.000000	95.881980 
2452.000000	95.881831 
2451.000000	95.881711 
2450.000000	95.881623 
2449.000000	95.881999 
2448.000000	95.883143 
2447.000000	95.884714 
2446.000000	95.885951 
2445.000000	95.886453 
2444.000000	95.886356 
2443.000000	95.885974 
2442.000000	95.885533 
2441.000000	95.885259 
2440.000000	95.885396 
2439.000000	95.885984 
2438.000000	95.886829 
2437.000000	95.887771 
2436.000000	95.888815 
2435.000000	95.889923 
2434.000000	95.890885 
2433.000000	95.891517 
2432.000000	95.891867 
2431.000000	95.892099 
2430.000000	95.892364 
2429.000000	95.892834 
2428.000000	95.893621 
2427.000000	95.894522 
2426.000000	95.895051 
2425.000000	95.894888 
2424.000000	95.894273 
2423.000000	95.893833 
2422.000000	95.893964 
2421.000000	95.894679 
2420.000000	95.895961 
2419.000000	95.897723 
2418.000000	95.899500 
2417.000000	95.900770 
2416.000000	95.901565 
2415.000000	95.902367 
2414.000000	95.903375 
2413.000000	95.904511 
2412.000000	95.905829 
2411.000000	95.907012 
2410.000000	95.907113 
2409.000000	95.905969 
2408.000000	95.905244 
2407.000000	95.906635 
2406.000000	95.909411 
2405.000000	95.911085 
2404.000000	95.910376 
2403.000000	95.908398 
2402.000000	95.907263 
2401.000000	95.908491 
2400.000000	95.912424 
2399.000000	95.917994 
2398.000000	95.923298 
2397.000000	95.927265 
2396.000000	95.930179 
2395.000000	95.932104 
2394.000000	95.932002 
2393.000000	95.929597 
2392.000000	95.926962 
2391.000000	95.926473 
2390.000000	95.927785 
2389.000000	95.928422 
2388.000000	95.926808 
2387.000000	95.923117 
2386.000000	95.917800 
2385.000000	95.911408 
2384.000000	95.905850 
2383.000000	95.903885 
2382.000000	95.907052 
2381.000000	95.915341 
2380.000000	95.928560 
2379.000000	95.945831 
2378.000000	95.963132 
2377.000000	95.974021 
2376.000000	95.974848 
2375.000000	95.967955 
2374.000000	95.958698 
2373.000000	95.949841 
2372.000000	95.940976 
2371.000000	95.932421 
2370.000000	95.926374 
2369.000000	95.923869 
2368.000000	95.922748 
2367.000000	95.919872 
2366.000000	95.914810 
2365.000000	95.910458 
2364.000000	95.909482 
2363.000000	95.911112 
2362.000000	95.912884 
2361.000000	95.912885 
2360.000000	95.909647 
2359.000000	95.903005 
2358.000000	95.895116 
2357.000000	95.890913 
2356.000000	95.892970 
2355.000000	95.898044 
2354.000000	95.900569 
2353.000000	95.897392 
2352.000000	95.891181 
2351.000000	95.884615 
2350.000000	95.877486 
2349.000000	95.870377 
2348.000000	95.865698 
2347.000000	95.864375 
2346.000000	95.860668 
2345.000000	95.851184 
2344.000000	95.840010 
2343.000000	95.832532 
2342.000000	95.831984 
2341.000000	95.837281 
2340.000000	95.845246 
2339.000000	95.850845 
2338.000000	95.851465 
2337.000000	95.847978 
2336.000000	95.843398 
2335.000000	95.839258 
2334.000000	95.834748 
2333.000000	95.827650 
2332.000000	95.818351 
2331.000000	95.808560 
2330.000000	95.797717 
2329.000000	95.783675 
2328.000000	95.765353 
2327.000000	95.748905 
2326.000000	95.739062 
2325.000000	95.737020 
2324.000000	95.739743 
2323.000000	95.744513 
2322.000000	95.749392 
2321.000000	95.750921 
2320.000000	95.748718 
2319.000000	95.746397 
2318.000000	95.748896 
2317.000000	95.756452 
2316.000000	95.765173 
2315.000000	95.770957 
2314.000000	95.771348 
2313.000000	95.766886 
2312.000000	95.760019 
2311.000000	95.754546 
2310.000000	95.750911 
2309.000000	95.747605 
2308.000000	95.744445 
2307.000000	95.745475 
2306.000000	95.752678 
2305.000000	95.762036 
2304.000000	95.766763 
2303.000000	95.765580 
2302.000000	95.763231 
2301.000000	95.764191 
2300.000000	95.767611 
2299.000000	95.770065 
2298.000000	95.769706 
2297.000000	95.767737 
2296.000000	95.765383 
2295.000000	95.763355 
2294.000000	95.761912 
2293.000000	95.762193 
2292.000000	95.764693 
2291.000000	95.768718 
2290.000000	95.772633 
2289.000000	95.776179 
2288.000000	95.780717 
2287.000000	95.786990 
2286.000000	95.793203 
2285.000000	95.797071 
2284.000000	95.799252 
2283.000000	95.802626 
2282.000000	95.808327 
2281.000000	95.813970 
2280.000000	95.816603 
2279.000000	95.815677 
2278.000000	95.812826 
2277.000000	95.809890 
2276.000000	95.808385 
2275.000000	95.809736 
2274.000000	95.814640 
2273.000000	95.822209 
2272.000000	95.830191 
2271.000000	95.836229 
2270.000000	95.839082 
2269.000000	95.839406 
2268.000000	95.839311 
2267.000000	95.840095 
2266.000000	95.840345 
2265.000000	95.837893 
2264.000000	95.833029 
2263.000000	95.828203 
2262.000000	95.824717 
2261.000000	95.821795 
2260.000000	95.818913 
2259.000000	95.816837 
2258.000000	95.816044 
2257.000000	95.816048 
2256.000000	95.817103 
2255.000000	95.820439 
2254.000000	95.825902 
2253.000000	95.830743 
2252.000000	95.832124 
2251.000000	95.829809 
2250.000000	95.825476 
2249.000000	95.820900 
2248.000000	95.817290 
2247.000000	95.815407 
2246.000000	95.815161 
2245.000000	95.815324 
2244.000000	95.814553 
2243.000000	95.812751 
2242.000000	95.810884 
2241.000000	95.809785 
2240.000000	95.809486 
2239.000000	95.809486 
2238.000000	95.809173 
2237.000000	95.808193 
2236.000000	95.806687 
2235.000000	95.805120 
2234.000000	95.803804 
2233.000000	95.802678 
2232.000000	95.801558 
2231.000000	95.800356 
2230.000000	95.799022 
2229.000000	95.797538 
2228.000000	95.796000 
2227.000000	95.794540 
2226.000000	95.793185 
2225.000000	95.791879 
2224.000000	95.790580 
2223.000000	95.789279 
2222.000000	95.787987 
2221.000000	95.786711 
2220.000000	95.785443 
2219.000000	95.784164 
2218.000000	95.782872 
2217.000000	95.781585 
2216.000000	95.780327 
2215.000000	95.779100 
2214.000000	95.777891 
2213.000000	95.776684 
2212.000000	95.775487 
2211.000000	95.774336 
2210.000000	95.773264 
2209.000000	95.772263 
2208.000000	95.771295 
2207.000000	95.770326 
2206.000000	95.769332 
2205.000000	95.768309 
2204.000000	95.767300 
2203.000000	95.766478 
2202.000000	95.766166 
2201.000000	95.766427 
2200.000000	95.766502 
2199.000000	95.765130 
2198.000000	95.761633 
2197.000000	95.756761 
2196.000000	95.752368 
2195.000000	95.750010 
2194.000000	95.749880 
2193.000000	95.750987 
2192.000000	95.752374 
2191.000000	95.753537 
2190.000000	95.753571 
2189.000000	95.751453 
2188.000000	95.747876 
2187.000000	95.745127 
2186.000000	95.743856 
2185.000000	95.741700 
2184.000000	95.737248 
2183.000000	95.733837 
2182.000000	95.736005 
2181.000000	95.742732 
2180.000000	95.747354 
2179.000000	95.745266 
2178.000000	95.738986 
2177.000000	95.734862 
2176.000000	95.736541 
2175.000000	95.742614 
2174.000000	95.749041 
2173.000000	95.752966 
2172.000000	95.754993 
2171.000000	95.757833 
2170.000000	95.761844 
2169.000000	95.762634 
2168.000000	95.755271 
2167.000000	95.740833 
2166.000000	95.726593 
2165.000000	95.718368 
2164.000000	95.714945 
2163.000000	95.711700 
2162.000000	95.707877 
2161.000000	95.707922 
2160.000000	95.716334 
2159.000000	95.733311 
2158.000000	95.754735 
2157.000000	95.775000 
2156.000000	95.790162 
2155.000000	95.799263 
2154.000000	95.803648 
2153.000000	95.805590 
2152.000000	95.806592 
2151.000000	95.805879 
2150.000000	95.801329 
2149.000000	95.793468 
2148.000000	95.787915 
2147.000000	95.791066 
2146.000000	95.802944 
2145.000000	95.816534 
2144.000000	95.825697 
2143.000000	95.831394 
2142.000000	95.837542 
2141.000000	95.843664 
2140.000000	95.845790 
2139.000000	95.843906 
2138.000000	95.844118 
2137.000000	95.851787 
2136.000000	95.864922 
2135.000000	95.875998 
2134.000000	95.879349 
2133.000000	95.875419 
2132.000000	95.869160 
2131.000000	95.865445 
2130.000000	95.865733 
2129.000000	95.868204 
2128.000000	95.870281 
2127.000000	95.871028 
2126.000000	95.871379 
2125.000000	95.872558 
2124.000000	95.874613 
2123.000000	95.876319 
2122.000000	95.876318 
2121.000000	95.874432 
2120.000000	95.871902 
2119.000000	95.870305 
2118.000000	95.870260 
2117.000000	95.871230 
2116.000000	95.872158 
2115.000000	95.871875 
2114.000000	95.869345 
2113.000000	95.864614 
2112.000000	95.859791 
2111.000000	95.857864 
2110.000000	95.859927 
2109.000000	95.864211 
2108.000000	95.868028 
2107.000000	95.870282 
2106.000000	95.871446 
2105.000000	95.872031 
2104.000000	95.872154 
2103.000000	95.871974 
2102.000000	95.871332 
2101.000000	95.869343 
2100.000000	95.865514 
2099.000000	95.861075 
2098.000000	95.858373 
2097.000000	95.858660 
2096.000000	95.861212 
2095.000000	95.864360 
2094.000000	95.866728 
2093.000000	95.867646 
2092.000000	95.866972 
2091.000000	95.865087 
2090.000000	95.862961 
2089.000000	95.861530 
2088.000000	95.860977 
2087.000000	95.860641 
2086.000000	95.859594 
2085.000000	95.857368 
2084.000000	95.854271 
2083.000000	95.851125 
2082.000000	95.848665 
2081.000000	95.847190 
2080.000000	95.846773 
2079.000000	95.847447 
2078.000000	95.848827 
2077.000000	95.849859 
2076.000000	95.849607 
2075.000000	95.848310 
2074.000000	95.847091 
2073.000000	95.846378 
2072.000000	95.845309 
2071.000000	95.843046 
2070.000000	95.840040 
2069.000000	95.837604 
2068.000000	95.836595 
2067.000000	95.836731 
2066.000000	95.836979 
2065.000000	95.836377 
2064.000000	95.834724 
2063.000000	95.832753 
2062.000000	95.831584 
2061.000000	95.831827 
2060.000000	95.833261 
2059.000000	95.835234 
2058.000000	95.837113 
2057.000000	95.838379 
2056.000000	95.838467 
2055.000000	95.836903 
2054.000000	95.833945 
2053.000000	95.830826 
2052.000000	95.828941 
2051.000000	95.828551 
2050.000000	95.828628 
2049.000000	95.828110 
2048.000000	95.827134 
2047.000000	95.826670 
2046.000000	95.827162 
2045.000000	95.828122 
2044.000000	95.828971 
2043.000000	95.829734 
2042.000000	95.830745 
2041.000000	95.832108 
2040.000000	95.833723 
2039.000000	95.835549 
2038.000000	95.837464 
2037.000000	95.839030 
2036.000000	95.839764 
2035.000000	95.839657 
2034.000000	95.839344 
2033.000000	95.839676 
2032.000000	95.840994 
2031.000000	95.842816 
2030.000000	95.844108 
2029.000000	95.844229 
2028.000000	95.843444 
2027.000000	95.842707 
2026.000000	95.842686 
2025.000000	95.843320 
2024.000000	95.844357 
2023.000000	95.845888 
2022.000000	95.848066 
2021.000000	95.850492 
2020.000000	95.852275 
2019.000000	95.852798 
2018.000000	95.852152 
2017.000000	95.851054 
2016.000000	95.850353 
2015.000000	95.850470 
2014.000000	95.851042 
2013.000000	95.851062 
2012.000000	95.849860 
2011.000000	95.848032 
2010.000000	95.847086 
2009.000000	95.847882 
2008.000000	95.849927 
2007.000000	95.852051 
2006.000000	95.853626 
2005.000000	95.854638 
2004.000000	95.855061 
2003.000000	95.854829 
2002.000000	95.854266 
2001.000000	95.853755 
2000.000000	95.853012 
1999.000000	95.851134 
1998.000000	95.847529 
1997.000000	95.842922 
1996.000000	95.839275 
1995.000000	95.838279 
1994.000000	95.839888 
1993.000000	95.842164 
1992.000000	95.842957 
1991.000000	95.842050 
1990.000000	95.841119 
1989.000000	95.841656 
1988.000000	95.843348 
1987.000000	95.844499 
1986.000000	95.843703 
1985.000000	95.840990 
1984.000000	95.837405 
1983.000000	95.833795 
1982.000000	95.830290 
1981.000000	95.826945 
1980.000000	95.824745 
1979.000000	95.825023 
1978.000000	95.827627 
1977.000000	95.830733 
1976.000000	95.832809 
1975.000000	95.834114 
1974.000000	95.835706 
1973.000000	95.837843 
1972.000000	95.839794 
1971.000000	95.840666 
1970.000000	95.839915 
1969.000000	95.837532 
1968.000000	95.834222 
1967.000000	95.831504 
1966.000000	95.831218 
1965.000000	95.834323 
1964.000000	95.840253 
1963.000000	95.847107 
1962.000000	95.852765 
1961.000000	95.856147 
1960.000000	95.857256 
1959.000000	95.856491 
1958.000000	95.854648 
1957.000000	95.853297 
1956.000000	95.853858 
1955.000000	95.856047 
1954.000000	95.857981 
1953.000000	95.858357 
1952.000000	95.857697 
1951.000000	95.857222 
1950.000000	95.857528 
1949.000000	95.858778 
1948.000000	95.861317 
1947.000000	95.865117 
1946.000000	95.868915 
1945.000000	95.871005 
1944.000000	95.870886 
1943.000000	95.869518 
1942.000000	95.868236 
1941.000000	95.867563 
1940.000000	95.867348 
1939.000000	95.867435 
1938.000000	95.867931 
1937.000000	95.869181 
1936.000000	95.871341 
1935.000000	95.873772 
1934.000000	95.875246 
1933.000000	95.875295 
1932.000000	95.874864 
1931.000000	95.875331 
1930.000000	95.876933 
1929.000000	95.878524 
1928.000000	95.879244 
1927.000000	95.879509 
1926.000000	95.880107 
1925.000000	95.880943 
1924.000000	95.881216 
1923.000000	95.880681 
1922.000000	95.879750 
1921.000000	95.878626 
1920.000000	95.877259 
1919.000000	95.875759 
1918.000000	95.874404 
1917.000000	95.873283 
1916.000000	95.872421 
1915.000000	95.872231 
1914.000000	95.872950 
1913.000000	95.873978 
1912.000000	95.874370 
1911.000000	95.873909 
1910.000000	95.873100 
1909.000000	95.872303 
1908.000000	95.871644 
1907.000000	95.871160 
1906.000000	95.870664 
1905.000000	95.869569 
1904.000000	95.867470 
1903.000000	95.865121 
1902.000000	95.863776 
1901.000000	95.863652 
1900.000000	95.863954 
1899.000000	95.863924 
1898.000000	95.863397 
1897.000000	95.862428 
1896.000000	95.860936 
1895.000000	95.859090 
1894.000000	95.857250 
1893.000000	95.855391 
1892.000000	95.853353 
1891.000000	95.851547 
1890.000000	95.850704 
1889.000000	95.850912 
1888.000000	95.851601 
1887.000000	95.852501 
1886.000000	95.853563 
1885.000000	95.854104 
1884.000000	95.853206 
1883.000000	95.851104 
1882.000000	95.849409 
1881.000000	95.849485 
1880.000000	95.851314 
1879.000000	95.853535 
1878.000000	95.854518 
1877.000000	95.853909 
1876.000000	95.852905 
1875.000000	95.853040 
1874.000000	95.854757 
1873.000000	95.857206 
1872.000000	95.859363 
1871.000000	95.860898 
1870.000000	95.861645 
1869.000000	95.861351 
1868.000000	95.860597 
1867.000000	95.860980 
1866.000000	95.863208 
1865.000000	95.865826 
1864.000000	95.867043 
1863.000000	95.867240 
1862.000000	95.868283 
1861.000000	95.870841 
1860.000000	95.874059 
1859.000000	95.877524 
1858.000000	95.881577 
1857.000000	95.885721 
1856.000000	95.888953 
1855.000000	95.891325 
1854.000000	95.893592 
1853.000000	95.895480 
1852.000000	95.896967 
1851.000000	95.899543 
1850.000000	95.904256 
1849.000000	95.910074 
1848.000000	95.914898 
1847.000000	95.918099 
1846.000000	95.920296 
1845.000000	95.921645 
1844.000000	95.922385 
1843.000000	95.923785 
1842.000000	95.926641 
1841.000000	95.930195 
1840.000000	95.933779 
1839.000000	95.937455 
1838.000000	95.941039 
1837.000000	95.943126 
1836.000000	95.942766 
1835.000000	95.941918 
1834.000000	95.943540 
1833.000000	95.947886 
1832.000000	95.952853 
1831.000000	95.955846 
1830.000000	95.955957 
1829.000000	95.954895 
1828.000000	95.954573 
1827.000000	95.955185 
1826.000000	95.955579 
1825.000000	95.955264 
1824.000000	95.955235 
1823.000000	95.956563 
1822.000000	95.959094 
1821.000000	95.961248 
1820.000000	95.961484 
1819.000000	95.960044 
1818.000000	95.959282 
1817.000000	95.960704 
1816.000000	95.962679 
1815.000000	95.963587 
1814.000000	95.964192 
1813.000000	95.966137 
1812.000000	95.968884 
1811.000000	95.969995 
1810.000000	95.969248 
1809.000000	95.968112 
1808.000000	95.966679 
1807.000000	95.964791 
1806.000000	95.963844 
1805.000000	95.964949 
1804.000000	95.966365 
1803.000000	95.965537 
1802.000000	95.961939 
1801.000000	95.958124 
1800.000000	95.956542 
1799.000000	95.957107 
1798.000000	95.959073 
1797.000000	95.961248 
1796.000000	95.962576 
1795.000000	95.964139 
1794.000000	95.967480 
1793.000000	95.971382 
1792.000000	95.971988 
1791.000000	95.968385 
1790.000000	95.965146 
1789.000000	95.966080 
1788.000000	95.970564 
1787.000000	95.975744 
1786.000000	95.979955 
1785.000000	95.983475 
1784.000000	95.986621 
1783.000000	95.990017 
1782.000000	95.993210 
1781.000000	95.995358 
1780.000000	95.996828 
1779.000000	95.998647 
1778.000000	96.001970 
1777.000000	96.005998 
1776.000000	96.009148 
1775.000000	96.010954 
1774.000000	96.011820 
1773.000000	96.013157 
1772.000000	96.016693 
1771.000000	96.020989 
1770.000000	96.023585 
1769.000000	96.024394 
1768.000000	96.024540 
1767.000000	96.025220 
1766.000000	96.026832 
1765.000000	96.029740 
1764.000000	96.034069 
1763.000000	96.038698 
1762.000000	96.041912 
1761.000000	96.044123 
1760.000000	96.046373 
1759.000000	96.048390 
1758.000000	96.049114 
1757.000000	96.048228 
1756.000000	96.048535 
1755.000000	96.051192 
1754.000000	96.053578 
1753.000000	96.053045 
1752.000000	96.050329 
1751.000000	96.049071 
1750.000000	96.051499 
1749.000000	96.055768 
1748.000000	96.059494 
1747.000000	96.062765 
1746.000000	96.064624 
1745.000000	96.064426 
1744.000000	96.063177 
1743.000000	96.061433 
1742.000000	96.059143 
1741.000000	96.057488 
1740.000000	96.057736 
1739.000000	96.059400 
1738.000000	96.060416 
1737.000000	96.060316 
1736.000000	96.060124 
1735.000000	96.058963 
1734.000000	96.057173 
1733.000000	96.056130 
1732.000000	96.056742 
1731.000000	96.059845 
1730.000000	96.063599 
1729.000000	96.064240 
1728.000000	96.062047 
1727.000000	96.061013 
1726.000000	96.062311 
1725.000000	96.064211 
1724.000000	96.064254 
1723.000000	96.062369 
1722.000000	96.061579 
1721.000000	96.062616 
1720.000000	96.062842 
1719.000000	96.058470 
1718.000000	96.050591 
1717.000000	96.044933 
1716.000000	96.040112 
1715.000000	96.034293 
1714.000000	96.031415 
1713.000000	96.032005 
1712.000000	96.031272 
1711.000000	96.027915 
1710.000000	96.024781 
1709.000000	96.022827 
1708.000000	96.020723 
1707.000000	96.018100 
1706.000000	96.015969 
1705.000000	96.012378 
1704.000000	96.002165 
1703.000000	95.986027 
1702.000000	95.970576 
1701.000000	95.961797 
1700.000000	95.959544 
1699.000000	95.955080 
1698.000000	95.949092 
1697.000000	95.945187 
1696.000000	95.941062 
1695.000000	95.935531 
1694.000000	95.930131 
1693.000000	95.925656 
1692.000000	95.920740 
1691.000000	95.913996 
1690.000000	95.905374 
1689.000000	95.895339 
1688.000000	95.885501 
1687.000000	95.877552 
1686.000000	95.872693 
1685.000000	95.869591 
1684.000000	95.864282 
1683.000000	95.855890 
1682.000000	95.846348 
1681.000000	95.835946 
1680.000000	95.826177 
1679.000000	95.818640 
1678.000000	95.812533 
1677.000000	95.805920 
1676.000000	95.798668 
1675.000000	95.792760 
1674.000000	95.785882 
1673.000000	95.776740 
1672.000000	95.768485 
1671.000000	95.763251 
1670.000000	95.758451 
1669.000000	95.749405 
1668.000000	95.738758 
1667.000000	95.732089 
1666.000000	95.728664 
1665.000000	95.726040 
1664.000000	95.722826 
1663.000000	95.718649 
1662.000000	95.710409 
1661.000000	95.694772 
1660.000000	95.678172 
1659.000000	95.668861 
1658.000000	95.665186 
1657.000000	95.659145 
1656.000000	95.647291 
1655.000000	95.630744 
1654.000000	95.608398 
1653.000000	95.592645 
1652.000000	95.585334 
1651.000000	95.581781 
1650.000000	95.579526 
1649.000000	95.577295 
1648.000000	95.572106 
1647.000000	95.564678 
1646.000000	95.557967 
1645.000000	95.551288 
1644.000000	95.543215 
1643.000000	95.536124 
1642.000000	95.532877 
1641.000000	95.532204 
1640.000000	95.532126 
1639.000000	95.530370 
1638.000000	95.527800 
1637.000000	95.526090 
1636.000000	95.527599 
1635.000000	95.533890 
1634.000000	95.539821 
1633.000000	95.542056 
1632.000000	95.540490 
1631.000000	95.539744 
1630.000000	95.544229 
1629.000000	95.552660 
1628.000000	95.560541 
1627.000000	95.567709 
1626.000000	95.575811 
1625.000000	95.585324 
1624.000000	95.597067 
1623.000000	95.612068 
1622.000000	95.626465 
1621.000000	95.633726 
1620.000000	95.635878 
1619.000000	95.640456 
1618.000000	95.652329 
1617.000000	95.667487 
1616.000000	95.679316 
1615.000000	95.688386 
1614.000000	95.697426 
1613.000000	95.705446 
1612.000000	95.711910 
1611.000000	95.719427 
1610.000000	95.728299 
1609.000000	95.736451 
1608.000000	95.745729 
1607.000000	95.759767 
1606.000000	95.775041 
1605.000000	95.785814 
1604.000000	95.794263 
1603.000000	95.804176 
1602.000000	95.813670 
1601.000000	95.819715 
1600.000000	95.824792 
1599.000000	95.833246 
1598.000000	95.843999 
1597.000000	95.853499 
1596.000000	95.861634 
1595.000000	95.870913 
1594.000000	95.881295 
1593.000000	95.890039 
1592.000000	95.896597 
1591.000000	95.903062 
1590.000000	95.909968 
1589.000000	95.916220 
1588.000000	95.923422 
1587.000000	95.934237 
1586.000000	95.946938 
1585.000000	95.955584 
1584.000000	95.960596 
1583.000000	95.967967 
1582.000000	95.977904 
1581.000000	95.985343 
1580.000000	95.989376 
1579.000000	95.993651 
1578.000000	96.000243 
1577.000000	96.009955 
1576.000000	96.023508 
1575.000000	96.037811 
1574.000000	96.046241 
1573.000000	96.048590 
1572.000000	96.051695 
1571.000000	96.060028 
1570.000000	96.068140 
1569.000000	96.066434 
1568.000000	96.060533 
1567.000000	96.060788 
1566.000000	96.065349 
1565.000000	96.066486 
1564.000000	96.064185 
1563.000000	96.059628 
1562.000000	96.054350 
1561.000000	96.046338 
1560.000000	96.044929 
1559.000000	96.053475 
1558.000000	96.057663 
1557.000000	96.051199 
1556.000000	96.044925 
1555.000000	96.043524 
1554.000000	96.042553 
1553.000000	96.040022 
1552.000000	96.037183 
1551.000000	96.029400 
1550.000000	96.013672 
1549.000000	95.996091 
1548.000000	95.985667 
1547.000000	95.983594 
1546.000000	95.980451 
1545.000000	95.967443 
1544.000000	95.948594 
1543.000000	95.933259 
1542.000000	95.925230 
1541.000000	95.919763 
1540.000000	95.906151 
1539.000000	95.886100 
1538.000000	95.867183 
1537.000000	95.850828 
1536.000000	95.836392 
1535.000000	95.825542 
1534.000000	95.816356 
1533.000000	95.804969 
1532.000000	95.790127 
1531.000000	95.773608 
1530.000000	95.758764 
1529.000000	95.745113 
1528.000000	95.728381 
1527.000000	95.707806 
1526.000000	95.686860 
1525.000000	95.669456 
1524.000000	95.657387 
1523.000000	95.648818 
1522.000000	95.637212 
1521.000000	95.616700 
1520.000000	95.590390 
1519.000000	95.565618 
1518.000000	95.543055 
1517.000000	95.519142 
1516.000000	95.494137 
1515.000000	95.473070 
1514.000000	95.458173 
1513.000000	95.447165 
1512.000000	95.434743 
1511.000000	95.415784 
1510.000000	95.390790 
1509.000000	95.362337 
1508.000000	95.331804 
1507.000000	95.300781 
1506.000000	95.277400 
1505.000000	95.259012 
1504.000000	95.239383 
1503.000000	95.216996 
1502.000000	95.192464 
1501.000000	95.168023 
1500.000000	95.146228 
1499.000000	95.126334 
1498.000000	95.105032 
1497.000000	95.083165 
1496.000000	95.062917 
1495.000000	95.044577 
1494.000000	95.028781 
1493.000000	95.016607 
1492.000000	95.006863 
1491.000000	94.994637 
1490.000000	94.975299 
1489.000000	94.950618 
1488.000000	94.923329 
1487.000000	94.894630 
1486.000000	94.867802 
1485.000000	94.842108 
1484.000000	94.817200 
1483.000000	94.795318 
1482.000000	94.776343 
1481.000000	94.758363 
1480.000000	94.739693 
1479.000000	94.721359 
1478.000000	94.704134 
1477.000000	94.686346 
1476.000000	94.664465 
1475.000000	94.638823 
1474.000000	94.612758 
1473.000000	94.588467 
1472.000000	94.567224 
1471.000000	94.547664 
1470.000000	94.528792 
1469.000000	94.510857 
1468.000000	94.492719 
1467.000000	94.473155 
1466.000000	94.453000 
1465.000000	94.434219 
1464.000000	94.419252 
1463.000000	94.405657 
1462.000000	94.390900 
1461.000000	94.376747 
1460.000000	94.366337 
1459.000000	94.356903 
1458.000000	94.335805 
1457.000000	94.300800 
1456.000000	94.271319 
1455.000000	94.255240 
1454.000000	94.243015 
1453.000000	94.230448 
1452.000000	94.220951 
1451.000000	94.216581 
1450.000000	94.214986 
1449.000000	94.214119 
1448.000000	94.211792 
1447.000000	94.207238 
1446.000000	94.200323 
1445.000000	94.193507 
1444.000000	94.190712 
1443.000000	94.189024 
1442.000000	94.184159 
1441.000000	94.176903 
1440.000000	94.171602 
1439.000000	94.167369 
1438.000000	94.158943 
1437.000000	94.146519 
1436.000000	94.138321 
1435.000000	94.134689 
1434.000000	94.130023 
1433.000000	94.125523 
1432.000000	94.125889 
1431.000000	94.131823 
1430.000000	94.139017 
1429.000000	94.146314 
1428.000000	94.155167 
1427.000000	94.167124 
1426.000000	94.181379 
1425.000000	94.196969 
1424.000000	94.215755 
1423.000000	94.233419 
1422.000000	94.245054 
1421.000000	94.255629 
1420.000000	94.273588 
1419.000000	94.292562 
1418.000000	94.299299 
1417.000000	94.300017 
1416.000000	94.310749 
1415.000000	94.334398 
1414.000000	94.360944 
1413.000000	94.382599 
1412.000000	94.402136 
1411.000000	94.423046 
1410.000000	94.443351 
1409.000000	94.463578 
1408.000000	94.486934 
1407.000000	94.513960 
1406.000000	94.540827 
1405.000000	94.565796 
1404.000000	94.593291 
1403.000000	94.622606 
1402.000000	94.648643 
1401.000000	94.672183 
1400.000000	94.698733 
1399.000000	94.729127 
1398.000000	94.757497 
1397.000000	94.781564 
1396.000000	94.805639 
1395.000000	94.833836 
1394.000000	94.863396 
1393.000000	94.891516 
1392.000000	94.921704 
1391.000000	94.955377 
1390.000000	94.988499 
1389.000000	95.016371 
1388.000000	95.037098 
1387.000000	95.052467 
1386.000000	95.066759 
1385.000000	95.084483 
1384.000000	95.108198 
1383.000000	95.135057 
1382.000000	95.159574 
1381.000000	95.179647 
1380.000000	95.197066 
1379.000000	95.214916 
1378.000000	95.235215 
1377.000000	95.258173 
1376.000000	95.281805 
1375.000000	95.302803 
1374.000000	95.319326 
1373.000000	95.334515 
1372.000000	95.352861 
1371.000000	95.375385 
1370.000000	95.398390 
1369.000000	95.416971 
1368.000000	95.431621 
1367.000000	95.446528 
1366.000000	95.464492 
1365.000000	95.485082 
1364.000000	95.504249 
1363.000000	95.517141 
1362.000000	95.524425 
1361.000000	95.532979 
1360.000000	95.548682 
1359.000000	95.571599 
1358.000000	95.597081 
1357.000000	95.620249 
1356.000000	95.639476 
1355.000000	95.655728 
1354.000000	95.670313 
1353.000000	95.684882 
1352.000000	95.699564 
1351.000000	95.714533 
1350.000000	95.730340 
1349.000000	95.746171 
1348.000000	95.761279 
1347.000000	95.775473 
1346.000000	95.789201 
1345.000000	95.803171 
1344.000000	95.818018 
1343.000000	95.833897 
1342.000000	95.849804 
1341.000000	95.863077 
1340.000000	95.871020 
1339.000000	95.874020 
1338.000000	95.875644 
1337.000000	95.879758 
1336.000000	95.887875 
1335.000000	95.898675 
1334.000000	95.909789 
1333.000000	95.919670 
1332.000000	95.927640 
1331.000000	95.934060 
1330.000000	95.940349 
1329.000000	95.948129 
1328.000000	95.957342 
1327.000000	95.966505 
1326.000000	95.973936 
1325.000000	95.978718 
1324.000000	95.981374 
1323.000000	95.982336 
1322.000000	95.981721 
1321.000000	95.981000 
1320.000000	95.983066 
1319.000000	95.989288 
1318.000000	95.997959 
1317.000000	96.006519 
1316.000000	96.013430 
1315.000000	96.017344 
1314.000000	96.017212 
1313.000000	96.014999 
1312.000000	96.015309 
1311.000000	96.020443 
1310.000000	96.027668 
1309.000000	96.033539 
1308.000000	96.038212 
1307.000000	96.044296 
1306.000000	96.052335 
1305.000000	96.059987 
1304.000000	96.065541 
1303.000000	96.068764 
1302.000000	96.069411 
1301.000000	96.067246 
1300.000000	96.063778 
1299.000000	96.061756 
1298.000000	96.062477 
1297.000000	96.064518 
1296.000000	96.065477 
1295.000000	96.064511 
1294.000000	96.062789 
1293.000000	96.062286 
1292.000000	96.063876 
1291.000000	96.066221 
1290.000000	96.067096 
1289.000000	96.065855 
1288.000000	96.063758 
1287.000000	96.061787 
1286.000000	96.059454 
1285.000000	96.056681 
1284.000000	96.055253 
1283.000000	96.056533 
1282.000000	96.058858 
1281.000000	96.058868 
1280.000000	96.055560 
1279.000000	96.051631 
1278.000000	96.050536 
1277.000000	96.053035 
1276.000000	96.056792 
1275.000000	96.059063 
1274.000000	96.059361 
1273.000000	96.059745 
1272.000000	96.062458 
1271.000000	96.067143 
1270.000000	96.070796 
1269.000000	96.070667 
1268.000000	96.066903 
1267.000000	96.061855 
1266.000000	96.057638 
1265.000000	96.055369 
1264.000000	96.055575 
1263.000000	96.057769 
1262.000000	96.060183 
1261.000000	96.061124 
1260.000000	96.061142 
1259.000000	96.062715 
1258.000000	96.066990 
1257.000000	96.071626 
1256.000000	96.072601 
1255.000000	96.068721 
1254.000000	96.064025 
1253.000000	96.064135 
1252.000000	96.069590 
1251.000000	96.074566 
1250.000000	96.073549 
1249.000000	96.067757 
1248.000000	96.063062 
1247.000000	96.062475 
1246.000000	96.063524 
1245.000000	96.063149 
1244.000000	96.061713 
1243.000000	96.061189 
1242.000000	96.062254 
1241.000000	96.064717 
1240.000000	96.068483 
1239.000000	96.072346 
1238.000000	96.073639 
1237.000000	96.070772 
1236.000000	96.064839 
1235.000000	96.057717 
1234.000000	96.050059 
1233.000000	96.042024 
1232.000000	96.034058 
1231.000000	96.025547 
1230.000000	96.014707 
1229.000000	96.001230 
1228.000000	95.986774 
1227.000000	95.971068 
1226.000000	95.949765 
1225.000000	95.918647 
1224.000000	95.878549 
1223.000000	95.833957 
1222.000000	95.787741 
1221.000000	95.739392 
1220.000000	95.687537 
1219.000000	95.631624 
1218.000000	95.571369 
1217.000000	95.506738 
1216.000000	95.438243 
1215.000000	95.365749 
1214.000000	95.288028 
1213.000000	95.205658 
1212.000000	95.122850 
1211.000000	95.042895 
1210.000000	94.962453 
1209.000000	94.874295 
1208.000000	94.776080 
1207.000000	94.672984 
1206.000000	94.570995 
1205.000000	94.470641 
1204.000000	94.368678 
1203.000000	94.263317 
1202.000000	94.156035 
1201.000000	94.049578 
1200.000000	93.945357 
1199.000000	93.841990 
1198.000000	93.736176 
1197.000000	93.626214 
1196.000000	93.514010 
1195.000000	93.402127 
1194.000000	93.289917 
1193.000000	93.174615 
1192.000000	93.055429 
1191.000000	92.933983 
1190.000000	92.811431 
1189.000000	92.687590 
1188.000000	92.562213 
1187.000000	92.434834 
1186.000000	92.304554 
1185.000000	92.172203 
1184.000000	92.040599 
1183.000000	91.909777 
1182.000000	91.774676 
1181.000000	91.631421 
1180.000000	91.483126 
1179.000000	91.334625 
1178.000000	91.184017 
1177.000000	91.025486 
1176.000000	90.858507 
1175.000000	90.687780 
1174.000000	90.515413 
1173.000000	90.340133 
1172.000000	90.163417 
1171.000000	89.988644 
1170.000000	89.814368 
1169.000000	89.636733 
1168.000000	89.459716 
1167.000000	89.295759 
1166.000000	89.155881 
1165.000000	89.047130 
1164.000000	88.979551 
1163.000000	88.964751 
1162.000000	89.003154 
1161.000000	89.078420 
1160.000000	89.165626 
1159.000000	89.239454 
1158.000000	89.276824 
1157.000000	89.262691 
1156.000000	89.197158 
1155.000000	89.092071 
1154.000000	88.959720 
1153.000000	88.809177 
1152.000000	88.651464 
1151.000000	88.498422 
1150.000000	88.353823 
1149.000000	88.213099 
1148.000000	88.073506 
1147.000000	87.936973 
1146.000000	87.802167 
1145.000000	87.662971 
1144.000000	87.517463 
1143.000000	87.370519 
1142.000000	87.225250 
1141.000000	87.079543 
1140.000000	86.932773 
1139.000000	86.787721 
1138.000000	86.643903 
1137.000000	86.496875 
1136.000000	86.345547 
1135.000000	86.192424 
1134.000000	86.036305 
1133.000000	85.873742 
1132.000000	85.707995 
1131.000000	85.546479 
1130.000000	85.388489 
1129.000000	85.225906 
1128.000000	85.056962 
1127.000000	84.887995 
1126.000000	84.720187 
1125.000000	84.546511 
1124.000000	84.364404 
1123.000000	84.179897 
1122.000000	83.996338 
1121.000000	83.810775 
1120.000000	83.624566 
1119.000000	83.445317 
1118.000000	83.274719 
1117.000000	83.106835 
1116.000000	82.941559 
1115.000000	82.787085 
1114.000000	82.645788 
1113.000000	82.510659 
1112.000000	82.378382 
1111.000000	82.252062 
1110.000000	82.128541 
1109.000000	81.998146 
1108.000000	81.859698 
1107.000000	81.721366 
1106.000000	81.585036 
1105.000000	81.444612 
1104.000000	81.300938 
1103.000000	81.162376 
1102.000000	81.028001 
1101.000000	80.888020 
1100.000000	80.742167 
1099.000000	80.601547 
1098.000000	80.470239 
1097.000000	80.340551 
1096.000000	80.209335 
1095.000000	80.080980 
1094.000000	79.952793 
1093.000000	79.816295 
1092.000000	79.676133 
1091.000000	79.548639 
1090.000000	79.437687 
1089.000000	79.330073 
1088.000000	79.217640 
1087.000000	79.104919 
1086.000000	78.992453 
1085.000000	78.873218 
1084.000000	78.749528 
1083.000000	78.633181 
1082.000000	78.524211 
1081.000000	78.409280 
1080.000000	78.285223 
1079.000000	78.163519 
1078.000000	78.046570 
1077.000000	77.920021 
1076.000000	77.774038 
1075.000000	77.612033 
1074.000000	77.433580 
1073.000000	77.229101 
1072.000000	76.996581 
1071.000000	76.743687 
1070.000000	76.468744 
1069.000000	76.159967 
1068.000000	75.818615 
1067.000000	75.462734 
1066.000000	75.103268 
1065.000000	74.737169 
1064.000000	74.368124 
1063.000000	74.009568 
1062.000000	73.660258 
1061.000000	73.301121 
1060.000000	72.924697 
1059.000000	72.544989 
1058.000000	72.170800 
1057.000000	71.792562 
1056.000000	71.403525 
1055.000000	71.010414 
1054.000000	70.614488 
1053.000000	70.205121 
1052.000000	69.781624 
1051.000000	69.357868 
1050.000000	68.935687 
1049.000000	68.500277 
1048.000000	68.050708 
1047.000000	67.605568 
1046.000000	67.171346 
1045.000000	66.734844 
1044.000000	66.291919 
1043.000000	65.854764 
1042.000000	65.425331 
1041.000000	64.990206 
1040.000000	64.549069 
1039.000000	64.120494 
1038.000000	63.712412 
1037.000000	63.314962 
1036.000000	62.928651 
1035.000000	62.569719 
1034.000000	62.240948 
1033.000000	61.927683 
1032.000000	61.629107 
1031.000000	61.361780 
1030.000000	61.125770 
1029.000000	60.900551 
1028.000000	60.682039 
1027.000000	60.489908 
1026.000000	60.329478 
1025.000000	60.179927 
1024.000000	60.029091 
1023.000000	59.886788 
1022.000000	59.754564 
1021.000000	59.616115 
1020.000000	59.467615 
1019.000000	59.325029 
1018.000000	59.191996 
1017.000000	59.052562 
1016.000000	58.904150 
1015.000000	58.765111 
1014.000000	58.640948 
1013.000000	58.515602 
1012.000000	58.384304 
1011.000000	58.262221 
1010.000000	58.152698 
1009.000000	58.040953 
1008.000000	57.927900 
1007.000000	57.836456 
1006.000000	57.774990 
1005.000000	57.727116 
1004.000000	57.685490 
1003.000000	57.662416 
1002.000000	57.659168 
1001.000000	57.659339 
1000.000000	57.661321 
999.000000	 57.683423 
998.000000	 57.728056 
997.000000	 57.774712 
996.000000	 57.816934 
995.000000	 57.872417 
994.000000	 57.947776 
993.000000	 58.027555 
992.000000	 58.106760 
991.000000	 58.199831 
990.000000	 58.308029 
989.000000	 58.412617 
988.000000	 58.510704 
987.000000	 58.624232 
986.000000	 58.763157 
985.000000	 58.913140 
984.000000	 59.069373 
983.000000	 59.248943 
982.000000	 59.458305 
981.000000	 59.680993 
980.000000	 59.908600 
979.000000	 60.152930 
978.000000	 60.417143 
977.000000	 60.686580 
976.000000	 60.958885 
975.000000	 61.252408 
974.000000	 61.573680 
973.000000	 61.905880 
972.000000	 62.239438 
971.000000	 62.585180 
970.000000	 62.947165 
969.000000	 63.311096 
968.000000	 63.669711 
967.000000	 64.032941 
966.000000	 64.404059 
965.000000	 64.771977 
964.000000	 65.134753 
963.000000	 65.504404 
962.000000	 65.881396 
961.000000	 66.250501 
960.000000	 66.608156 
959.000000	 66.967274 
958.000000	 67.328838 
957.000000	 67.676039 
956.000000	 68.003594 
955.000000	 68.326192 
954.000000	 68.650698 
953.000000	 68.965807 
952.000000	 69.265986 
951.000000	 69.559291 
950.000000	 69.844403 
949.000000	 70.106025 
948.000000	 70.341035 
947.000000	 70.564550 
946.000000	 70.782776 
945.000000	 70.984000 
944.000000	 71.163781 
943.000000	 71.334579 
942.000000	 71.502819 
941.000000	 71.660351 
940.000000	 71.807060 
939.000000	 71.958493 
938.000000	 72.122190 
937.000000	 72.288145 
936.000000	 72.450366 
935.000000	 72.616152 
934.000000	 72.787484 
933.000000	 72.955516 
932.000000	 73.120110 
931.000000	 73.292902 
930.000000	 73.474799 
929.000000	 73.652173 
928.000000	 73.820721 
927.000000	 73.990645 
926.000000	 74.162885 
925.000000	 74.323032 
924.000000	 74.464704 
923.000000	 74.596881 
922.000000	 74.722899 
921.000000	 74.834725 
920.000000	 74.933123 
919.000000	 75.030445 
918.000000	 75.127822 
917.000000	 75.212958 
916.000000	 75.287019 
915.000000	 75.371131 
914.000000	 75.479695 
913.000000	 75.609471 
912.000000	 75.760526 
911.000000	 75.944728 
910.000000	 76.167007 
909.000000	 76.420735 
908.000000	 76.706737 
907.000000	 77.033898 
906.000000	 77.396888 
905.000000	 77.777351 
904.000000	 78.170984 
903.000000	 78.588715 
902.000000	 79.027581 
901.000000	 79.466331 
900.000000	 79.894760 
899.000000	 80.322568 
898.000000	 80.754107 
897.000000	 81.178114 
896.000000	 81.587172 
895.000000	 81.984389 
894.000000	 82.366695 
893.000000	 82.724484 
892.000000	 83.062081 
891.000000	 83.395907 
890.000000	 83.726867 
889.000000	 84.035384 
888.000000	 84.308300 
887.000000	 84.550499 
886.000000	 84.767128 
885.000000	 84.955857 
884.000000	 85.120547 
883.000000	 85.270574 
882.000000	 85.402232 
881.000000	 85.503734 
880.000000	 85.584013 
879.000000	 85.672935 
878.000000	 85.786525 
877.000000	 85.916321 
876.000000	 86.059298 
875.000000	 86.231034 
874.000000	 86.440739 
873.000000	 86.680337 
872.000000	 86.947531 
871.000000	 87.253116 
870.000000	 87.594827 
869.000000	 87.947865 
868.000000	 88.291518 
867.000000	 88.624652 
866.000000	 88.948405 
865.000000	 89.256431 
864.000000	 89.551675 
863.000000	 89.852214 
862.000000	 90.168562 
861.000000	 90.490375 
860.000000	 90.803785 
859.000000	 91.106344 
858.000000	 91.398140 
857.000000	 91.674509 
856.000000	 91.935391 
855.000000	 92.187282 
854.000000	 92.428523 
853.000000	 92.646263 
852.000000	 92.834636 
851.000000	 93.003394 
850.000000	 93.163457 
849.000000	 93.316329 
848.000000	 93.461426 
847.000000	 93.599451 
846.000000	 93.724147 
845.000000	 93.825235 
844.000000	 93.903786 
843.000000	 93.970677 
842.000000	 94.026787 
841.000000	 94.060080 
840.000000	 94.065406 
839.000000	 94.050516 
838.000000	 94.019064 
837.000000	 93.966145 
836.000000	 93.897254 
835.000000	 93.833788 
834.000000	 93.790172 
833.000000	 93.760411 
832.000000	 93.735848 
831.000000	 93.721198 
830.000000	 93.724343 
829.000000	 93.745850 
828.000000	 93.788883 
827.000000	 93.864240 
826.000000	 93.973686 
825.000000	 94.101552 
824.000000	 94.231869 
823.000000	 94.358890 
822.000000	 94.475165 
821.000000	 94.569180 
820.000000	 94.641624 
819.000000	 94.705195 
818.000000	 94.761901 
817.000000	 94.796157 
816.000000	 94.794750 
815.000000	 94.757886 
814.000000	 94.684656 
813.000000	 94.562195 
812.000000	 94.375902 
811.000000	 94.116286 
810.000000	 93.768741 
809.000000	 93.312061 
808.000000	 92.738923 
807.000000	 92.068550 
806.000000	 91.331375 
805.000000	 90.552309 
804.000000	 89.757008 
803.000000	 88.979659 
802.000000	 88.252846 
801.000000	 87.602701 
800.000000	 87.061385 
799.000000	 86.664291 
798.000000	 86.421943 
797.000000	 86.310832 
796.000000	 86.300320 
795.000000	 86.370313 
794.000000	 86.497784 
793.000000	 86.650826 
792.000000	 86.807145 
791.000000	 86.959700 
790.000000	 87.097079 
789.000000	 87.196977 
788.000000	 87.243999 
787.000000	 87.234428 
786.000000	 87.159828 
785.000000	 87.007864 
784.000000	 86.785874 
783.000000	 86.523323 
782.000000	 86.245357 
781.000000	 85.965673 
780.000000	 85.710237 
779.000000	 85.520747 
778.000000	 85.423113 
777.000000	 85.414811 
776.000000	 85.490382 
775.000000	 85.651859 
774.000000	 85.883316 
773.000000	 86.143157 
772.000000	 86.397195 
771.000000	 86.638629 
770.000000	 86.865835 
769.000000	 87.065269 
768.000000	 87.228940 
767.000000	 87.365880 
766.000000	 87.482364 
765.000000	 87.571046 
764.000000	 87.632657 
763.000000	 87.688349 
762.000000	 87.756461 
761.000000	 87.834624 
760.000000	 87.916570 
759.000000	 88.007471 
758.000000	 88.110322 
757.000000	 88.216889 
756.000000	 88.326024 
755.000000	 88.452587 
754.000000	 88.603462 
753.000000	 88.760586 
752.000000	 88.901107 
751.000000	 89.020686 
750.000000	 89.127521 
749.000000	 89.229630 
748.000000	 89.338203 
747.000000	 89.466488 
746.000000	 89.613065 
745.000000	 89.760445 
744.000000	 89.900788 
743.000000	 90.048452 
742.000000	 90.217254 
741.000000	 90.401308 
740.000000	 90.589077 
739.000000	 90.780990 
738.000000	 90.981976 
737.000000	 91.189500 
736.000000	 91.398568 
735.000000	 91.607108 
734.000000	 91.808585 
733.000000	 91.990995 
732.000000	 92.149328 
731.000000	 92.287960 
730.000000	 92.406921 
729.000000	 92.498979 
728.000000	 92.566526 
727.000000	 92.626854 
726.000000	 92.694888 
725.000000	 92.775149 
724.000000	 92.871623 
723.000000	 92.987430 
722.000000	 93.112250 
721.000000	 93.228973 
720.000000	 93.336994 
719.000000	 93.448218 
718.000000	 93.557663 
717.000000	 93.644529 
716.000000	 93.705824 
715.000000	 93.764261 
714.000000	 93.836467 
713.000000	 93.916026 
712.000000	 93.997420 
711.000000	 94.090100 
710.000000	 94.194223 
709.000000	 94.286867 
708.000000	 94.349216 
707.000000	 94.388782 
706.000000	 94.418040 
705.000000	 94.430992 
704.000000	 94.415334 
703.000000	 94.365038 
702.000000	 94.265283 
701.000000	 94.083644 
700.000000	 93.795446 
699.000000	 93.410323 
698.000000	 92.963535 
697.000000	 92.502021 
696.000000	 92.091400 
695.000000	 91.807729 
694.000000	 91.697888 
693.000000	 91.751878 
692.000000	 91.921936 
691.000000	 92.159583 
690.000000	 92.426317 
689.000000	 92.690356 
688.000000	 92.932044 
687.000000	 93.144294 
686.000000	 93.322158 
685.000000	 93.463064 
684.000000	 93.580588 
683.000000	 93.699467 
682.000000	 93.827329 
681.000000	 93.949762 
680.000000	 94.057633 
679.000000	 94.161839 
678.000000	 94.268100 
677.000000	 94.365820 
676.000000	 94.461401 
675.000000	 94.580140 
674.000000	 94.724934 
673.000000	 94.865519 
672.000000	 94.980349 
671.000000	 95.097766 
670.000000	 95.274958 
669.000000	 95.536719 
668.000000	 95.770645 
667.000000	 95.841829 
666.000000	 95.813167 
665.000000	 95.785652 
664.000000	 95.787336 
663.000000	 95.820735 
662.000000	 95.878245 
661.000000	 95.934614 
660.000000	 95.987643 
659.000000	 96.057801 
658.000000	 96.138827 
657.000000	 96.182448 
656.000000	 96.166264 
655.000000	 96.119134 
654.000000	 96.070218 
653.000000	 96.017849 
652.000000	 95.971057 
651.000000	 95.970335 
650.000000	 96.027853 

