4000.000000	98.337081 
3999.000000	98.336808 
3998.000000	98.336285 
3997.000000	98.335628 
3996.000000	98.335020 
3995.000000	98.334595 
3994.000000	98.334399 
3993.000000	98.334357 
3992.000000	98.334290 
3991.000000	98.334021 
3990.000000	98.333483 
3989.000000	98.332769 
3988.000000	98.332114 
3987.000000	98.331785 
3986.000000	98.331933 
3985.000000	98.332436 
3984.000000	98.332899 
3983.000000	98.332948 
3982.000000	98.332547 
3981.000000	98.332030 
3980.000000	98.331734 
3979.000000	98.331611 
3978.000000	98.331349 
3977.000000	98.330802 
3976.000000	98.330155 
3975.000000	98.329666 
3974.000000	98.329378 
3973.000000	98.329098 
3972.000000	98.328577 
3971.000000	98.327730 
3970.000000	98.326708 
3969.000000	98.325811 
3968.000000	98.325293 
3967.000000	98.325188 
3966.000000	98.325284 
3965.000000	98.325244 
3964.000000	98.324802 
3963.000000	98.323932 
3962.000000	98.322900 
3961.000000	98.322050 
3960.000000	98.321506 
3959.000000	98.321141 
3958.000000	98.320769 
3957.000000	98.320313 
3956.000000	98.319796 
3955.000000	98.319223 
3954.000000	98.318591 
3953.000000	98.317944 
3952.000000	98.317343 
3951.000000	98.316759 
3950.000000	98.316044 
3949.000000	98.315112 
3948.000000	98.314116 
3947.000000	98.313397 
3946.000000	98.313176 
3945.000000	98.313335 
3944.000000	98.313463 
3943.000000	98.313161 
3942.000000	98.312463 
3941.000000	98.311819 
3940.000000	98.311617 
3939.000000	98.311846 
3938.000000	98.312178 
3937.000000	98.312295 
3936.000000	98.312076 
3935.000000	98.311467 
3934.000000	98.310430 
3933.000000	98.308995 
3932.000000	98.307432 
3931.000000	98.306158 
3930.000000	98.305578 
3929.000000	98.306057 
3928.000000	98.307619 
3927.000000	98.309648 
3926.000000	98.311098 
3925.000000	98.311202 
3924.000000	98.310051 
3923.000000	98.308390 
3922.000000	98.306920 
3921.000000	98.306028 
3920.000000	98.305811 
3919.000000	98.306123 
3918.000000	98.306563 
3917.000000	98.306647 
3916.000000	98.306185 
3915.000000	98.305407 
3914.000000	98.304810 
3913.000000	98.304742 
3912.000000	98.305220 
3911.000000	98.306144 
3910.000000	98.307369 
3909.000000	98.308733 
3908.000000	98.309998 
3907.000000	98.310703 
3906.000000	98.310317 
3905.000000	98.308411 
3904.000000	98.305061 
3903.000000	98.301134 
3902.000000	98.297796 
3901.000000	98.295847 
3900.000000	98.295486 
3899.000000	98.296272 
3898.000000	98.297569 
3897.000000	98.298875 
3896.000000	98.299907 
3895.000000	98.300547 
3894.000000	98.300672 
3893.000000	98.300165 
3892.000000	98.299141 
3891.000000	98.298017 
3890.000000	98.297118 
3889.000000	98.296376 
3888.000000	98.295697 
3887.000000	98.295214 
3886.000000	98.295107 
3885.000000	98.295286 
3884.000000	98.295370 
3883.000000	98.295040 
3882.000000	98.294331 
3881.000000	98.293569 
3880.000000	98.293121 
3879.000000	98.293042 
3878.000000	98.293114 
3877.000000	98.293182 
3876.000000	98.293273 
3875.000000	98.293382 
3874.000000	98.293336 
3873.000000	98.292966 
3872.000000	98.292303 
3871.000000	98.291560 
3870.000000	98.291009 
3869.000000	98.290748 
3868.000000	98.290665 
3867.000000	98.290587 
3866.000000	98.290441 
3865.000000	98.290255 
3864.000000	98.290070 
3863.000000	98.289913 
3862.000000	98.289798 
3861.000000	98.289763 
3860.000000	98.289846 
3859.000000	98.290020 
3858.000000	98.290153 
3857.000000	98.290105 
3856.000000	98.289829 
3855.000000	98.289397 
3854.000000	98.288815 
3853.000000	98.288130 
3852.000000	98.287587 
3851.000000	98.287320 
3850.000000	98.287274 
3849.000000	98.287436 
3848.000000	98.287803 
3847.000000	98.288310 
3846.000000	98.288768 
3845.000000	98.288957 
3844.000000	98.288835 
3843.000000	98.288501 
3842.000000	98.287987 
3841.000000	98.287315 
3840.000000	98.286570 
3839.000000	98.285946 
3838.000000	98.285656 
3837.000000	98.285717 
3836.000000	98.285949 
3835.000000	98.286105 
3834.000000	98.286029 
3833.000000	98.285784 
3832.000000	98.285579 
3831.000000	98.285552 
3830.000000	98.285642 
3829.000000	98.285686 
3828.000000	98.285834 
3827.000000	98.286544 
3826.000000	98.287877 
3825.000000	98.289121 
3824.000000	98.289395 
3823.000000	98.288518 
3822.000000	98.287105 
3821.000000	98.285967 
3820.000000	98.285367 
3819.000000	98.284786 
3818.000000	98.283770 
3817.000000	98.282776 
3816.000000	98.282607 
3815.000000	98.283255 
3814.000000	98.283929 
3813.000000	98.284202 
3812.000000	98.284483 
3811.000000	98.285268 
3810.000000	98.286314 
3809.000000	98.286870 
3808.000000	98.286658 
3807.000000	98.286194 
3806.000000	98.285934 
3805.000000	98.285475 
3804.000000	98.284202 
3803.000000	98.282446 
3802.000000	98.281368 
3801.000000	98.281678 
3800.000000	98.282799 
3799.000000	98.283422 
3798.000000	98.283134 
3797.000000	98.282837 
3796.000000	98.283450 
3795.000000	98.284713 
3794.000000	98.285578 
3793.000000	98.285570 
3792.000000	98.285214 
3791.000000	98.285267 
3790.000000	98.285820 
3789.000000	98.286390 
3788.000000	98.286624 
3787.000000	98.286514 
3786.000000	98.286244 
3785.000000	98.286000 
3784.000000	98.285810 
3783.000000	98.285380 
3782.000000	98.284232 
3781.000000	98.282240 
3780.000000	98.280075 
3779.000000	98.278968 
3778.000000	98.279590 
3777.000000	98.281387 
3776.000000	98.283311 
3775.000000	98.284833 
3774.000000	98.285713 
3773.000000	98.285458 
3772.000000	98.283751 
3771.000000	98.280945 
3770.000000	98.277836 
3769.000000	98.275115 
3768.000000	98.272818 
3767.000000	98.270637 
3766.000000	98.268958 
3765.000000	98.268738 
3764.000000	98.270353 
3763.000000	98.273003 
3762.000000	98.275623 
3761.000000	98.277288 
3760.000000	98.276771 
3759.000000	98.273617 
3758.000000	98.268965 
3757.000000	98.264507 
3756.000000	98.260865 
3755.000000	98.257682 
3754.000000	98.254809 
3753.000000	98.252076 
3752.000000	98.248119 
3751.000000	98.241811 
3750.000000	98.235710 
3749.000000	98.233358 
3748.000000	98.233767 
3747.000000	98.232668 
3746.000000	98.228074 
3745.000000	98.223228 
3744.000000	98.224503 
3743.000000	98.231257 
3742.000000	98.235504 
3741.000000	98.233409 
3740.000000	98.228543 
3739.000000	98.226683 
3738.000000	98.229794 
3737.000000	98.234638 
3736.000000	98.237198 
3735.000000	98.237014 
3734.000000	98.235998 
3733.000000	98.235003 
3732.000000	98.234458 
3731.000000	98.234637 
3730.000000	98.234076 
3729.000000	98.231141 
3728.000000	98.226919 
3727.000000	98.224180 
3726.000000	98.223735 
3725.000000	98.223505 
3724.000000	98.222072 
3723.000000	98.220319 
3722.000000	98.219721 
3721.000000	98.220338 
3720.000000	98.220326 
3719.000000	98.218808 
3718.000000	98.216772 
3717.000000	98.214652 
3716.000000	98.211334 
3715.000000	98.205252 
3714.000000	98.196754 
3713.000000	98.188024 
3712.000000	98.180157 
3711.000000	98.172744 
3710.000000	98.165068 
3709.000000	98.156952 
3708.000000	98.148926 
3707.000000	98.141231 
3706.000000	98.133962 
3705.000000	98.127614 
3704.000000	98.122670 
3703.000000	98.117970 
3702.000000	98.110073 
3701.000000	98.096386 
3700.000000	98.077602 
3699.000000	98.057269 
3698.000000	98.040230 
3697.000000	98.029506 
3696.000000	98.024041 
3695.000000	98.019965 
3694.000000	98.014973 
3693.000000	98.010831 
3692.000000	98.010767 
3691.000000	98.015065 
3690.000000	98.019350 
3689.000000	98.019728 
3688.000000	98.016712 
3687.000000	98.011036 
3686.000000	98.002129 
3685.000000	97.991244 
3684.000000	97.981537 
3683.000000	97.975365 
3682.000000	97.971810 
3681.000000	97.967539 
3680.000000	97.959203 
3679.000000	97.944282 
3678.000000	97.922939 
3677.000000	97.899420 
3676.000000	97.879254 
3675.000000	97.865456 
3674.000000	97.854372 
3673.000000	97.839210 
3672.000000	97.819187 
3671.000000	97.801145 
3670.000000	97.789574 
3669.000000	97.781313 
3668.000000	97.770731 
3667.000000	97.755572 
3666.000000	97.738202 
3665.000000	97.721797 
3664.000000	97.706568 
3663.000000	97.690921 
3662.000000	97.673406 
3661.000000	97.653213 
3660.000000	97.630034 
3659.000000	97.604411 
3658.000000	97.579185 
3657.000000	97.558189 
3656.000000	97.542670 
3655.000000	97.529062 
3654.000000	97.511514 
3653.000000	97.488164 
3652.000000	97.462566 
3651.000000	97.438623 
3650.000000	97.415807 
3649.000000	97.393514 
3648.000000	97.375755 
3647.000000	97.364986 
3646.000000	97.358442 
3645.000000	97.351821 
3644.000000	97.342739 
3643.000000	97.330941 
3642.000000	97.316469 
3641.000000	97.299051 
3640.000000	97.279645 
3639.000000	97.260505 
3638.000000	97.242960 
3637.000000	97.225780 
3636.000000	97.207017 
3635.000000	97.186283 
3634.000000	97.163559 
3633.000000	97.137084 
3632.000000	97.105706 
3631.000000	97.074161 
3630.000000	97.053076 
3629.000000	97.049006 
3628.000000	97.055484 
3627.000000	97.058833 
3626.000000	97.052309 
3625.000000	97.040536 
3624.000000	97.030974 
3623.000000	97.026308 
3622.000000	97.025158 
3621.000000	97.026216 
3620.000000	97.028470 
3619.000000	97.030418 
3618.000000	97.031380 
3617.000000	97.032206 
3616.000000	97.035411 
3615.000000	97.043956 
3614.000000	97.058048 
3613.000000	97.073953 
3612.000000	97.086905 
3611.000000	97.094854 
3610.000000	97.100439 
3609.000000	97.108529 
3608.000000	97.120539 
3607.000000	97.133456 
3606.000000	97.144277 
3605.000000	97.154128 
3604.000000	97.166875 
3603.000000	97.184294 
3602.000000	97.204067 
3601.000000	97.221880 
3600.000000	97.234021 
3599.000000	97.239293 
3598.000000	97.239854 
3597.000000	97.239700 
3596.000000	97.242573 
3595.000000	97.249199 
3594.000000	97.256900 
3593.000000	97.262354 
3592.000000	97.264088 
3591.000000	97.262891 
3590.000000	97.261681 
3589.000000	97.263860 
3588.000000	97.270549 
3587.000000	97.279703 
3586.000000	97.287948 
3585.000000	97.293287 
3584.000000	97.297188 
3583.000000	97.302721 
3582.000000	97.311324 
3581.000000	97.320760 
3580.000000	97.326969 
3579.000000	97.327742 
3578.000000	97.324550 
3577.000000	97.320851 
3576.000000	97.318580 
3575.000000	97.317078 
3574.000000	97.314524 
3573.000000	97.310113 
3572.000000	97.304308 
3571.000000	97.297834 
3570.000000	97.291454 
3569.000000	97.286868 
3568.000000	97.286432 
3567.000000	97.291400 
3566.000000	97.300087 
3565.000000	97.308221 
3564.000000	97.312298 
3563.000000	97.312205 
3562.000000	97.310192 
3561.000000	97.308477 
3560.000000	97.307785 
3559.000000	97.307567 
3558.000000	97.307351 
3557.000000	97.307448 
3556.000000	97.308081 
3555.000000	97.308576 
3554.000000	97.308035 
3553.000000	97.306351 
3552.000000	97.304260 
3551.000000	97.302319 
3550.000000	97.300628 
3549.000000	97.299607 
3548.000000	97.299866 
3547.000000	97.300906 
3546.000000	97.301237 
3545.000000	97.300264 
3544.000000	97.299269 
3543.000000	97.299813 
3542.000000	97.301896 
3541.000000	97.304309 
3540.000000	97.306098 
3539.000000	97.307128 
3538.000000	97.307572 
3537.000000	97.307505 
3536.000000	97.307060 
3535.000000	97.306486 
3534.000000	97.306011 
3533.000000	97.305781 
3532.000000	97.305840 
3531.000000	97.306145 
3530.000000	97.306565 
3529.000000	97.306906 
3528.000000	97.307032 
3527.000000	97.306955 
3526.000000	97.306810 
3525.000000	97.306771 
3524.000000	97.306920 
3523.000000	97.307218 
3522.000000	97.307552 
3521.000000	97.307821 
3520.000000	97.308016 
3519.000000	97.308191 
3518.000000	97.308383 
3517.000000	97.308552 
3516.000000	97.308621 
3515.000000	97.308583 
3514.000000	97.308532 
3513.000000	97.308562 
3512.000000	97.308666 
3511.000000	97.308728 
3510.000000	97.308653 
3509.000000	97.308465 
3508.000000	97.308290 
3507.000000	97.308228 
3506.000000	97.308289 
3505.000000	97.308396 
3504.000000	97.308428 
3503.000000	97.308263 
3502.000000	97.307830 
3501.000000	97.307147 
3500.000000	97.306349 
3499.000000	97.305681 
3498.000000	97.305346 
3497.000000	97.305356 
3496.000000	97.305440 
3495.000000	97.305252 
3494.000000	97.304708 
3493.000000	97.304052 
3492.000000	97.303571 
3491.000000	97.303235 
3490.000000	97.302778 
3489.000000	97.302106 
3488.000000	97.301419 
3487.000000	97.300868 
3486.000000	97.300324 
3485.000000	97.299643 
3484.000000	97.298945 
3483.000000	97.298375 
3482.000000	97.297778 
3481.000000	97.296889 
3480.000000	97.295709 
3479.000000	97.294436 
3478.000000	97.293084 
3477.000000	97.291404 
3476.000000	97.289189 
3475.000000	97.286646 
3474.000000	97.284405 
3473.000000	97.283075 
3472.000000	97.282729 
3471.000000	97.282751 
3470.000000	97.282281 
3469.000000	97.280995 
3468.000000	97.279325 
3467.000000	97.277914 
3466.000000	97.276899 
3465.000000	97.275793 
3464.000000	97.273999 
3463.000000	97.271393 
3462.000000	97.268472 
3461.000000	97.265954 
3460.000000	97.264167 
3459.000000	97.262732 
3458.000000	97.260871 
3457.000000	97.258085 
3456.000000	97.254594 
3455.000000	97.251182 
3454.000000	97.248609 
3453.000000	97.247162 
3452.000000	97.246638 
3451.000000	97.246500 
3450.000000	97.246147 
3449.000000	97.245176 
3448.000000	97.243439 
3447.000000	97.240952 
3446.000000	97.237838 
3445.000000	97.234424 
3444.000000	97.231268 
3443.000000	97.228839 
3442.000000	97.227117 
3441.000000	97.225617 
3440.000000	97.223905 
3439.000000	97.221969 
3438.000000	97.219989 
3437.000000	97.217965 
3436.000000	97.215807 
3435.000000	97.213683 
3434.000000	97.211990 
3433.000000	97.210904 
3432.000000	97.210165 
3431.000000	97.209399 
3430.000000	97.208424 
3429.000000	97.207197 
3428.000000	97.205616 
3427.000000	97.203601 
3426.000000	97.201383 
3425.000000	97.199509 
3424.000000	97.198377 
3423.000000	97.197871 
3422.000000	97.197445 
3421.000000	97.196615 
3420.000000	97.195352 
3419.000000	97.193951 
3418.000000	97.192696 
3417.000000	97.191670 
3416.000000	97.190845 
3415.000000	97.190191 
3414.000000	97.189620 
3413.000000	97.188955 
3412.000000	97.188072 
3411.000000	97.187066 
3410.000000	97.186189 
3409.000000	97.185625 
3408.000000	97.185343 
3407.000000	97.185158 
3406.000000	97.184912 
3405.000000	97.184585 
3404.000000	97.184258 
3403.000000	97.184015 
3402.000000	97.183858 
3401.000000	97.183705 
3400.000000	97.183472 
3399.000000	97.183140 
3398.000000	97.182768 
3397.000000	97.182455 
3396.000000	97.182298 
3395.000000	97.182364 
3394.000000	97.182638 
3393.000000	97.182993 
3392.000000	97.183238 
3391.000000	97.183251 
3390.000000	97.183067 
3389.000000	97.182874 
3388.000000	97.182914 
3387.000000	97.183343 
3386.000000	97.184139 
3385.000000	97.185033 
3384.000000	97.185639 
3383.000000	97.185755 
3382.000000	97.185604 
3381.000000	97.185730 
3380.000000	97.186457 
3379.000000	97.187609 
3378.000000	97.188777 
3377.000000	97.189842 
3376.000000	97.191003 
3375.000000	97.192320 
3374.000000	97.193508 
3373.000000	97.194279 
3372.000000	97.194759 
3371.000000	97.195426 
3370.000000	97.196650 
3369.000000	97.198355 
3368.000000	97.200105 
3367.000000	97.201444 
3366.000000	97.202162 
3365.000000	97.202344 
3364.000000	97.202264 
3363.000000	97.202224 
3362.000000	97.202445 
3361.000000	97.203043 
3360.000000	97.204095 
3359.000000	97.205647 
3358.000000	97.207621 
3357.000000	97.209722 
3356.000000	97.211520 
3355.000000	97.212803 
3354.000000	97.213851 
3353.000000	97.215295 
3352.000000	97.217578 
3351.000000	97.220561 
3350.000000	97.223602 
3349.000000	97.226032 
3348.000000	97.227681 
3347.000000	97.228986 
3346.000000	97.230580 
3345.000000	97.232655 
3344.000000	97.234731 
3343.000000	97.236199 
3342.000000	97.237039 
3341.000000	97.237927 
3340.000000	97.239542 
3339.000000	97.241813 
3338.000000	97.244066 
3337.000000	97.245716 
3336.000000	97.246752 
3335.000000	97.247579 
3334.000000	97.248632 
3333.000000	97.250097 
3332.000000	97.251880 
3331.000000	97.253763 
3330.000000	97.255572 
3329.000000	97.257269 
3328.000000	97.258918 
3327.000000	97.260608 
3326.000000	97.262367 
3325.000000	97.264142 
3324.000000	97.265851 
3323.000000	97.267472 
3322.000000	97.269080 
3321.000000	97.270774 
3320.000000	97.272574 
3319.000000	97.274421 
3318.000000	97.276251 
3317.000000	97.278044 
3316.000000	97.279815 
3315.000000	97.281578 
3314.000000	97.283346 
3313.000000	97.285132 
3312.000000	97.286943 
3311.000000	97.288777 
3310.000000	97.290621 
3309.000000	97.292457 
3308.000000	97.294260 
3307.000000	97.296019 
3306.000000	97.297748 
3305.000000	97.299472 
3304.000000	97.301211 
3303.000000	97.302970 
3302.000000	97.304753 
3301.000000	97.306556 
3300.000000	97.308366 
3299.000000	97.310169 
3298.000000	97.311956 
3297.000000	97.313732 
3296.000000	97.315515 
3295.000000	97.317323 
3294.000000	97.319162 
3293.000000	97.321028 
3292.000000	97.322912 
3291.000000	97.324803 
3290.000000	97.326694 
3289.000000	97.328580 
3288.000000	97.330461 
3287.000000	97.332337 
3286.000000	97.334210 
3285.000000	97.336080 
3284.000000	97.337949 
3283.000000	97.339821 
3282.000000	97.341702 
3281.000000	97.343596 
3280.000000	97.345502 
3279.000000	97.347418 
3278.000000	97.349345 
3277.000000	97.351287 
3276.000000	97.353249 
3275.000000	97.355231 
3274.000000	97.357226 
3273.000000	97.359230 
3272.000000	97.361242 
3271.000000	97.363261 
3270.000000	97.365286 
3269.000000	97.367310 
3268.000000	97.369329 
3267.000000	97.371346 
3266.000000	97.373373 
3265.000000	97.375422 
3264.000000	97.377504 
3263.000000	97.379618 
3262.000000	97.381755 
3261.000000	97.383903 
3260.000000	97.386056 
3259.000000	97.388212 
3258.000000	97.390379 
3257.000000	97.392570 
3256.000000	97.394795 
3255.000000	97.397055 
3254.000000	97.399342 
3253.000000	97.401643 
3252.000000	97.403945 
3251.000000	97.406243 
3250.000000	97.408545 
3249.000000	97.410852 
3248.000000	97.413160 
3247.000000	97.415459 
3246.000000	97.417753 
3245.000000	97.420061 
3244.000000	97.422404 
3243.000000	97.424782 
3242.000000	97.427165 
3241.000000	97.429535 
3240.000000	97.431908 
3239.000000	97.434334 
3238.000000	97.436849 
3237.000000	97.439450 
3236.000000	97.442101 
3235.000000	97.444731 
3234.000000	97.447262 
3233.000000	97.449659 
3232.000000	97.451960 
3231.000000	97.454282 
3230.000000	97.456714 
3229.000000	97.459238 
3228.000000	97.461774 
3227.000000	97.464281 
3226.000000	97.466805 
3225.000000	97.469403 
3224.000000	97.472047 
3223.000000	97.474655 
3222.000000	97.477198 
3221.000000	97.479735 
3220.000000	97.482328 
3219.000000	97.484961 
3218.000000	97.487569 
3217.000000	97.490113 
3216.000000	97.492614 
3215.000000	97.495107 
3214.000000	97.497614 
3213.000000	97.500143 
3212.000000	97.502688 
3211.000000	97.505239 
3210.000000	97.507795 
3209.000000	97.510360 
3208.000000	97.512943 
3207.000000	97.515540 
3206.000000	97.518151 
3205.000000	97.520776 
3204.000000	97.523419 
3203.000000	97.526073 
3202.000000	97.528731 
3201.000000	97.531384 
3200.000000	97.534029 
3199.000000	97.536665 
3198.000000	97.539295 
3197.000000	97.541924 
3196.000000	97.544557 
3195.000000	97.547197 
3194.000000	97.549849 
3193.000000	97.552521 
3192.000000	97.555220 
3191.000000	97.557942 
3190.000000	97.560672 
3189.000000	97.563393 
3188.000000	97.566099 
3187.000000	97.568794 
3186.000000	97.571490 
3185.000000	97.574198 
3184.000000	97.576921 
3183.000000	97.579654 
3182.000000	97.582394 
3181.000000	97.585136 
3180.000000	97.587877 
3179.000000	97.590615 
3178.000000	97.593349 
3177.000000	97.596084 
3176.000000	97.598844 
3175.000000	97.601645 
3174.000000	97.604487 
3173.000000	97.607341 
3172.000000	97.610153 
3171.000000	97.612864 
3170.000000	97.615454 
3169.000000	97.617978 
3168.000000	97.620528 
3167.000000	97.623131 
3166.000000	97.625745 
3165.000000	97.628352 
3164.000000	97.631007 
3163.000000	97.633732 
3162.000000	97.636425 
3161.000000	97.638937 
3160.000000	97.641220 
3159.000000	97.643368 
3158.000000	97.645593 
3157.000000	97.648151 
3156.000000	97.651206 
3155.000000	97.654660 
3154.000000	97.658189 
3153.000000	97.661527 
3152.000000	97.664624 
3151.000000	97.667413 
3150.000000	97.669654 
3149.000000	97.671198 
3148.000000	97.672346 
3147.000000	97.673750 
3146.000000	97.675922 
3145.000000	97.678944 
3144.000000	97.682537 
3143.000000	97.686250 
3142.000000	97.689644 
3141.000000	97.692504 
3140.000000	97.694961 
3139.000000	97.697366 
3138.000000	97.699958 
3137.000000	97.702612 
3136.000000	97.704901 
3135.000000	97.706457 
3134.000000	97.707347 
3133.000000	97.708154 
3132.000000	97.709568 
3131.000000	97.711818 
3130.000000	97.714622 
3129.000000	97.717574 
3128.000000	97.720482 
3127.000000	97.723351 
3126.000000	97.726258 
3125.000000	97.729320 
3124.000000	97.732603 
3123.000000	97.735937 
3122.000000	97.738941 
3121.000000	97.741375 
3120.000000	97.743403 
3119.000000	97.745457 
3118.000000	97.747842 
3117.000000	97.750523 
3116.000000	97.753196 
3115.000000	97.755511 
3114.000000	97.757321 
3113.000000	97.758836 
3112.000000	97.760541 
3111.000000	97.762800 
3110.000000	97.765526 
3109.000000	97.768237 
3108.000000	97.770497 
3107.000000	97.772343 
3106.000000	97.774229 
3105.000000	97.776511 
3104.000000	97.779029 
3103.000000	97.781275 
3102.000000	97.782925 
3101.000000	97.784085 
3100.000000	97.785112 
3099.000000	97.786358 
3098.000000	97.788075 
3097.000000	97.790412 
3096.000000	97.793287 
3095.000000	97.796292 
3094.000000	97.798947 
3093.000000	97.801059 
3092.000000	97.802774 
3091.000000	97.804354 
3090.000000	97.805955 
3089.000000	97.807619 
3088.000000	97.809324 
3087.000000	97.811059 
3086.000000	97.812896 
3085.000000	97.814956 
3084.000000	97.817180 
3083.000000	97.819260 
3082.000000	97.820974 
3081.000000	97.822510 
3080.000000	97.824262 
3079.000000	97.826241 
3078.000000	97.827985 
3077.000000	97.829250 
3076.000000	97.830434 
3075.000000	97.831942 
3074.000000	97.833470 
3073.000000	97.834501 
3072.000000	97.835263 
3071.000000	97.836563 
3070.000000	97.838710 
3069.000000	97.841173 
3068.000000	97.843293 
3067.000000	97.844816 
3066.000000	97.845633 
3065.000000	97.845655 
3064.000000	97.845166 
3063.000000	97.844823 
3062.000000	97.845017 
3061.000000	97.845537 
3060.000000	97.846043 
3059.000000	97.846668 
3058.000000	97.847998 
3057.000000	97.850562 
3056.000000	97.854253 
3055.000000	97.857934 
3054.000000	97.859970 
3053.000000	97.859707 
3052.000000	97.858402 
3051.000000	97.858297 
3050.000000	97.860344 
3049.000000	97.863272 
3048.000000	97.865029 
3047.000000	97.864727 
3046.000000	97.862942 
3045.000000	97.860850 
3044.000000	97.859596 
3043.000000	97.860159 
3042.000000	97.862966 
3041.000000	97.867208 
3040.000000	97.870901 
3039.000000	97.872280 
3038.000000	97.871139 
3037.000000	97.868667 
3036.000000	97.866073 
3035.000000	97.863537 
3034.000000	97.860691 
3033.000000	97.857762 
3032.000000	97.855630 
3031.000000	97.854781 
3030.000000	97.854709 
3029.000000	97.854501 
3028.000000	97.853545 
3027.000000	97.851479 
3026.000000	97.848092 
3025.000000	97.843858 
3024.000000	97.840152 
3023.000000	97.838118 
3022.000000	97.837471 
3021.000000	97.837156 
3020.000000	97.837013 
3019.000000	97.837837 
3018.000000	97.839576 
3017.000000	97.840431 
3016.000000	97.838493 
3015.000000	97.833841 
3014.000000	97.828662 
3013.000000	97.825421 
3012.000000	97.824909 
3011.000000	97.825628 
3010.000000	97.824841 
3009.000000	97.820711 
3008.000000	97.813731 
3007.000000	97.806084 
3006.000000	97.799565 
3005.000000	97.794523 
3004.000000	97.790759 
3003.000000	97.788582 
3002.000000	97.788603 
3001.000000	97.790874 
3000.000000	97.794432 
2999.000000	97.797274 
2998.000000	97.796858 
2997.000000	97.791591 
2996.000000	97.782536 
2995.000000	97.773206 
2994.000000	97.766740 
2993.000000	97.763452 
2992.000000	97.761344 
2991.000000	97.758447 
2990.000000	97.754237 
2989.000000	97.749452 
2988.000000	97.745539 
2987.000000	97.744107 
2986.000000	97.745988 
2985.000000	97.750464 
2984.000000	97.755750 
2983.000000	97.760398 
2982.000000	97.763981 
2981.000000	97.766555 
2980.000000	97.768016 
2979.000000	97.768227 
2978.000000	97.767421 
2977.000000	97.766195 
2976.000000	97.765195 
2975.000000	97.764954 
2974.000000	97.766041 
2973.000000	97.769128 
2972.000000	97.774511 
2971.000000	97.781320 
2970.000000	97.787504 
2969.000000	97.791310 
2968.000000	97.792929 
2967.000000	97.794138 
2966.000000	97.796080 
2965.000000	97.798063 
2964.000000	97.798994 
2963.000000	97.799349 
2962.000000	97.800978 
2961.000000	97.805132 
2960.000000	97.811346 
2959.000000	97.818144 
2958.000000	97.824333 
2957.000000	97.829541 
2956.000000	97.833947 
2955.000000	97.837760 
2954.000000	97.841017 
2953.000000	97.844012 
2952.000000	97.847724 
2951.000000	97.853091 
2950.000000	97.859432 
2949.000000	97.864254 
2948.000000	97.865550 
2947.000000	97.863996 
2946.000000	97.862324 
2945.000000	97.862486 
2944.000000	97.864056 
2943.000000	97.865421 
2942.000000	97.865548 
2941.000000	97.864349 
2940.000000	97.862348 
2939.000000	97.860726 
2938.000000	97.861078 
2937.000000	97.864224 
2936.000000	97.869169 
2935.000000	97.873638 
2934.000000	97.875798 
2933.000000	97.875400 
2932.000000	97.873625 
2931.000000	97.872209 
2930.000000	97.872442 
2929.000000	97.874479 
2928.000000	97.877374 
2927.000000	97.879856 
2926.000000	97.881167 
2925.000000	97.881326 
2924.000000	97.880930 
2923.000000	97.880756 
2922.000000	97.881144 
2921.000000	97.881604 
2920.000000	97.881487 
2919.000000	97.881186 
2918.000000	97.881981 
2917.000000	97.884173 
2916.000000	97.886045 
2915.000000	97.885586 
2914.000000	97.883002 
2913.000000	97.880518 
2912.000000	97.879648 
2911.000000	97.879521 
2910.000000	97.878325 
2909.000000	97.875689 
2908.000000	97.873086 
2907.000000	97.872122 
2906.000000	97.872859 
2905.000000	97.873591 
2904.000000	97.872333 
2903.000000	97.868788 
2902.000000	97.865591 
2901.000000	97.866000 
2900.000000	97.870942 
2899.000000	97.878475 
2898.000000	97.885877 
2897.000000	97.892060 
2896.000000	97.897021 
2895.000000	97.900199 
2894.000000	97.900975 
2893.000000	97.900550 
2892.000000	97.901526 
2891.000000	97.904994 
2890.000000	97.909303 
2889.000000	97.912518 
2888.000000	97.915053 
2887.000000	97.918527 
2886.000000	97.922763 
2885.000000	97.925733 
2884.000000	97.926636 
2883.000000	97.927336 
2882.000000	97.929894 
2881.000000	97.933922 
2880.000000	97.937644 
2879.000000	97.940828 
2878.000000	97.944993 
2877.000000	97.950720 
2876.000000	97.956328 
2875.000000	97.959888 
2874.000000	97.961470 
2873.000000	97.962587 
2872.000000	97.964174 
2871.000000	97.966044 
2870.000000	97.967911 
2869.000000	97.969871 
2868.000000	97.971957 
2867.000000	97.973993 
2866.000000	97.975968 
2865.000000	97.978009 
2864.000000	97.980080 
2863.000000	97.982267 
2862.000000	97.985217 
2861.000000	97.989555 
2860.000000	97.994822 
2859.000000	97.999671 
2858.000000	98.003307 
2857.000000	98.006226 
2856.000000	98.009378 
2855.000000	98.012933 
2854.000000	98.016182 
2853.000000	98.018530 
2852.000000	98.020144 
2851.000000	98.021675 
2850.000000	98.023630 
2849.000000	98.026036 
2848.000000	98.028562 
2847.000000	98.030857 
2846.000000	98.032845 
2845.000000	98.034710 
2844.000000	98.036634 
2843.000000	98.038668 
2842.000000	98.040885 
2841.000000	98.043416 
2840.000000	98.046185 
2839.000000	98.048790 
2838.000000	98.050866 
2837.000000	98.052458 
2836.000000	98.053898 
2835.000000	98.055409 
2834.000000	98.057034 
2833.000000	98.058880 
2832.000000	98.061140 
2831.000000	98.063774 
2830.000000	98.066332 
2829.000000	98.068266 
2828.000000	98.069433 
2827.000000	98.070201 
2826.000000	98.071161 
2825.000000	98.072631 
2824.000000	98.074505 
2823.000000	98.076428 
2822.000000	98.078101 
2821.000000	98.079464 
2820.000000	98.080617 
2819.000000	98.081661 
2818.000000	98.082648 
2817.000000	98.083653 
2816.000000	98.084785 
2815.000000	98.086100 
2814.000000	98.087532 
2813.000000	98.088928 
2812.000000	98.090176 
2811.000000	98.091283 
2810.000000	98.092343 
2809.000000	98.093463 
2808.000000	98.094678 
2807.000000	98.095951 
2806.000000	98.097227 
2805.000000	98.098477 
2804.000000	98.099701 
2803.000000	98.100896 
2802.000000	98.102063 
2801.000000	98.103215 
2800.000000	98.104365 
2799.000000	98.105501 
2798.000000	98.106598 
2797.000000	98.107654 
2796.000000	98.108691 
2795.000000	98.109731 
2794.000000	98.110779 
2793.000000	98.111833 
2792.000000	98.112888 
2791.000000	98.113944 
2790.000000	98.114997 
2789.000000	98.116047 
2788.000000	98.117096 
2787.000000	98.118144 
2786.000000	98.119194 
2785.000000	98.120247 
2784.000000	98.121302 
2783.000000	98.122354 
2782.000000	98.123398 
2781.000000	98.124431 
2780.000000	98.125454 
2779.000000	98.126472 
2778.000000	98.127485 
2777.000000	98.128491 
2776.000000	98.129487 
2775.000000	98.130471 
2774.000000	98.131441 
2773.000000	98.132395 
2772.000000	98.133333 
2771.000000	98.134257 
2770.000000	98.135170 
2769.000000	98.136079 
2768.000000	98.136991 
2767.000000	98.137905 
2766.000000	98.138811 
2765.000000	98.139702 
2764.000000	98.140576 
2763.000000	98.141421 
2762.000000	98.142212 
2761.000000	98.142934 
2760.000000	98.143612 
2759.000000	98.144303 
2758.000000	98.145048 
2757.000000	98.145839 
2756.000000	98.146611 
2755.000000	98.147313 
2754.000000	98.147960 
2753.000000	98.148634 
2752.000000	98.149377 
2751.000000	98.150139 
2750.000000	98.150854 
2749.000000	98.151546 
2748.000000	98.152261 
2747.000000	98.152908 
2746.000000	98.153344 
2745.000000	98.153581 
2744.000000	98.153819 
2743.000000	98.154242 
2742.000000	98.154846 
2741.000000	98.155483 
2740.000000	98.156016 
2739.000000	98.156429 
2738.000000	98.156784 
2737.000000	98.157157 
2736.000000	98.157605 
2735.000000	98.158144 
2734.000000	98.158734 
2733.000000	98.159315 
2732.000000	98.159876 
2731.000000	98.160467 
2730.000000	98.161148 
2729.000000	98.161930 
2728.000000	98.162750 
2727.000000	98.163486 
2726.000000	98.164038 
2725.000000	98.164413 
2724.000000	98.164725 
2723.000000	98.165089 
2722.000000	98.165512 
2721.000000	98.165932 
2720.000000	98.166350 
2719.000000	98.166852 
2718.000000	98.167488 
2717.000000	98.168175 
2716.000000	98.168749 
2715.000000	98.169146 
2714.000000	98.169495 
2713.000000	98.169975 
2712.000000	98.170601 
2711.000000	98.171228 
2710.000000	98.171765 
2709.000000	98.172291 
2708.000000	98.172944 
2707.000000	98.173774 
2706.000000	98.174721 
2705.000000	98.175658 
2704.000000	98.176425 
2703.000000	98.176895 
2702.000000	98.177103 
2701.000000	98.177299 
2700.000000	98.177788 
2699.000000	98.178687 
2698.000000	98.179855 
2697.000000	98.180946 
2696.000000	98.181626 
2695.000000	98.181811 
2694.000000	98.181752 
2693.000000	98.181854 
2692.000000	98.182275 
2691.000000	98.182782 
2690.000000	98.183029 
2689.000000	98.182934 
2688.000000	98.182689 
2687.000000	98.182501 
2686.000000	98.182456 
2685.000000	98.182609 
2684.000000	98.182999 
2683.000000	98.183517 
2682.000000	98.183934 
2681.000000	98.184118 
2680.000000	98.184156 
2679.000000	98.184239 
2678.000000	98.184511 
2677.000000	98.185047 
2676.000000	98.185766 
2675.000000	98.186287 
2674.000000	98.186121 
2673.000000	98.185183 
2672.000000	98.183989 
2671.000000	98.183154 
2670.000000	98.182775 
2669.000000	98.182557 
2668.000000	98.182319 
2667.000000	98.182130 
2666.000000	98.181963 
2665.000000	98.181549 
2664.000000	98.180745 
2663.000000	98.179858 
2662.000000	98.179383 
2661.000000	98.179417 
2660.000000	98.179535 
2659.000000	98.179279 
2658.000000	98.178636 
2657.000000	98.177947 
2656.000000	98.177464 
2655.000000	98.177112 
2654.000000	98.176651 
2653.000000	98.175926 
2652.000000	98.174980 
2651.000000	98.174068 
2650.000000	98.173586 
2649.000000	98.173822 
2648.000000	98.174646 
2647.000000	98.175448 
2646.000000	98.175510 
2645.000000	98.174481 
2644.000000	98.172607 
2643.000000	98.170670 
2642.000000	98.169480 
2641.000000	98.169247 
2640.000000	98.169484 
2639.000000	98.169570 
2638.000000	98.169476 
2637.000000	98.169653 
2636.000000	98.170289 
2635.000000	98.171097 
2634.000000	98.171816 
2633.000000	98.172486 
2632.000000	98.173046 
2631.000000	98.173127 
2630.000000	98.172600 
2629.000000	98.172013 
2628.000000	98.172039 
2627.000000	98.172646 
2626.000000	98.173241 
2625.000000	98.173531 
2624.000000	98.173780 
2623.000000	98.174216 
2622.000000	98.174632 
2621.000000	98.174664 
2620.000000	98.174149 
2619.000000	98.173121 
2618.000000	98.171819 
2617.000000	98.170731 
2616.000000	98.170325 
2615.000000	98.170609 
2614.000000	98.171150 
2613.000000	98.171581 
2612.000000	98.171911 
2611.000000	98.172383 
2610.000000	98.173282 
2609.000000	98.174817 
2608.000000	98.176792 
2607.000000	98.178408 
2606.000000	98.178878 
2605.000000	98.178203 
2604.000000	98.177023 
2603.000000	98.175805 
2602.000000	98.174622 
2601.000000	98.173780 
2600.000000	98.173892 
2599.000000	98.175000 
2598.000000	98.176174 
2597.000000	98.176531 
2596.000000	98.176228 
2595.000000	98.175877 
2594.000000	98.175512 
2593.000000	98.174887 
2592.000000	98.174474 
2591.000000	98.175175 
2590.000000	98.176980 
2589.000000	98.178688 
2588.000000	98.179361 
2587.000000	98.179370 
2586.000000	98.179619 
2585.000000	98.180274 
2584.000000	98.180791 
2583.000000	98.180846 
2582.000000	98.180696 
2581.000000	98.180734 
2580.000000	98.181103 
2579.000000	98.181799 
2578.000000	98.182917 
2577.000000	98.184522 
2576.000000	98.186251 
2575.000000	98.187270 
2574.000000	98.186960 
2573.000000	98.185594 
2572.000000	98.184049 
2571.000000	98.182736 
2570.000000	98.181340 
2569.000000	98.179775 
2568.000000	98.178759 
2567.000000	98.178849 
2566.000000	98.179342 
2565.000000	98.178933 
2564.000000	98.177428 
2563.000000	98.176023 
2562.000000	98.175710 
2561.000000	98.176248 
2560.000000	98.177015 
2559.000000	98.178087 
2558.000000	98.179855 
2557.000000	98.181986 
2556.000000	98.183545 
2555.000000	98.184079 
2554.000000	98.184004 
2553.000000	98.183939 
2552.000000	98.184104 
2551.000000	98.184525 
2550.000000	98.185300 
2549.000000	98.186231 
2548.000000	98.186539 
2547.000000	98.185592 
2546.000000	98.183847 
2545.000000	98.182670 
2544.000000	98.182883 
2543.000000	98.183887 
2542.000000	98.184394 
2541.000000	98.183898 
2540.000000	98.183052 
2539.000000	98.182676 
2538.000000	98.182763 
2537.000000	98.182714 
2536.000000	98.182259 
2535.000000	98.181789 
2534.000000	98.181801 
2533.000000	98.182284 
2532.000000	98.182787 
2531.000000	98.182966 
2530.000000	98.182837 
2529.000000	98.182497 
2528.000000	98.181859 
2527.000000	98.180891 
2526.000000	98.180012 
2525.000000	98.179875 
2524.000000	98.180704 
2523.000000	98.182071 
2522.000000	98.183290 
2521.000000	98.183972 
2520.000000	98.184085 
2519.000000	98.183775 
2518.000000	98.183338 
2517.000000	98.183078 
2516.000000	98.182981 
2515.000000	98.182670 
2514.000000	98.181987 
2513.000000	98.181438 
2512.000000	98.181674 
2511.000000	98.182713 
2510.000000	98.184040 
2509.000000	98.185287 
2508.000000	98.186415 
2507.000000	98.187359 
2506.000000	98.188051 
2505.000000	98.188726 
2504.000000	98.189703 
2503.000000	98.190775 
2502.000000	98.191255 
2501.000000	98.190833 
2500.000000	98.190007 
2499.000000	98.189546 
2498.000000	98.189755 
2497.000000	98.190441 
2496.000000	98.191298 
2495.000000	98.192122 
2494.000000	98.192766 
2493.000000	98.193103 
2492.000000	98.193138 
2491.000000	98.193099 
2490.000000	98.193296 
2489.000000	98.193826 
2488.000000	98.194461 
2487.000000	98.194876 
2486.000000	98.195002 
2485.000000	98.195086 
2484.000000	98.195387 
2483.000000	98.195895 
2482.000000	98.196381 
2481.000000	98.196644 
2480.000000	98.196614 
2479.000000	98.196290 
2478.000000	98.195799 
2477.000000	98.195471 
2476.000000	98.195601 
2475.000000	98.196076 
2474.000000	98.196400 
2473.000000	98.196195 
2472.000000	98.195540 
2471.000000	98.194785 
2470.000000	98.194209 
2469.000000	98.194022 
2468.000000	98.194429 
2467.000000	98.195389 
2466.000000	98.196364 
2465.000000	98.196608 
2464.000000	98.195881 
2463.000000	98.194840 
2462.000000	98.194631 
2461.000000	98.195968 
2460.000000	98.198537 
2459.000000	98.201148 
2458.000000	98.202675 
2457.000000	98.202755 
2456.000000	98.201591 
2455.000000	98.199558 
2454.000000	98.197201 
2453.000000	98.195226 
2452.000000	98.194021 
2451.000000	98.193350 
2450.000000	98.192931 
2449.000000	98.193012 
2448.000000	98.193790 
2447.000000	98.194582 
2446.000000	98.194414 
2445.000000	98.193311 
2444.000000	98.192207 
2443.000000	98.191667 
2442.000000	98.191608 
2441.000000	98.192136 
2440.000000	98.193641 
2439.000000	98.196021 
2438.000000	98.198763 
2437.000000	98.201810 
2436.000000	98.205333 
2435.000000	98.208568 
2434.000000	98.210058 
2433.000000	98.209391 
2432.000000	98.207792 
2431.000000	98.206729 
2430.000000	98.206684 
2429.000000	98.207509 
2428.000000	98.208867 
2427.000000	98.209897 
2426.000000	98.209444 
2425.000000	98.207243 
2424.000000	98.204411 
2423.000000	98.202414 
2422.000000	98.201907 
2421.000000	98.202794 
2420.000000	98.204747 
2419.000000	98.207025 
2418.000000	98.208494 
2417.000000	98.208950 
2416.000000	98.209455 
2415.000000	98.210709 
2414.000000	98.211984 
2413.000000	98.212686 
2412.000000	98.213638 
2411.000000	98.215395 
2410.000000	98.216730 
2409.000000	98.216394 
2408.000000	98.215229 
2407.000000	98.214924 
2406.000000	98.215564 
2405.000000	98.215897 
2404.000000	98.215341 
2403.000000	98.214328 
2402.000000	98.213284 
2401.000000	98.212618 
2400.000000	98.213127 
2399.000000	98.215148 
2398.000000	98.217778 
2397.000000	98.220038 
2396.000000	98.222111 
2395.000000	98.224240 
2394.000000	98.225301 
2393.000000	98.224133 
2392.000000	98.221735 
2391.000000	98.220295 
2390.000000	98.220132 
2389.000000	98.219216 
2388.000000	98.215820 
2387.000000	98.210289 
2386.000000	98.204170 
2385.000000	98.198981 
2384.000000	98.196002 
2383.000000	98.196050 
2382.000000	98.199313 
2381.000000	98.206391 
2380.000000	98.219169 
2379.000000	98.238682 
2378.000000	98.261159 
2377.000000	98.278192 
2376.000000	98.283029 
2375.000000	98.275514 
2374.000000	98.260525 
2373.000000	98.242946 
2372.000000	98.225770 
2371.000000	98.212194 
2370.000000	98.205601 
2369.000000	98.205964 
2368.000000	98.208158 
2367.000000	98.206241 
2366.000000	98.199635 
2365.000000	98.193560 
2364.000000	98.192492 
2363.000000	98.194684 
2362.000000	98.195591 
2361.000000	98.194137 
2360.000000	98.191409 
2359.000000	98.188118 
2358.000000	98.184543 
2357.000000	98.182711 
2356.000000	98.183888 
2355.000000	98.185221 
2354.000000	98.184113 
2353.000000	98.179865 
2352.000000	98.174563 
2351.000000	98.170384 
2350.000000	98.166730 
2349.000000	98.163321 
2348.000000	98.160396 
2347.000000	98.158924 
2346.000000	98.155658 
2345.000000	98.147498 
2344.000000	98.137609 
2343.000000	98.130318 
2342.000000	98.130218 
2341.000000	98.138350 
2340.000000	98.151264 
2339.000000	98.161381 
2338.000000	98.164269 
2337.000000	98.162075 
2336.000000	98.159265 
2335.000000	98.156085 
2334.000000	98.150930 
2333.000000	98.143225 
2332.000000	98.134960 
2331.000000	98.126485 
2330.000000	98.113739 
2329.000000	98.094435 
2328.000000	98.069921 
2327.000000	98.047921 
2326.000000	98.033670 
2325.000000	98.027341 
2324.000000	98.027662 
2323.000000	98.033028 
2322.000000	98.042324 
2321.000000	98.050128 
2320.000000	98.053334 
2319.000000	98.054024 
2318.000000	98.057227 
2317.000000	98.064378 
2316.000000	98.072561 
2315.000000	98.078282 
2314.000000	98.079224 
2313.000000	98.075324 
2312.000000	98.068323 
2311.000000	98.061969 
2310.000000	98.058512 
2309.000000	98.057259 
2308.000000	98.056630 
2307.000000	98.057415 
2306.000000	98.061291 
2305.000000	98.066931 
2304.000000	98.070769 
2303.000000	98.071023 
2302.000000	98.069982 
2301.000000	98.071046 
2300.000000	98.074910 
2299.000000	98.078940 
2298.000000	98.079442 
2297.000000	98.075520 
2296.000000	98.069933 
2295.000000	98.067421 
2294.000000	98.070376 
2293.000000	98.077442 
2292.000000	98.085144 
2291.000000	98.091285 
2290.000000	98.096005 
2289.000000	98.100395 
2288.000000	98.104901 
2287.000000	98.108982 
2286.000000	98.112017 
2285.000000	98.114215 
2284.000000	98.116843 
2283.000000	98.120970 
2282.000000	98.126333 
2281.000000	98.131374 
2280.000000	98.134539 
2279.000000	98.135227 
2278.000000	98.134188 
2277.000000	98.133277 
2276.000000	98.134276 
2275.000000	98.137416 
2274.000000	98.141299 
2273.000000	98.144752 
2272.000000	98.148150 
2271.000000	98.152268 
2270.000000	98.156477 
2269.000000	98.159458 
2268.000000	98.161302 
2267.000000	98.163392 
2266.000000	98.166140 
2265.000000	98.168491 
2264.000000	98.169622 
2263.000000	98.169708 
2262.000000	98.168881 
2261.000000	98.166912 
2260.000000	98.164529 
2259.000000	98.163347 
2258.000000	98.163948 
2257.000000	98.165291 
2256.000000	98.166639 
2255.000000	98.168739 
2254.000000	98.172276 
2253.000000	98.176197 
2252.000000	98.178599 
2251.000000	98.178694 
2250.000000	98.176924 
2249.000000	98.174024 
2248.000000	98.170981 
2247.000000	98.169201 
2246.000000	98.169482 
2245.000000	98.171086 
2244.000000	98.172254 
2243.000000	98.172050 
2242.000000	98.171077 
2241.000000	98.170469 
2240.000000	98.170689 
2239.000000	98.171467 
2238.000000	98.172379 
2237.000000	98.173169 
2236.000000	98.173746 
2235.000000	98.174120 
2234.000000	98.174355 
2233.000000	98.174524 
2232.000000	98.174735 
2231.000000	98.175092 
2230.000000	98.175474 
2229.000000	98.175517 
2228.000000	98.175041 
2227.000000	98.174377 
2226.000000	98.173992 
2225.000000	98.173883 
2224.000000	98.173632 
2223.000000	98.173041 
2222.000000	98.172448 
2221.000000	98.172312 
2220.000000	98.172611 
2219.000000	98.173023 
2218.000000	98.173293 
2217.000000	98.173457 
2216.000000	98.173653 
2215.000000	98.173909 
2214.000000	98.174164 
2213.000000	98.174375 
2212.000000	98.174567 
2211.000000	98.174798 
2210.000000	98.175108 
2209.000000	98.175490 
2208.000000	98.175918 
2207.000000	98.176362 
2206.000000	98.176802 
2205.000000	98.177225 
2204.000000	98.177626 
2203.000000	98.178009 
2202.000000	98.178398 
2201.000000	98.178802 
2200.000000	98.179176 
2199.000000	98.179466 
2198.000000	98.179669 
2197.000000	98.179840 
2196.000000	98.180056 
2195.000000	98.180365 
2194.000000	98.180777 
2193.000000	98.181323 
2192.000000	98.182079 
2191.000000	98.183063 
2190.000000	98.184163 
2189.000000	98.185246 
2188.000000	98.186296 
2187.000000	98.187325 
2186.000000	98.188208 
2185.000000	98.188815 
2184.000000	98.189368 
2183.000000	98.190443 
2182.000000	98.192395 
2181.000000	98.194972 
2180.000000	98.197326 
2179.000000	98.198838 
2178.000000	98.199497 
2177.000000	98.199853 
2176.000000	98.200604 
2175.000000	98.202130 
2174.000000	98.204374 
2173.000000	98.206963 
2172.000000	98.209566 
2171.000000	98.212083 
2170.000000	98.214354 
2169.000000	98.215873 
2168.000000	98.216169 
2167.000000	98.215563 
2166.000000	98.215204 
2165.000000	98.215890 
2164.000000	98.217058 
2163.000000	98.217512 
2162.000000	98.217393 
2161.000000	98.218762 
2160.000000	98.223508 
2159.000000	98.231098 
2158.000000	98.238767 
2157.000000	98.244309 
2156.000000	98.247731 
2155.000000	98.250089 
2154.000000	98.251958 
2153.000000	98.253527 
2152.000000	98.255112 
2151.000000	98.256433 
2150.000000	98.256142 
2149.000000	98.253388 
2148.000000	98.249562 
2147.000000	98.247222 
2146.000000	98.247269 
2145.000000	98.248537 
2144.000000	98.250172 
2143.000000	98.252847 
2142.000000	98.256716 
2141.000000	98.259724 
2140.000000	98.259583 
2139.000000	98.257037 
2138.000000	98.255706 
2137.000000	98.258424 
2136.000000	98.264378 
2135.000000	98.269637 
2134.000000	98.270457 
2133.000000	98.266192 
2132.000000	98.259871 
2131.000000	98.255673 
2130.000000	98.255040 
2129.000000	98.255858 
2128.000000	98.255282 
2127.000000	98.252918 
2126.000000	98.250775 
2125.000000	98.250632 
2124.000000	98.252250 
2123.000000	98.253974 
2122.000000	98.254162 
2121.000000	98.251948 
2120.000000	98.247407 
2119.000000	98.241608 
2118.000000	98.236259 
2117.000000	98.232796 
2116.000000	98.231444 
2115.000000	98.231061 
2114.000000	98.229903 
2113.000000	98.227015 
2112.000000	98.223297 
2111.000000	98.220876 
2110.000000	98.221086 
2109.000000	98.223353 
2108.000000	98.226054 
2107.000000	98.227947 
2106.000000	98.228519 
2105.000000	98.227840 
2104.000000	98.226876 
2103.000000	98.227068 
2102.000000	98.228500 
2101.000000	98.229116 
2100.000000	98.227059 
2099.000000	98.223442 
2098.000000	98.221561 
2097.000000	98.223092 
2096.000000	98.226654 
2095.000000	98.229965 
2094.000000	98.232117 
2093.000000	98.233304 
2092.000000	98.233627 
2091.000000	98.233250 
2090.000000	98.232974 
2089.000000	98.233624 
2088.000000	98.235071 
2087.000000	98.236364 
2086.000000	98.236763 
2085.000000	98.236284 
2084.000000	98.235413 
2083.000000	98.234642 
2082.000000	98.234290 
2081.000000	98.234520 
2080.000000	98.235369 
2079.000000	98.236739 
2078.000000	98.238329 
2077.000000	98.239690 
2076.000000	98.240568 
2075.000000	98.241204 
2074.000000	98.242071 
2073.000000	98.243218 
2072.000000	98.244223 
2071.000000	98.244816 
2070.000000	98.245259 
2069.000000	98.246052 
2068.000000	98.247392 
2067.000000	98.249116 
2066.000000	98.250975 
2065.000000	98.252731 
2064.000000	98.254149 
2063.000000	98.255128 
2062.000000	98.255846 
2061.000000	98.256811 
2060.000000	98.258528 
2059.000000	98.261160 
2058.000000	98.264377 
2057.000000	98.267507 
2056.000000	98.269903 
2055.000000	98.271193 
2054.000000	98.271613 
2053.000000	98.272117 
2052.000000	98.273551 
2051.000000	98.275713 
2050.000000	98.277596 
2049.000000	98.278600 
2048.000000	98.279184 
2047.000000	98.280184 
2046.000000	98.281943 
2045.000000	98.284321 
2044.000000	98.287169 
2043.000000	98.290442 
2042.000000	98.294048 
2041.000000	98.297828 
2040.000000	98.301690 
2039.000000	98.305604 
2038.000000	98.309408 
2037.000000	98.312613 
2036.000000	98.314517 
2035.000000	98.314822 
2034.000000	98.314448 
2033.000000	98.315365 
2032.000000	98.318814 
2031.000000	98.323670 
2030.000000	98.327069 
2029.000000	98.327209 
2028.000000	98.324996 
2027.000000	98.322769 
2026.000000	98.321760 
2025.000000	98.321822 
2024.000000	98.323163 
2023.000000	98.327033 
2022.000000	98.334101 
2021.000000	98.342466 
2020.000000	98.348220 
2019.000000	98.348508 
2018.000000	98.343294 
2017.000000	98.335223 
2016.000000	98.327965 
2015.000000	98.323830 
2014.000000	98.322616 
2013.000000	98.322234 
2012.000000	98.321142 
2011.000000	98.320532 
2010.000000	98.323032 
2009.000000	98.329093 
2008.000000	98.335590 
2007.000000	98.338868 
2006.000000	98.338344 
2005.000000	98.336061 
2004.000000	98.333933 
2003.000000	98.332666 
2002.000000	98.332545 
2001.000000	98.333263 
2000.000000	98.333057 
1999.000000	98.329774 
1998.000000	98.323288 
1997.000000	98.316050 
1996.000000	98.310842 
1995.000000	98.308611 
1994.000000	98.308730 
1993.000000	98.310032 
1992.000000	98.311093 
1991.000000	98.310807 
1990.000000	98.309671 
1989.000000	98.309569 
1988.000000	98.311307 
1987.000000	98.313039 
1986.000000	98.312149 
1985.000000	98.308427 
1984.000000	98.304246 
1983.000000	98.301749 
1982.000000	98.300939 
1981.000000	98.300857 
1980.000000	98.301482 
1979.000000	98.303556 
1978.000000	98.306937 
1977.000000	98.310108 
1976.000000	98.311415 
1975.000000	98.310551 
1974.000000	98.308752 
1973.000000	98.307876 
1972.000000	98.308901 
1971.000000	98.311022 
1970.000000	98.312263 
1969.000000	98.311144 
1968.000000	98.307725 
1967.000000	98.303470 
1966.000000	98.300290 
1965.000000	98.299372 
1964.000000	98.300842 
1963.000000	98.304047 
1962.000000	98.307925 
1961.000000	98.311104 
1960.000000	98.312070 
1959.000000	98.309984 
1958.000000	98.305683 
1957.000000	98.301578 
1956.000000	98.299568 
1955.000000	98.299345 
1954.000000	98.299176 
1953.000000	98.297917 
1952.000000	98.295728 
1951.000000	98.293153 
1950.000000	98.290567 
1949.000000	98.288574 
1948.000000	98.287858 
1947.000000	98.288207 
1946.000000	98.288330 
1945.000000	98.287129 
1944.000000	98.284709 
1943.000000	98.281831 
1942.000000	98.278933 
1941.000000	98.276084 
1940.000000	98.273475 
1939.000000	98.271323 
1938.000000	98.269638 
1937.000000	98.268567 
1936.000000	98.268457 
1935.000000	98.268990 
1934.000000	98.268874 
1933.000000	98.267302 
1932.000000	98.265190 
1931.000000	98.264099 
1930.000000	98.264297 
1929.000000	98.264595 
1928.000000	98.264006 
1927.000000	98.262659 
1926.000000	98.260958 
1925.000000	98.258895 
1924.000000	98.256437 
1923.000000	98.253990 
1922.000000	98.252014 
1921.000000	98.250483 
1920.000000	98.249236 
1919.000000	98.248297 
1918.000000	98.247414 
1917.000000	98.245947 
1916.000000	98.243742 
1915.000000	98.241605 
1914.000000	98.240357 
1913.000000	98.239672 
1912.000000	98.238386 
1911.000000	98.236106 
1910.000000	98.233818 
1909.000000	98.232713 
1908.000000	98.232914 
1907.000000	98.233618 
1906.000000	98.233912 
1905.000000	98.233174 
1904.000000	98.231192 
1903.000000	98.228500 
1902.000000	98.226228 
1901.000000	98.225052 
1900.000000	98.224602 
1899.000000	98.224091 
1898.000000	98.223127 
1897.000000	98.221718 
1896.000000	98.219777 
1895.000000	98.217160 
1894.000000	98.214101 
1893.000000	98.211147 
1892.000000	98.208694 
1891.000000	98.206902 
1890.000000	98.205893 
1889.000000	98.205669 
1888.000000	98.205958 
1887.000000	98.206406 
1886.000000	98.206735 
1885.000000	98.206450 
1884.000000	98.204958 
1883.000000	98.202442 
1882.000000	98.200297 
1881.000000	98.199886 
1880.000000	98.201076 
1879.000000	98.202300 
1878.000000	98.202253 
1877.000000	98.201349 
1876.000000	98.200988 
1875.000000	98.201803 
1874.000000	98.203213 
1873.000000	98.204350 
1872.000000	98.204924 
1871.000000	98.205101 
1870.000000	98.205050 
1869.000000	98.204981 
1868.000000	98.205252 
1867.000000	98.206047 
1866.000000	98.207056 
1865.000000	98.207690 
1864.000000	98.207794 
1863.000000	98.207924 
1862.000000	98.208734 
1861.000000	98.210241 
1860.000000	98.211906 
1859.000000	98.213369 
1858.000000	98.214807 
1857.000000	98.216461 
1856.000000	98.218225 
1855.000000	98.219796 
1854.000000	98.221005 
1853.000000	98.221942 
1852.000000	98.222935 
1851.000000	98.224292 
1850.000000	98.226018 
1849.000000	98.227882 
1848.000000	98.229654 
1847.000000	98.231292 
1846.000000	98.232853 
1845.000000	98.234352 
1844.000000	98.235773 
1843.000000	98.237154 
1842.000000	98.238550 
1841.000000	98.239959 
1840.000000	98.241400 
1839.000000	98.242918 
1838.000000	98.244469 
1837.000000	98.245865 
1836.000000	98.246970 
1835.000000	98.247870 
1834.000000	98.248848 
1833.000000	98.250055 
1832.000000	98.251411 
1831.000000	98.252639 
1830.000000	98.253487 
1829.000000	98.254028 
1828.000000	98.254624 
1827.000000	98.255489 
1826.000000	98.256579 
1825.000000	98.257728 
1824.000000	98.258713 
1823.000000	98.259333 
1822.000000	98.259587 
1821.000000	98.259696 
1820.000000	98.259852 
1819.000000	98.260091 
1818.000000	98.260572 
1817.000000	98.261575 
1816.000000	98.262898 
1815.000000	98.264012 
1814.000000	98.264936 
1813.000000	98.266304 
1812.000000	98.268082 
1811.000000	98.268803 
1810.000000	98.267656 
1809.000000	98.265976 
1808.000000	98.265169 
1807.000000	98.265077 
1806.000000	98.265289 
1805.000000	98.266001 
1804.000000	98.266906 
1803.000000	98.266690 
1802.000000	98.264708 
1801.000000	98.262663 
1800.000000	98.262282 
1799.000000	98.262800 
1798.000000	98.263030 
1797.000000	98.262847 
1796.000000	98.262180 
1795.000000	98.261054 
1794.000000	98.260236 
1793.000000	98.260594 
1792.000000	98.261179 
1791.000000	98.260620 
1790.000000	98.260198 
1789.000000	98.262152 
1788.000000	98.266625 
1787.000000	98.271526 
1786.000000	98.274963 
1785.000000	98.276944 
1784.000000	98.278322 
1783.000000	98.279510 
1782.000000	98.280445 
1781.000000	98.281363 
1780.000000	98.282760 
1779.000000	98.284841 
1778.000000	98.287606 
1777.000000	98.290665 
1776.000000	98.293249 
1775.000000	98.294866 
1774.000000	98.295608 
1773.000000	98.296143 
1772.000000	98.297090 
1771.000000	98.298226 
1770.000000	98.298983 
1769.000000	98.299403 
1768.000000	98.300066 
1767.000000	98.301246 
1766.000000	98.302687 
1765.000000	98.304152 
1764.000000	98.305637 
1763.000000	98.307057 
1762.000000	98.308223 
1761.000000	98.309245 
1760.000000	98.310410 
1759.000000	98.311712 
1758.000000	98.312932 
1757.000000	98.314011 
1756.000000	98.315205 
1755.000000	98.316556 
1754.000000	98.317607 
1753.000000	98.317930 
1752.000000	98.317726 
1751.000000	98.317975 
1750.000000	98.319307 
1749.000000	98.321277 
1748.000000	98.322992 
1747.000000	98.324256 
1746.000000	98.325268 
1745.000000	98.326221 
1744.000000	98.327377 
1743.000000	98.328724 
1742.000000	98.329573 
1741.000000	98.329372 
1740.000000	98.328830 
1739.000000	98.329433 
1738.000000	98.331289 
1737.000000	98.332960 
1736.000000	98.333115 
1735.000000	98.331312 
1734.000000	98.328272 
1733.000000	98.326060 
1732.000000	98.326098 
1731.000000	98.328365 
1730.000000	98.332382 
1729.000000	98.336329 
1728.000000	98.338602 
1727.000000	98.339102 
1726.000000	98.338811 
1725.000000	98.338370 
1724.000000	98.337847 
1723.000000	98.337297 
1722.000000	98.336903 
1721.000000	98.336336 
1720.000000	98.335147 
1719.000000	98.333121 
1718.000000	98.330674 
1717.000000	98.329665 
1716.000000	98.329450 
1715.000000	98.327192 
1714.000000	98.323707 
1713.000000	98.321084 
1712.000000	98.319039 
1711.000000	98.316860 
1710.000000	98.314923 
1709.000000	98.313645 
1708.000000	98.312487 
1707.000000	98.310645 
1706.000000	98.308302 
1705.000000	98.306038 
1704.000000	98.302134 
1703.000000	98.294456 
1702.000000	98.283458 
1701.000000	98.274191 
1700.000000	98.270475 
1699.000000	98.268768 
1698.000000	98.266214 
1697.000000	98.263819 
1696.000000	98.262010 
1695.000000	98.259868 
1694.000000	98.257148 
1693.000000	98.253743 
1692.000000	98.249346 
1691.000000	98.244122 
1690.000000	98.238642 
1689.000000	98.233235 
1688.000000	98.227749 
1687.000000	98.222196 
1686.000000	98.217829 
1685.000000	98.216360 
1684.000000	98.215514 
1683.000000	98.212460 
1682.000000	98.207646 
1681.000000	98.201216 
1680.000000	98.194765 
1679.000000	98.189743 
1678.000000	98.186120 
1677.000000	98.182480 
1676.000000	98.178268 
1675.000000	98.173737 
1674.000000	98.168218 
1673.000000	98.160895 
1672.000000	98.152575 
1671.000000	98.145634 
1670.000000	98.141383 
1669.000000	98.138353 
1668.000000	98.136173 
1667.000000	98.135682 
1666.000000	98.135367 
1665.000000	98.133547 
1664.000000	98.130715 
1663.000000	98.127843 
1662.000000	98.123502 
1661.000000	98.115081 
1660.000000	98.103489 
1659.000000	98.093108 
1658.000000	98.087732 
1657.000000	98.085687 
1656.000000	98.083771 
1655.000000	98.081311 
1654.000000	98.079998 
1653.000000	98.073354 
1652.000000	98.060444 
1651.000000	98.049699 
1650.000000	98.038320 
1649.000000	98.025565 
1648.000000	98.014150 
1647.000000	98.008764 
1646.000000	98.009675 
1645.000000	98.012839 
1644.000000	98.012776 
1643.000000	98.009280 
1642.000000	98.005475 
1641.000000	98.004231 
1640.000000	98.004678 
1639.000000	98.003510 
1638.000000	97.999439 
1637.000000	97.995335 
1636.000000	97.994985 
1635.000000	97.999973 
1634.000000	98.007416 
1633.000000	98.010982 
1632.000000	98.008280 
1631.000000	98.002861 
1630.000000	98.000274 
1629.000000	98.002679 
1628.000000	98.008593 
1627.000000	98.016293 
1626.000000	98.024732 
1625.000000	98.032972 
1624.000000	98.041047 
1623.000000	98.049970 
1622.000000	98.059247 
1621.000000	98.065442 
1620.000000	98.066703 
1619.000000	98.065973 
1618.000000	98.068741 
1617.000000	98.076179 
1616.000000	98.084039 
1615.000000	98.091002 
1614.000000	98.097239 
1613.000000	98.100794 
1612.000000	98.100807 
1611.000000	98.099634 
1610.000000	98.100605 
1609.000000	98.104661 
1608.000000	98.111019 
1607.000000	98.119043 
1606.000000	98.127054 
1605.000000	98.133091 
1604.000000	98.137726 
1603.000000	98.143252 
1602.000000	98.150293 
1601.000000	98.157201 
1600.000000	98.163244 
1599.000000	98.169677 
1598.000000	98.176878 
1597.000000	98.183401 
1596.000000	98.188335 
1595.000000	98.192891 
1594.000000	98.198429 
1593.000000	98.203963 
1592.000000	98.207822 
1591.000000	98.210661 
1590.000000	98.214689 
1589.000000	98.220746 
1588.000000	98.228225 
1587.000000	98.236701 
1586.000000	98.244968 
1585.000000	98.250451 
1584.000000	98.252367 
1583.000000	98.253238 
1582.000000	98.255879 
1581.000000	98.260458 
1580.000000	98.265807 
1579.000000	98.272054 
1578.000000	98.280472 
1577.000000	98.290406 
1576.000000	98.298106 
1575.000000	98.303352 
1574.000000	98.308433 
1573.000000	98.312893 
1572.000000	98.317070 
1571.000000	98.322286 
1570.000000	98.326006 
1569.000000	98.323050 
1568.000000	98.316140 
1567.000000	98.312093 
1566.000000	98.312995 
1565.000000	98.316589 
1564.000000	98.321584 
1563.000000	98.326352 
1562.000000	98.329754 
1561.000000	98.330177 
1560.000000	98.330324 
1559.000000	98.327773 
1558.000000	98.322032 
1557.000000	98.320218 
1556.000000	98.318869 
1555.000000	98.318705 
1554.000000	98.319081 
1553.000000	98.320880 
1552.000000	98.321057 
1551.000000	98.316275 
1550.000000	98.305839 
1549.000000	98.295084 
1548.000000	98.289806 
1547.000000	98.290202 
1546.000000	98.291888 
1545.000000	98.291264 
1544.000000	98.288695 
1543.000000	98.286379 
1542.000000	98.285679 
1541.000000	98.285538 
1540.000000	98.279191 
1539.000000	98.267327 
1538.000000	98.258437 
1537.000000	98.252159 
1536.000000	98.245457 
1535.000000	98.238506 
1534.000000	98.233302 
1533.000000	98.229986 
1532.000000	98.226528 
1531.000000	98.220654 
1530.000000	98.213151 
1529.000000	98.206216 
1528.000000	98.200356 
1527.000000	98.194947 
1526.000000	98.189824 
1525.000000	98.185542 
1524.000000	98.181895 
1523.000000	98.177879 
1522.000000	98.172414 
1521.000000	98.164960 
1520.000000	98.156127 
1519.000000	98.146464 
1518.000000	98.136409 
1517.000000	98.127014 
1516.000000	98.119068 
1515.000000	98.112538 
1514.000000	98.106577 
1513.000000	98.100622 
1512.000000	98.094282 
1511.000000	98.086760 
1510.000000	98.077860 
1509.000000	98.068565 
1508.000000	98.060701 
1507.000000	98.054415 
1506.000000	98.048339 
1505.000000	98.041721 
1504.000000	98.034264 
1503.000000	98.026332 
1502.000000	98.018312 
1501.000000	98.010642 
1500.000000	98.003419 
1499.000000	97.996322 
1498.000000	97.988796 
1497.000000	97.980837 
1496.000000	97.972952 
1495.000000	97.965387 
1494.000000	97.957968 
1493.000000	97.950524 
1492.000000	97.943128 
1491.000000	97.935980 
1490.000000	97.929104 
1489.000000	97.922291 
1488.000000	97.915132 
1487.000000	97.907319 
1486.000000	97.899075 
1485.000000	97.890598 
1484.000000	97.881965 
1483.000000	97.873492 
1482.000000	97.865554 
1481.000000	97.858227 
1480.000000	97.851079 
1479.000000	97.843613 
1478.000000	97.835768 
1477.000000	97.827826 
1476.000000	97.819730 
1475.000000	97.811006 
1474.000000	97.802019 
1473.000000	97.794647 
1472.000000	97.790065 
1471.000000	97.786291 
1470.000000	97.780671 
1469.000000	97.772804 
1468.000000	97.763590 
1467.000000	97.753930 
1466.000000	97.745044 
1465.000000	97.738484 
1464.000000	97.734021 
1463.000000	97.728446 
1462.000000	97.719193 
1461.000000	97.707452 
1460.000000	97.696893 
1459.000000	97.690602 
1458.000000	97.687388 
1457.000000	97.683254 
1456.000000	97.677445 
1455.000000	97.669231 
1454.000000	97.656491 
1453.000000	97.642271 
1452.000000	97.631747 
1451.000000	97.627279 
1450.000000	97.626543 
1449.000000	97.627139 
1448.000000	97.628176 
1447.000000	97.628124 
1446.000000	97.624999 
1445.000000	97.619625 
1444.000000	97.614976 
1443.000000	97.611749 
1442.000000	97.607839 
1441.000000	97.601281 
1440.000000	97.592640 
1439.000000	97.583855 
1438.000000	97.576379 
1437.000000	97.572132 
1436.000000	97.572638 
1435.000000	97.574043 
1434.000000	97.570965 
1433.000000	97.564644 
1432.000000	97.559771 
1431.000000	97.559211 
1430.000000	97.561469 
1429.000000	97.563768 
1428.000000	97.565068 
1427.000000	97.565496 
1426.000000	97.565974 
1425.000000	97.568250 
1424.000000	97.573901 
1423.000000	97.579684 
1422.000000	97.580215 
1421.000000	97.577155 
1420.000000	97.579329 
1419.000000	97.588788 
1418.000000	97.594953 
1417.000000	97.593589 
1416.000000	97.592754 
1415.000000	97.597396 
1414.000000	97.602439 
1413.000000	97.601978 
1412.000000	97.599049 
1411.000000	97.600983 
1410.000000	97.608312 
1409.000000	97.616745 
1408.000000	97.624868 
1407.000000	97.634271 
1406.000000	97.645035 
1405.000000	97.655638 
1404.000000	97.666131 
1403.000000	97.675396 
1402.000000	97.681014 
1401.000000	97.685248 
1400.000000	97.694758 
1399.000000	97.711876 
1398.000000	97.729377 
1397.000000	97.740234 
1396.000000	97.747173 
1395.000000	97.757585 
1394.000000	97.772391 
1393.000000	97.787044 
1392.000000	97.801142 
1391.000000	97.817006 
1390.000000	97.834130 
1389.000000	97.849376 
1388.000000	97.860364 
1387.000000	97.867545 
1386.000000	97.873082 
1385.000000	97.879560 
1384.000000	97.889478 
1383.000000	97.902988 
1382.000000	97.916752 
1381.000000	97.927528 
1380.000000	97.935441 
1379.000000	97.943436 
1378.000000	97.953665 
1377.000000	97.965370 
1376.000000	97.976524 
1375.000000	97.986428 
1374.000000	97.996247 
1373.000000	98.007771 
1372.000000	98.021403 
1371.000000	98.036147 
1370.000000	98.050422 
1369.000000	98.061924 
1368.000000	98.070319 
1367.000000	98.077566 
1366.000000	98.085635 
1365.000000	98.095526 
1364.000000	98.106623 
1363.000000	98.116531 
1362.000000	98.123471 
1361.000000	98.128587 
1360.000000	98.135016 
1359.000000	98.145218 
1358.000000	98.158732 
1357.000000	98.172528 
1356.000000	98.184112 
1355.000000	98.193377 
1354.000000	98.201571 
1353.000000	98.210095 
1352.000000	98.219127 
1351.000000	98.228513 
1350.000000	98.238562 
1349.000000	98.247712 
1348.000000	98.254126 
1347.000000	98.258279 
1346.000000	98.262683 
1345.000000	98.268663 
1344.000000	98.275268 
1343.000000	98.281201 
1342.000000	98.286178 
1341.000000	98.289791 
1340.000000	98.291328 
1339.000000	98.291737 
1338.000000	98.293166 
1337.000000	98.296154 
1336.000000	98.299303 
1335.000000	98.301481 
1334.000000	98.303314 
1333.000000	98.306102 
1332.000000	98.309799 
1331.000000	98.313411 
1330.000000	98.316629 
1329.000000	98.319870 
1328.000000	98.323144 
1327.000000	98.326053 
1326.000000	98.328156 
1325.000000	98.328476 
1324.000000	98.326741 
1323.000000	98.323890 
1322.000000	98.321128 
1321.000000	98.319166 
1320.000000	98.318779 
1319.000000	98.320858 
1318.000000	98.325134 
1317.000000	98.329679 
1316.000000	98.332190 
1315.000000	98.331653 
1314.000000	98.328965 
1313.000000	98.326708 
1312.000000	98.327435 
1311.000000	98.331167 
1310.000000	98.334982 
1309.000000	98.336152 
1308.000000	98.335192 
1307.000000	98.335081 
1306.000000	98.337594 
1305.000000	98.341208 
1304.000000	98.343516 
1303.000000	98.343493 
1302.000000	98.341416 
1301.000000	98.338163 
1300.000000	98.335454 
1299.000000	98.335196 
1298.000000	98.337431 
1297.000000	98.339719 
1296.000000	98.339575 
1295.000000	98.337333 
1294.000000	98.335547 
1293.000000	98.335933 
1292.000000	98.337782 
1291.000000	98.339279 
1290.000000	98.339635 
1289.000000	98.339486 
1288.000000	98.339531 
1287.000000	98.339488 
1286.000000	98.338728 
1285.000000	98.337631 
1284.000000	98.337455 
1283.000000	98.338376 
1282.000000	98.338588 
1281.000000	98.336286 
1280.000000	98.332250 
1279.000000	98.329651 
1278.000000	98.331023 
1277.000000	98.335984 
1276.000000	98.341613 
1275.000000	98.344677 
1274.000000	98.343710 
1273.000000	98.339980 
1272.000000	98.336653 
1271.000000	98.336064 
1270.000000	98.337481 
1269.000000	98.338218 
1268.000000	98.336896 
1267.000000	98.334473 
1266.000000	98.332243 
1265.000000	98.330799 
1264.000000	98.330905 
1263.000000	98.333075 
1262.000000	98.335743 
1261.000000	98.335976 
1260.000000	98.333532 
1259.000000	98.332460 
1258.000000	98.336258 
1257.000000	98.342770 
1256.000000	98.346103 
1255.000000	98.343592 
1254.000000	98.339010 
1253.000000	98.337901 
1252.000000	98.340819 
1251.000000	98.343124 
1250.000000	98.341262 
1249.000000	98.337161 
1248.000000	98.335346 
1247.000000	98.337044 
1246.000000	98.339127 
1245.000000	98.338842 
1244.000000	98.337064 
1243.000000	98.336143 
1242.000000	98.336886 
1241.000000	98.339057 
1240.000000	98.342648 
1239.000000	98.346606 
1238.000000	98.348070 
1237.000000	98.345306 
1236.000000	98.340346 
1235.000000	98.336554 
1234.000000	98.334371 
1233.000000	98.331590 
1232.000000	98.326999 
1231.000000	98.321254 
1230.000000	98.314843 
1229.000000	98.307779 
1228.000000	98.300851 
1227.000000	98.294471 
1226.000000	98.286393 
1225.000000	98.273220 
1224.000000	98.254449 
1223.000000	98.232642 
1222.000000	98.209284 
1221.000000	98.183026 
1220.000000	98.152982 
1219.000000	98.121346 
1218.000000	98.090929 
1217.000000	98.061453 
1216.000000	98.029643 
1215.000000	97.992366 
1214.000000	97.949466 
1213.000000	97.904620 
1212.000000	97.863051 
1211.000000	97.826272 
1210.000000	97.789174 
1209.000000	97.744785 
1208.000000	97.692174 
1207.000000	97.637488 
1206.000000	97.586669 
1205.000000	97.539272 
1204.000000	97.490453 
1203.000000	97.436869 
1202.000000	97.379278 
1201.000000	97.320698 
1200.000000	97.263232 
1199.000000	97.206257 
1198.000000	97.147491 
1197.000000	97.086496 
1196.000000	97.026270 
1195.000000	96.969850 
1194.000000	96.916079 
1193.000000	96.860541 
1192.000000	96.800223 
1191.000000	96.735467 
1190.000000	96.668144 
1189.000000	96.600090 
1188.000000	96.532682 
1187.000000	96.465628 
1186.000000	96.396678 
1185.000000	96.324555 
1184.000000	96.251039 
1183.000000	96.177977 
1182.000000	96.104015 
1181.000000	96.027103 
1180.000000	95.948140 
1179.000000	95.868396 
1178.000000	95.785280 
1177.000000	95.695476 
1176.000000	95.601023 
1175.000000	95.507200 
1174.000000	95.415153 
1173.000000	95.321848 
1172.000000	95.226749 
1171.000000	95.132279 
1170.000000	95.037613 
1169.000000	94.939028 
1168.000000	94.838117 
1167.000000	94.743609 
1166.000000	94.663237 
1165.000000	94.599819 
1164.000000	94.556982 
1163.000000	94.541512 
1162.000000	94.555822 
1161.000000	94.592120 
1160.000000	94.636419 
1159.000000	94.674893 
1158.000000	94.695702 
1157.000000	94.690473 
1156.000000	94.657556 
1155.000000	94.601600 
1154.000000	94.528918 
1153.000000	94.445665 
1152.000000	94.359705 
1151.000000	94.278525 
1150.000000	94.203398 
1149.000000	94.130059 
1148.000000	94.056233 
1147.000000	93.983479 
1146.000000	93.910886 
1145.000000	93.833445 
1144.000000	93.749243 
1143.000000	93.662927 
1142.000000	93.579309 
1141.000000	93.498205 
1140.000000	93.417813 
1139.000000	93.338082 
1138.000000	93.258295 
1137.000000	93.176186 
1136.000000	93.091781 
1135.000000	93.007611 
1134.000000	92.923443 
1133.000000	92.835820 
1132.000000	92.744445 
1131.000000	92.653493 
1130.000000	92.564683 
1129.000000	92.474573 
1128.000000	92.380716 
1127.000000	92.284736 
1126.000000	92.187088 
1125.000000	92.084677 
1124.000000	91.976557 
1123.000000	91.866938 
1122.000000	91.759840 
1121.000000	91.655353 
1120.000000	91.553047 
1119.000000	91.453808 
1118.000000	91.356692 
1117.000000	91.259683 
1116.000000	91.164916 
1115.000000	91.077159 
1114.000000	90.996146 
1113.000000	90.916936 
1112.000000	90.838440 
1111.000000	90.763960 
1110.000000	90.692487 
1109.000000	90.617858 
1108.000000	90.537818 
1107.000000	90.455492 
1106.000000	90.371231 
1105.000000	90.281689 
1104.000000	90.188020 
1103.000000	90.096443 
1102.000000	90.008763 
1101.000000	89.921345 
1100.000000	89.833991 
1099.000000	89.750146 
1098.000000	89.669919 
1097.000000	89.589872 
1096.000000	89.510642 
1095.000000	89.434238 
1094.000000	89.355050 
1093.000000	89.265383 
1092.000000	89.170178 
1091.000000	89.083687 
1090.000000	89.010196 
1089.000000	88.940232 
1088.000000	88.866874 
1087.000000	88.792519 
1086.000000	88.718006 
1085.000000	88.639365 
1084.000000	88.558646 
1083.000000	88.484256 
1082.000000	88.416401 
1081.000000	88.345064 
1080.000000	88.266455 
1079.000000	88.188575 
1078.000000	88.116102 
1077.000000	88.042100 
1076.000000	87.959281 
1075.000000	87.867244 
1074.000000	87.764488 
1073.000000	87.645658 
1072.000000	87.511023 
1071.000000	87.366725 
1070.000000	87.211609 
1069.000000	87.036168 
1068.000000	86.838985 
1067.000000	86.632127 
1066.000000	86.425873 
1065.000000	86.220066 
1064.000000	86.014580 
1063.000000	85.813925 
1062.000000	85.615433 
1061.000000	85.406880 
1060.000000	85.183199 
1059.000000	84.953699 
1058.000000	84.726792 
1057.000000	84.499774 
1056.000000	84.269657 
1055.000000	84.040891 
1054.000000	83.814795 
1053.000000	83.583140 
1052.000000	83.340234 
1051.000000	83.090722 
1050.000000	82.838157 
1049.000000	82.577456 
1048.000000	82.305479 
1047.000000	82.026975 
1046.000000	81.745361 
1045.000000	81.459946 
1044.000000	81.174731 
1043.000000	80.896888 
1042.000000	80.624486 
1041.000000	80.349075 
1040.000000	80.072240 
1039.000000	79.805520 
1038.000000	79.552714 
1037.000000	79.307887 
1036.000000	79.072038 
1035.000000	78.854391 
1034.000000	78.654997 
1033.000000	78.463819 
1032.000000	78.279593 
1031.000000	78.111730 
1030.000000	77.961446 
1029.000000	77.820042 
1028.000000	77.688194 
1027.000000	77.576761 
1026.000000	77.484936 
1025.000000	77.397434 
1024.000000	77.307273 
1023.000000	77.221767 
1022.000000	77.142367 
1021.000000	77.059129 
1020.000000	76.969669 
1019.000000	76.883711 
1018.000000	76.804150 
1017.000000	76.722766 
1016.000000	76.638670 
1015.000000	76.561602 
1014.000000	76.493047 
1013.000000	76.423579 
1012.000000	76.352388 
1011.000000	76.289661 
1010.000000	76.236395 
1009.000000	76.182369 
1008.000000	76.127711 
1007.000000	76.085835 
1006.000000	76.061245 
1005.000000	76.044975 
1004.000000	76.035048 
1003.000000	76.039696 
1002.000000	76.056463 
1001.000000	76.070663 
1000.000000	76.080171 
999.000000	 76.100299 
998.000000	 76.138261 
997.000000	 76.183511 
996.000000	 76.228652 
995.000000	 76.279539 
994.000000	 76.339006 
993.000000	 76.400678 
992.000000	 76.464427 
991.000000	 76.538304 
990.000000	 76.620176 
989.000000	 76.697155 
988.000000	 76.768131 
987.000000	 76.847198 
986.000000	 76.940501 
985.000000	 77.040195 
984.000000	 77.145461 
983.000000	 77.267835 
982.000000	 77.409376 
981.000000	 77.556194 
980.000000	 77.700661 
979.000000	 77.851116 
978.000000	 78.013198 
977.000000	 78.180916 
976.000000	 78.352677 
975.000000	 78.537389 
974.000000	 78.737352 
973.000000	 78.942048 
972.000000	 79.145157 
971.000000	 79.351710 
970.000000	 79.563417 
969.000000	 79.773536 
968.000000	 79.981048 
967.000000	 80.193653 
966.000000	 80.412291 
965.000000	 80.628762 
964.000000	 80.842206 
963.000000	 81.060959 
962.000000	 81.284121 
961.000000	 81.498534 
960.000000	 81.699057 
959.000000	 81.895551 
958.000000	 82.094871 
957.000000	 82.291386 
956.000000	 82.480258 
955.000000	 82.665070 
954.000000	 82.847716 
953.000000	 83.024920 
952.000000	 83.198321 
951.000000	 83.373540 
950.000000	 83.546208 
949.000000	 83.703877 
948.000000	 83.844500 
947.000000	 83.978053 
946.000000	 84.107637 
945.000000	 84.225175 
944.000000	 84.329269 
943.000000	 84.430890 
942.000000	 84.536405 
941.000000	 84.640021 
940.000000	 84.738132 
939.000000	 84.836070 
938.000000	 84.935651 
937.000000	 85.030584 
936.000000	 85.119548 
935.000000	 85.210132 
934.000000	 85.305326 
933.000000	 85.399766 
932.000000	 85.493281 
931.000000	 85.593473 
930.000000	 85.700239 
929.000000	 85.802351 
928.000000	 85.894872 
927.000000	 85.986260 
926.000000	 86.082611 
925.000000	 86.177477 
924.000000	 86.262667 
923.000000	 86.337505 
922.000000	 86.403372 
921.000000	 86.460832 
920.000000	 86.515568 
919.000000	 86.574960 
918.000000	 86.635402 
917.000000	 86.685200 
916.000000	 86.723395 
915.000000	 86.763952 
914.000000	 86.818934 
913.000000	 86.890003 
912.000000	 86.978144 
911.000000	 87.087691 
910.000000	 87.217622 
909.000000	 87.362113 
908.000000	 87.521990 
907.000000	 87.702836 
906.000000	 87.901629 
905.000000	 88.109618 
904.000000	 88.327820 
903.000000	 88.563094 
902.000000	 88.808820 
901.000000	 89.047592 
900.000000	 89.275345 
899.000000	 89.505267 
898.000000	 89.744708 
897.000000	 89.984667 
896.000000	 90.215466 
895.000000	 90.436743 
894.000000	 90.648263 
893.000000	 90.846523 
892.000000	 91.034850 
891.000000	 91.222510 
890.000000	 91.409059 
889.000000	 91.582282 
888.000000	 91.735041 
887.000000	 91.871879 
886.000000	 91.997309 
885.000000	 92.111145 
884.000000	 92.217264 
883.000000	 92.322099 
882.000000	 92.421859 
881.000000	 92.507134 
880.000000	 92.583656 
879.000000	 92.671563 
878.000000	 92.778962 
877.000000	 92.893335 
876.000000	 93.004822 
875.000000	 93.120336 
874.000000	 93.248469 
873.000000	 93.388870 
872.000000	 93.544020 
871.000000	 93.722816 
870.000000	 93.922519 
869.000000	 94.122802 
868.000000	 94.307603 
867.000000	 94.480221 
866.000000	 94.649531 
865.000000	 94.814755 
864.000000	 94.972955 
863.000000	 95.129880 
862.000000	 95.292504 
861.000000	 95.457846 
860.000000	 95.617432 
859.000000	 95.767224 
858.000000	 95.907957 
857.000000	 96.042020 
856.000000	 96.174008 
855.000000	 96.307270 
854.000000	 96.436127 
853.000000	 96.548712 
852.000000	 96.640961 
851.000000	 96.721169 
850.000000	 96.798769 
849.000000	 96.876036 
848.000000	 96.952151 
847.000000	 97.025891 
846.000000	 97.091859 
845.000000	 97.143880 
844.000000	 97.185088 
843.000000	 97.225235 
842.000000	 97.265088 
841.000000	 97.293082 
840.000000	 97.300198 
839.000000	 97.288316 
838.000000	 97.262093 
837.000000	 97.224562 
836.000000	 97.184889 
835.000000	 97.157945 
834.000000	 97.148397 
833.000000	 97.144680 
832.000000	 97.135616 
831.000000	 97.124275 
830.000000	 97.119518 
829.000000	 97.123709 
828.000000	 97.137123 
827.000000	 97.165662 
826.000000	 97.214104 
825.000000	 97.277440 
824.000000	 97.346172 
823.000000	 97.413984 
822.000000	 97.475816 
821.000000	 97.527285 
820.000000	 97.570002 
819.000000	 97.608461 
818.000000	 97.638824 
817.000000	 97.649616 
816.000000	 97.635988 
815.000000	 97.604403 
814.000000	 97.559583 
813.000000	 97.494962 
812.000000	 97.399900 
811.000000	 97.267707 
810.000000	 97.091593 
809.000000	 96.861232 
808.000000	 96.571073 
807.000000	 96.228205 
806.000000	 95.848043 
805.000000	 95.447054 
804.000000	 95.042628 
803.000000	 94.652272 
802.000000	 94.287852 
801.000000	 93.957711 
800.000000	 93.676853 
799.000000	 93.464368 
798.000000	 93.326471 
797.000000	 93.252314 
796.000000	 93.229104 
795.000000	 93.249259 
794.000000	 93.300606 
793.000000	 93.364551 
792.000000	 93.429263 
791.000000	 93.492897 
790.000000	 93.550494 
789.000000	 93.589529 
788.000000	 93.601103 
787.000000	 93.583974 
786.000000	 93.536054 
785.000000	 93.454029 
784.000000	 93.342669 
783.000000	 93.212089 
782.000000	 93.065802 
781.000000	 92.906792 
780.000000	 92.755935 
779.000000	 92.645727 
778.000000	 92.591274 
777.000000	 92.584206 
776.000000	 92.617949 
775.000000	 92.698200 
774.000000	 92.821428 
773.000000	 92.963784 
772.000000	 93.102526 
771.000000	 93.232923 
770.000000	 93.355388 
769.000000	 93.462322 
768.000000	 93.547753 
767.000000	 93.615549 
766.000000	 93.668378 
765.000000	 93.702042 
764.000000	 93.720368 
763.000000	 93.742095 
762.000000	 93.781868 
761.000000	 93.835291 
760.000000	 93.891620 
759.000000	 93.949335 
758.000000	 94.010438 
757.000000	 94.072597 
756.000000	 94.137874 
755.000000	 94.217320 
754.000000	 94.314452 
753.000000	 94.413016 
752.000000	 94.492577 
751.000000	 94.549900 
750.000000	 94.597357 
749.000000	 94.648607 
748.000000	 94.713515 
747.000000	 94.797337 
746.000000	 94.894516 
745.000000	 94.989900 
744.000000	 95.075279 
743.000000	 95.159567 
742.000000	 95.255728 
741.000000	 95.364032 
740.000000	 95.475346 
739.000000	 95.584906 
738.000000	 95.695178 
737.000000	 95.808589 
736.000000	 95.923068 
735.000000	 96.032898 
734.000000	 96.131652 
733.000000	 96.217210 
732.000000	 96.294036 
731.000000	 96.365865 
730.000000	 96.427506 
729.000000	 96.470647 
728.000000	 96.498787 
727.000000	 96.526693 
726.000000	 96.563017 
725.000000	 96.605612 
724.000000	 96.654129 
723.000000	 96.713247 
722.000000	 96.780992 
721.000000	 96.847528 
720.000000	 96.909714 
719.000000	 96.973138 
718.000000	 97.036021 
717.000000	 97.086796 
716.000000	 97.120792 
715.000000	 97.146346 
714.000000	 97.171644 
713.000000	 97.198292 
712.000000	 97.232893 
711.000000	 97.288254 
710.000000	 97.361576 
709.000000	 97.429112 
708.000000	 97.471921 
707.000000	 97.493188 
706.000000	 97.502581 
705.000000	 97.499020 
704.000000	 97.478732 
703.000000	 97.443438 
702.000000	 97.389331 
701.000000	 97.299596 
700.000000	 97.159262 
699.000000	 96.973352 
698.000000	 96.761305 
697.000000	 96.545968 
696.000000	 96.357982 
695.000000	 96.233661 
694.000000	 96.195127 
693.000000	 96.234235 
692.000000	 96.321915 
691.000000	 96.431929 
690.000000	 96.549246 
689.000000	 96.666295 
688.000000	 96.780699 
687.000000	 96.890230 
686.000000	 96.987511 
685.000000	 97.063936 
684.000000	 97.120098 
683.000000	 97.166821 
682.000000	 97.212973 
681.000000	 97.260497 
680.000000	 97.311156 
679.000000	 97.369331 
678.000000	 97.433545 
677.000000	 97.496252 
676.000000	 97.565159 
675.000000	 97.651876 
674.000000	 97.742973 
673.000000	 97.804449 
672.000000	 97.824778 
671.000000	 97.838491 
670.000000	 97.907817 
669.000000	 98.089555 
668.000000	 98.311986 
667.000000	 98.379990 
666.000000	 98.309165 
665.000000	 98.218716 
664.000000	 98.156506 
663.000000	 98.142225 
662.000000	 98.175021 
661.000000	 98.224722 
660.000000	 98.269546 
659.000000	 98.314341 
658.000000	 98.361318 
657.000000	 98.389537 
656.000000	 98.390591 
655.000000	 98.381472 
654.000000	 98.372179 
653.000000	 98.350400 
652.000000	 98.314662 
651.000000	 98.291745 
650.000000	 98.300768 

