4000.000000	97.968000 
3999.000000	97.967202 
3998.000000	97.960991 
3997.000000	97.950280 
3996.000000	97.938949 
3995.000000	97.930979 
3994.000000	97.927876 
3993.000000	97.928044 
3992.000000	97.927848 
3991.000000	97.925127 
3990.000000	97.921319 
3989.000000	97.919517 
3988.000000	97.921030 
3987.000000	97.924354 
3986.000000	97.927163 
3985.000000	97.928577 
3984.000000	97.929077 
3983.000000	97.929269 
3982.000000	97.929553 
3981.000000	97.930307 
3980.000000	97.931392 
3979.000000	97.931775 
3978.000000	97.930542 
3977.000000	97.928335 
3976.000000	97.926905 
3975.000000	97.926900 
3974.000000	97.926924 
3973.000000	97.925262 
3972.000000	97.921926 
3971.000000	97.918439 
3970.000000	97.916325 
3969.000000	97.916211 
3968.000000	97.917789 
3967.000000	97.920099 
3966.000000	97.921915 
3965.000000	97.922297 
3964.000000	97.920848 
3963.000000	97.917803 
3962.000000	97.914072 
3961.000000	97.911099 
3960.000000	97.910123 
3959.000000	97.911213 
3958.000000	97.913482 
3957.000000	97.915926 
3956.000000	97.917417 
3955.000000	97.916402 
3954.000000	97.911570 
3953.000000	97.903272 
3952.000000	97.893869 
3951.000000	97.886541 
3950.000000	97.883327 
3949.000000	97.884006 
3948.000000	97.886360 
3947.000000	97.888117 
3946.000000	97.888916 
3945.000000	97.889824 
3944.000000	97.891617 
3943.000000	97.894123 
3942.000000	97.897101 
3941.000000	97.900897 
3940.000000	97.905382 
3939.000000	97.908391 
3938.000000	97.907368 
3937.000000	97.902122 
3936.000000	97.894890 
3935.000000	97.888219 
3934.000000	97.883475 
3933.000000	97.881806 
3932.000000	97.883882 
3931.000000	97.888192 
3930.000000	97.891270 
3929.000000	97.890650 
3928.000000	97.887338 
3927.000000	97.884146 
3926.000000	97.881969 
3925.000000	97.879640 
3924.000000	97.877068 
3923.000000	97.875896 
3922.000000	97.876264 
3921.000000	97.876314 
3920.000000	97.875840 
3919.000000	97.877022 
3918.000000	97.880618 
3917.000000	97.884414 
3916.000000	97.886559 
3915.000000	97.887886 
3914.000000	97.889457 
3913.000000	97.890174 
3912.000000	97.888825 
3911.000000	97.885448 
3910.000000	97.880463 
3909.000000	97.874103 
3908.000000	97.866780 
3907.000000	97.859965 
3906.000000	97.854945 
3905.000000	97.851771 
3904.000000	97.849602 
3903.000000	97.848748 
3902.000000	97.850655 
3901.000000	97.855068 
3900.000000	97.859282 
3899.000000	97.861198 
3898.000000	97.861205 
3897.000000	97.860457 
3896.000000	97.859324 
3895.000000	97.857977 
3894.000000	97.857211 
3893.000000	97.857324 
3892.000000	97.857139 
3891.000000	97.855351 
3890.000000	97.852630 
3889.000000	97.850793 
3888.000000	97.850176 
3887.000000	97.849831 
3886.000000	97.848900 
3885.000000	97.847323 
3884.000000	97.845819 
3883.000000	97.844936 
3882.000000	97.844449 
3881.000000	97.843979 
3880.000000	97.843315 
3879.000000	97.842426 
3878.000000	97.841440 
3877.000000	97.840369 
3876.000000	97.839135 
3875.000000	97.837780 
3874.000000	97.836467 
3873.000000	97.835394 
3872.000000	97.834624 
3871.000000	97.834061 
3870.000000	97.833591 
3869.000000	97.833242 
3868.000000	97.833108 
3867.000000	97.833163 
3866.000000	97.833302 
3865.000000	97.833468 
3864.000000	97.833666 
3863.000000	97.833895 
3862.000000	97.834120 
3861.000000	97.834305 
3860.000000	97.834452 
3859.000000	97.834587 
3858.000000	97.834739 
3857.000000	97.834937 
3856.000000	97.835227 
3855.000000	97.835647 
3854.000000	97.836201 
3853.000000	97.836865 
3852.000000	97.837661 
3851.000000	97.838663 
3850.000000	97.839891 
3849.000000	97.841284 
3848.000000	97.842754 
3847.000000	97.844217 
3846.000000	97.845626 
3845.000000	97.846975 
3844.000000	97.848293 
3843.000000	97.849604 
3842.000000	97.850914 
3841.000000	97.852222 
3840.000000	97.853529 
3839.000000	97.854839 
3838.000000	97.856161 
3837.000000	97.857523 
3836.000000	97.858970 
3835.000000	97.860538 
3834.000000	97.862226 
3833.000000	97.863999 
3832.000000	97.865807 
3831.000000	97.867612 
3830.000000	97.869390 
3829.000000	97.871134 
3828.000000	97.872837 
3827.000000	97.874486 
3826.000000	97.876058 
3825.000000	97.877547 
3824.000000	97.878975 
3823.000000	97.880367 
3822.000000	97.881733 
3821.000000	97.883072 
3820.000000	97.884414 
3819.000000	97.885818 
3818.000000	97.887302 
3817.000000	97.888821 
3816.000000	97.890316 
3815.000000	97.891768 
3814.000000	97.893196 
3813.000000	97.894606 
3812.000000	97.895971 
3811.000000	97.897273 
3810.000000	97.898512 
3809.000000	97.899663 
3808.000000	97.900682 
3807.000000	97.901555 
3806.000000	97.902337 
3805.000000	97.903126 
3804.000000	97.903995 
3803.000000	97.904951 
3802.000000	97.905954 
3801.000000	97.906974 
3800.000000	97.908022 
3799.000000	97.909085 
3798.000000	97.910111 
3797.000000	97.911129 
3796.000000	97.912078 
3795.000000	97.913009 
3794.000000	97.914191 
3793.000000	97.915738 
3792.000000	97.917301 
3791.000000	97.918613 
3790.000000	97.919580 
3789.000000	97.919844 
3788.000000	97.919243 
3787.000000	97.918279 
3786.000000	97.917470 
3785.000000	97.916191 
3784.000000	97.913731 
3783.000000	97.911126 
3782.000000	97.910295 
3781.000000	97.911498 
3780.000000	97.913121 
3779.000000	97.913490 
3778.000000	97.913137 
3777.000000	97.913934 
3776.000000	97.915023 
3775.000000	97.913404 
3774.000000	97.908759 
3773.000000	97.904209 
3772.000000	97.901830 
3771.000000	97.899867 
3770.000000	97.895616 
3769.000000	97.890078 
3768.000000	97.887264 
3767.000000	97.888083 
3766.000000	97.888532 
3765.000000	97.885695 
3764.000000	97.881911 
3763.000000	97.881264 
3762.000000	97.883128 
3761.000000	97.883271 
3760.000000	97.880542 
3759.000000	97.876490 
3758.000000	97.870564 
3757.000000	97.860521 
3756.000000	97.846290 
3755.000000	97.830708 
3754.000000	97.817001 
3753.000000	97.809415 
3752.000000	97.812260 
3751.000000	97.821906 
3750.000000	97.825177 
3749.000000	97.817076 
3748.000000	97.809053 
3747.000000	97.812102 
3746.000000	97.825769 
3745.000000	97.840899 
3744.000000	97.843719 
3743.000000	97.835997 
3742.000000	97.835166 
3741.000000	97.839479 
3740.000000	97.835769 
3739.000000	97.824363 
3738.000000	97.812505 
3737.000000	97.803904 
3736.000000	97.800103 
3735.000000	97.806492 
3734.000000	97.825490 
3733.000000	97.846284 
3732.000000	97.853665 
3731.000000	97.846801 
3730.000000	97.838773 
3729.000000	97.837925 
3728.000000	97.839831 
3727.000000	97.838248 
3726.000000	97.834525 
3725.000000	97.835066 
3724.000000	97.841444 
3723.000000	97.847562 
3722.000000	97.848448 
3721.000000	97.844512 
3720.000000	97.838907 
3719.000000	97.832317 
3718.000000	97.821664 
3717.000000	97.805497 
3716.000000	97.786854 
3715.000000	97.769972 
3714.000000	97.756937 
3713.000000	97.750407 
3712.000000	97.751393 
3711.000000	97.753899 
3710.000000	97.751839 
3709.000000	97.745120 
3708.000000	97.734106 
3707.000000	97.717742 
3706.000000	97.697001 
3705.000000	97.675044 
3704.000000	97.653756 
3703.000000	97.632520 
3702.000000	97.608799 
3701.000000	97.581786 
3700.000000	97.557433 
3699.000000	97.542715 
3698.000000	97.534583 
3697.000000	97.523808 
3696.000000	97.507886 
3695.000000	97.492659 
3694.000000	97.481951 
3693.000000	97.472925 
3692.000000	97.463324 
3691.000000	97.454932 
3690.000000	97.447218 
3689.000000	97.432872 
3688.000000	97.408957 
3687.000000	97.388365 
3686.000000	97.383363 
3685.000000	97.386569 
3684.000000	97.383455 
3683.000000	97.370615 
3682.000000	97.352131 
3681.000000	97.328070 
3680.000000	97.294284 
3679.000000	97.255164 
3678.000000	97.223225 
3677.000000	97.202325 
3676.000000	97.178401 
3675.000000	97.135108 
3674.000000	97.088296 
3673.000000	97.066235 
3672.000000	97.061335 
3671.000000	97.051135 
3670.000000	97.027976 
3669.000000	96.995737 
3668.000000	96.967605 
3667.000000	96.950343 
3666.000000	96.937462 
3665.000000	96.923858 
3664.000000	96.909683 
3663.000000	96.893487 
3662.000000	96.869427 
3661.000000	96.832847 
3660.000000	96.786335 
3659.000000	96.739621 
3658.000000	96.700759 
3657.000000	96.667165 
3656.000000	96.627148 
3655.000000	96.578660 
3654.000000	96.534482 
3653.000000	96.498568 
3652.000000	96.463179 
3651.000000	96.426457 
3650.000000	96.390934 
3649.000000	96.354121 
3648.000000	96.319301 
3647.000000	96.298991 
3646.000000	96.300344 
3645.000000	96.316882 
3644.000000	96.334286 
3643.000000	96.340247 
3642.000000	96.330318 
3641.000000	96.307448 
3640.000000	96.276005 
3639.000000	96.237569 
3638.000000	96.193496 
3637.000000	96.151072 
3636.000000	96.117280 
3635.000000	96.087880 
3634.000000	96.052002 
3633.000000	96.009891 
3632.000000	95.977137 
3631.000000	95.967163 
3630.000000	95.977803 
3629.000000	95.980997 
3628.000000	95.951157 
3627.000000	95.915681 
3626.000000	95.908075 
3625.000000	95.916411 
3624.000000	95.918983 
3623.000000	95.910365 
3622.000000	95.894061 
3621.000000	95.874542 
3620.000000	95.857104 
3619.000000	95.846331 
3618.000000	95.845313 
3617.000000	95.859250 
3616.000000	95.888679 
3615.000000	95.924686 
3614.000000	95.956884 
3613.000000	95.981368 
3612.000000	96.002658 
3611.000000	96.027838 
3610.000000	96.058140 
3609.000000	96.088402 
3608.000000	96.113460 
3607.000000	96.132690 
3606.000000	96.148869 
3605.000000	96.163736 
3604.000000	96.178443 
3603.000000	96.196267 
3602.000000	96.217339 
3601.000000	96.234299 
3600.000000	96.240349 
3599.000000	96.239250 
3598.000000	96.241734 
3597.000000	96.256123 
3596.000000	96.281609 
3595.000000	96.306854 
3594.000000	96.318808 
3593.000000	96.313910 
3592.000000	96.299248 
3591.000000	96.284135 
3590.000000	96.276005 
3589.000000	96.280212 
3588.000000	96.297086 
3587.000000	96.319031 
3586.000000	96.339215 
3585.000000	96.356866 
3584.000000	96.371634 
3583.000000	96.382809 
3582.000000	96.391767 
3581.000000	96.399821 
3580.000000	96.406190 
3579.000000	96.409404 
3578.000000	96.409182 
3577.000000	96.407026 
3576.000000	96.405662 
3575.000000	96.406259 
3574.000000	96.406844 
3573.000000	96.403357 
3572.000000	96.392882 
3571.000000	96.376158 
3570.000000	96.357630 
3569.000000	96.343351 
3568.000000	96.338132 
3567.000000	96.342715 
3566.000000	96.353853 
3565.000000	96.367252 
3564.000000	96.377724 
3563.000000	96.381422 
3562.000000	96.380007 
3561.000000	96.379159 
3560.000000	96.382881 
3559.000000	96.390301 
3558.000000	96.397273 
3557.000000	96.399768 
3556.000000	96.396584 
3555.000000	96.390117 
3554.000000	96.384734 
3553.000000	96.383349 
3552.000000	96.384692 
3551.000000	96.384590 
3550.000000	96.380036 
3549.000000	96.371926 
3548.000000	96.364811 
3547.000000	96.363641 
3546.000000	96.369654 
3545.000000	96.379880 
3544.000000	96.390210 
3543.000000	96.397834 
3542.000000	96.401563 
3541.000000	96.401673 
3540.000000	96.399933 
3539.000000	96.398688 
3538.000000	96.399081 
3537.000000	96.400561 
3536.000000	96.401883 
3535.000000	96.402372 
3534.000000	96.402114 
3533.000000	96.401502 
3532.000000	96.400904 
3531.000000	96.400501 
3530.000000	96.400118 
3529.000000	96.399293 
3528.000000	96.397841 
3527.000000	96.396249 
3526.000000	96.395355 
3525.000000	96.395658 
3524.000000	96.397219 
3523.000000	96.399941 
3522.000000	96.403566 
3521.000000	96.407372 
3520.000000	96.410155 
3519.000000	96.410867 
3518.000000	96.409312 
3517.000000	96.406325 
3516.000000	96.403223 
3515.000000	96.400971 
3514.000000	96.399973 
3513.000000	96.400279 
3512.000000	96.401555 
3511.000000	96.402953 
3510.000000	96.403440 
3509.000000	96.402560 
3508.000000	96.400880 
3507.000000	96.399570 
3506.000000	96.399429 
3505.000000	96.400445 
3504.000000	96.402042 
3503.000000	96.403325 
3502.000000	96.403343 
3501.000000	96.401497 
3500.000000	96.398071 
3499.000000	96.394495 
3498.000000	96.392622 
3497.000000	96.393449 
3496.000000	96.396566 
3495.000000	96.400463 
3494.000000	96.403554 
3493.000000	96.404892 
3492.000000	96.404056 
3491.000000	96.401033 
3490.000000	96.396413 
3489.000000	96.391294 
3488.000000	96.386664 
3487.000000	96.382961 
3486.000000	96.380289 
3485.000000	96.378762 
3484.000000	96.378312 
3483.000000	96.378413 
3482.000000	96.378392 
3481.000000	96.378061 
3480.000000	96.377625 
3479.000000	96.376935 
3478.000000	96.375400 
3477.000000	96.372815 
3476.000000	96.369836 
3475.000000	96.367231 
3474.000000	96.364916 
3473.000000	96.362241 
3472.000000	96.358983 
3471.000000	96.355609 
3470.000000	96.352699 
3469.000000	96.350479 
3468.000000	96.348848 
3467.000000	96.347467 
3466.000000	96.345736 
3465.000000	96.342979 
3464.000000	96.338825 
3463.000000	96.333523 
3462.000000	96.327888 
3461.000000	96.322889 
3460.000000	96.319195 
3459.000000	96.316862 
3458.000000	96.315245 
3457.000000	96.313362 
3456.000000	96.310618 
3455.000000	96.307353 
3454.000000	96.304554 
3453.000000	96.302717 
3452.000000	96.301248 
3451.000000	96.299079 
3450.000000	96.295609 
3449.000000	96.290847 
3448.000000	96.285089 
3447.000000	96.278890 
3446.000000	96.273296 
3445.000000	96.269412 
3444.000000	96.267395 
3443.000000	96.266142 
3442.000000	96.264186 
3441.000000	96.260989 
3440.000000	96.257170 
3439.000000	96.253536 
3438.000000	96.250096 
3437.000000	96.246188 
3436.000000	96.241500 
3435.000000	96.236828 
3434.000000	96.233504 
3433.000000	96.232062 
3432.000000	96.231684 
3431.000000	96.230973 
3430.000000	96.229228 
3429.000000	96.226583 
3428.000000	96.223272 
3427.000000	96.219143 
3426.000000	96.214047 
3425.000000	96.208483 
3424.000000	96.203530 
3423.000000	96.200069 
3422.000000	96.198267 
3421.000000	96.197812 
3420.000000	96.198335 
3419.000000	96.199360 
3418.000000	96.200079 
3417.000000	96.199673 
3416.000000	96.197919 
3415.000000	96.195401 
3414.000000	96.193039 
3413.000000	96.191315 
3412.000000	96.189984 
3411.000000	96.188398 
3410.000000	96.186123 
3409.000000	96.183386 
3408.000000	96.181021 
3407.000000	96.179874 
3406.000000	96.180125 
3405.000000	96.181115 
3404.000000	96.181771 
3403.000000	96.181348 
3402.000000	96.179888 
3401.000000	96.178150 
3400.000000	96.176989 
3399.000000	96.176664 
3398.000000	96.176725 
3397.000000	96.176489 
3396.000000	96.175627 
3395.000000	96.174367 
3394.000000	96.173359 
3393.000000	96.173270 
3392.000000	96.174242 
3391.000000	96.175643 
3390.000000	96.176498 
3389.000000	96.176411 
3388.000000	96.176030 
3387.000000	96.176521 
3386.000000	96.178518 
3385.000000	96.181667 
3384.000000	96.184957 
3383.000000	96.187467 
3382.000000	96.188864 
3381.000000	96.189287 
3380.000000	96.189012 
3379.000000	96.188374 
3378.000000	96.187997 
3377.000000	96.188790 
3376.000000	96.191313 
3375.000000	96.195141 
3374.000000	96.198953 
3373.000000	96.201661 
3372.000000	96.203211 
3371.000000	96.204235 
3370.000000	96.205320 
3369.000000	96.206677 
3368.000000	96.208292 
3367.000000	96.210000 
3366.000000	96.211510 
3365.000000	96.212746 
3364.000000	96.214161 
3363.000000	96.216396 
3362.000000	96.219580 
3361.000000	96.223211 
3360.000000	96.226689 
3359.000000	96.229737 
3358.000000	96.232282 
3357.000000	96.234297 
3356.000000	96.235949 
3355.000000	96.237690 
3354.000000	96.240018 
3353.000000	96.243299 
3352.000000	96.247764 
3351.000000	96.253401 
3350.000000	96.259599 
3349.000000	96.265117 
3348.000000	96.268831 
3347.000000	96.270497 
3346.000000	96.270833 
3345.000000	96.270902 
3344.000000	96.271325 
3343.000000	96.272206 
3342.000000	96.273556 
3341.000000	96.275608 
3340.000000	96.278631 
3339.000000	96.282379 
3338.000000	96.285970 
3337.000000	96.288655 
3336.000000	96.290686 
3335.000000	96.293160 
3334.000000	96.296913 
3333.000000	96.301638 
3332.000000	96.306150 
3331.000000	96.309511 
3330.000000	96.311762 
3329.000000	96.313776 
3328.000000	96.316447 
3327.000000	96.320012 
3326.000000	96.324041 
3325.000000	96.327941 
3324.000000	96.331411 
3323.000000	96.334420 
3322.000000	96.336958 
3321.000000	96.338971 
3320.000000	96.340481 
3319.000000	96.341702 
3318.000000	96.343029 
3317.000000	96.344940 
3316.000000	96.347702 
3315.000000	96.351056 
3314.000000	96.354296 
3313.000000	96.356908 
3312.000000	96.359112 
3311.000000	96.361598 
3310.000000	96.364760 
3309.000000	96.368338 
3308.000000	96.371744 
3307.000000	96.374603 
3306.000000	96.376994 
3305.000000	96.379310 
3304.000000	96.381993 
3303.000000	96.385307 
3302.000000	96.389192 
3301.000000	96.393094 
3300.000000	96.396279 
3299.000000	96.398389 
3298.000000	96.399715 
3297.000000	96.400887 
3296.000000	96.402360 
3295.000000	96.404432 
3294.000000	96.407319 
3293.000000	96.410939 
3292.000000	96.414777 
3291.000000	96.418228 
3290.000000	96.421110 
3289.000000	96.423679 
3288.000000	96.426253 
3287.000000	96.428937 
3286.000000	96.431675 
3285.000000	96.434370 
3284.000000	96.436966 
3283.000000	96.439584 
3282.000000	96.442505 
3281.000000	96.445805 
3280.000000	96.449070 
3279.000000	96.451922 
3278.000000	96.454778 
3277.000000	96.458460 
3276.000000	96.462791 
3275.000000	96.466244 
3274.000000	96.467719 
3273.000000	96.468301 
3272.000000	96.470433 
3271.000000	96.475247 
3270.000000	96.481313 
3269.000000	96.486106 
3268.000000	96.488406 
3267.000000	96.489084 
3266.000000	96.490120 
3265.000000	96.493227 
3264.000000	96.499186 
3263.000000	96.507753 
3262.000000	96.517678 
3261.000000	96.526723 
3260.000000	96.532130 
3259.000000	96.531995 
3258.000000	96.526868 
3257.000000	96.520250 
3256.000000	96.516359 
3255.000000	96.516710 
3254.000000	96.519505 
3253.000000	96.522096 
3252.000000	96.523587 
3251.000000	96.524775 
3250.000000	96.526298 
3249.000000	96.527896 
3248.000000	96.529324 
3247.000000	96.531026 
3246.000000	96.533462 
3245.000000	96.536346 
3244.000000	96.539262 
3243.000000	96.542956 
3242.000000	96.549184 
3241.000000	96.558628 
3240.000000	96.569110 
3239.000000	96.576757 
3238.000000	96.579689 
3237.000000	96.580046 
3236.000000	96.581932 
3235.000000	96.587272 
3234.000000	96.594236 
3233.000000	96.599565 
3232.000000	96.601796 
3231.000000	96.602013 
3230.000000	96.602236 
3229.000000	96.603668 
3228.000000	96.606352 
3227.000000	96.610069 
3226.000000	96.615238 
3225.000000	96.622586 
3224.000000	96.631871 
3223.000000	96.641382 
3222.000000	96.649249 
3221.000000	96.655208 
3220.000000	96.660463 
3219.000000	96.665990 
3218.000000	96.671690 
3217.000000	96.677091 
3216.000000	96.681949 
3215.000000	96.686003 
3214.000000	96.688924 
3213.000000	96.691050 
3212.000000	96.693675 
3211.000000	96.697847 
3210.000000	96.703322 
3209.000000	96.708995 
3208.000000	96.714031 
3207.000000	96.718343 
3206.000000	96.722292 
3205.000000	96.726341 
3204.000000	96.730902 
3203.000000	96.736134 
3202.000000	96.741808 
3201.000000	96.747450 
3200.000000	96.752703 
3199.000000	96.757505 
3198.000000	96.761942 
3197.000000	96.766067 
3196.000000	96.769965 
3195.000000	96.773964 
3194.000000	96.778438 
3193.000000	96.783379 
3192.000000	96.788360 
3191.000000	96.793014 
3190.000000	96.797466 
3189.000000	96.802092 
3188.000000	96.807000 
3187.000000	96.811981 
3186.000000	96.816840 
3185.000000	96.821551 
3184.000000	96.826146 
3183.000000	96.830650 
3182.000000	96.835094 
3181.000000	96.839566 
3180.000000	96.844111 
3179.000000	96.848659 
3178.000000	96.853110 
3177.000000	96.857463 
3176.000000	96.861781 
3175.000000	96.866123 
3174.000000	96.870508 
3173.000000	96.874935 
3172.000000	96.879376 
3171.000000	96.883767 
3170.000000	96.888072 
3169.000000	96.892301 
3168.000000	96.896506 
3167.000000	96.900729 
3166.000000	96.904968 
3165.000000	96.909200 
3164.000000	96.913425 
3163.000000	96.917669 
3162.000000	96.921950 
3161.000000	96.926253 
3160.000000	96.930547 
3159.000000	96.934815 
3158.000000	96.939068 
3157.000000	96.943327 
3156.000000	96.947606 
3155.000000	96.951896 
3154.000000	96.956187 
3153.000000	96.960488 
3152.000000	96.964811 
3151.000000	96.969137 
3150.000000	96.973422 
3149.000000	96.977634 
3148.000000	96.981779 
3147.000000	96.985885 
3146.000000	96.989977 
3145.000000	96.994058 
3144.000000	96.998111 
3143.000000	97.002094 
3142.000000	97.005986 
3141.000000	97.009814 
3140.000000	97.013628 
3139.000000	97.017452 
3138.000000	97.021271 
3137.000000	97.025063 
3136.000000	97.028827 
3135.000000	97.032580 
3134.000000	97.036355 
3133.000000	97.040171 
3132.000000	97.044023 
3131.000000	97.047885 
3130.000000	97.051722 
3129.000000	97.055524 
3128.000000	97.059295 
3127.000000	97.063057 
3126.000000	97.066834 
3125.000000	97.070633 
3124.000000	97.074446 
3123.000000	97.078244 
3122.000000	97.081981 
3121.000000	97.085621 
3120.000000	97.089173 
3119.000000	97.092722 
3118.000000	97.096347 
3117.000000	97.099996 
3116.000000	97.103492 
3115.000000	97.106710 
3114.000000	97.109698 
3113.000000	97.112649 
3112.000000	97.115731 
3111.000000	97.118955 
3110.000000	97.122195 
3109.000000	97.125344 
3108.000000	97.128468 
3107.000000	97.131720 
3106.000000	97.135122 
3105.000000	97.138518 
3104.000000	97.141811 
3103.000000	97.145160 
3102.000000	97.148830 
3101.000000	97.152887 
3100.000000	97.157054 
3099.000000	97.160809 
3098.000000	97.163749 
3097.000000	97.166038 
3096.000000	97.168456 
3095.000000	97.171673 
3094.000000	97.175352 
3093.000000	97.178391 
3092.000000	97.180187 
3091.000000	97.181200 
3090.000000	97.182407 
3089.000000	97.184550 
3088.000000	97.187492 
3087.000000	97.189951 
3086.000000	97.190305 
3085.000000	97.188554 
3084.000000	97.187060 
3083.000000	97.188324 
3082.000000	97.192210 
3081.000000	97.196377 
3080.000000	97.199358 
3079.000000	97.201990 
3078.000000	97.205720 
3077.000000	97.210899 
3076.000000	97.217008 
3075.000000	97.223307 
3074.000000	97.228747 
3073.000000	97.232128 
3072.000000	97.233174 
3071.000000	97.233026 
3070.000000	97.233219 
3069.000000	97.234536 
3068.000000	97.236990 
3067.000000	97.240285 
3066.000000	97.243766 
3065.000000	97.246349 
3064.000000	97.247215 
3063.000000	97.246708 
3062.000000	97.246311 
3061.000000	97.247528 
3060.000000	97.250525 
3059.000000	97.253796 
3058.000000	97.255556 
3057.000000	97.255724 
3056.000000	97.256135 
3055.000000	97.257958 
3054.000000	97.259592 
3053.000000	97.258457 
3052.000000	97.254605 
3051.000000	97.251364 
3050.000000	97.251865 
3049.000000	97.255460 
3048.000000	97.258165 
3047.000000	97.256642 
3046.000000	97.251117 
3045.000000	97.244855 
3044.000000	97.241162 
3043.000000	97.240728 
3042.000000	97.241742 
3041.000000	97.241955 
3040.000000	97.240621 
3039.000000	97.238562 
3038.000000	97.236855 
3037.000000	97.235684 
3036.000000	97.234153 
3035.000000	97.231018 
3034.000000	97.226086 
3033.000000	97.221122 
3032.000000	97.218594 
3031.000000	97.219015 
3030.000000	97.220287 
3029.000000	97.220167 
3028.000000	97.218352 
3027.000000	97.215421 
3026.000000	97.211073 
3025.000000	97.204850 
3024.000000	97.197801 
3023.000000	97.191656 
3022.000000	97.186811 
3021.000000	97.182959 
3020.000000	97.180781 
3019.000000	97.180330 
3018.000000	97.178249 
3017.000000	97.170333 
3016.000000	97.157816 
3015.000000	97.148013 
3014.000000	97.146326 
3013.000000	97.149632 
3012.000000	97.149601 
3011.000000	97.141292 
3010.000000	97.126456 
3009.000000	97.110394 
3008.000000	97.097508 
3007.000000	97.088892 
3006.000000	97.081965 
3005.000000	97.072654 
3004.000000	97.059717 
3003.000000	97.046603 
3002.000000	97.037720 
3001.000000	97.033892 
3000.000000	97.032876 
2999.000000	97.033181 
2998.000000	97.034965 
2997.000000	97.037686 
2996.000000	97.039615 
2995.000000	97.040227 
2994.000000	97.041014 
2993.000000	97.042828 
2992.000000	97.043681 
2991.000000	97.040176 
2990.000000	97.030533 
2989.000000	97.015713 
2988.000000	96.998328 
2987.000000	96.981549 
2986.000000	96.969126 
2985.000000	96.965099 
2984.000000	96.971487 
2983.000000	96.985250 
2982.000000	96.998678 
2981.000000	97.005164 
2980.000000	97.004691 
2979.000000	97.001904 
2978.000000	96.999422 
2977.000000	96.995661 
2976.000000	96.989776 
2975.000000	96.985510 
2974.000000	96.987525 
2973.000000	96.995766 
2972.000000	97.005799 
2971.000000	97.013471 
2970.000000	97.017371 
2969.000000	97.018177 
2968.000000	97.018309 
2967.000000	97.021593 
2966.000000	97.030411 
2965.000000	97.042848 
2964.000000	97.054422 
2963.000000	97.062843 
2962.000000	97.069406 
2961.000000	97.076142 
2960.000000	97.083889 
2959.000000	97.093035 
2958.000000	97.103608 
2957.000000	97.113836 
2956.000000	97.120626 
2955.000000	97.122706 
2954.000000	97.122248 
2953.000000	97.122581 
2952.000000	97.125090 
2951.000000	97.128697 
2950.000000	97.131337 
2949.000000	97.131524 
2948.000000	97.129579 
2947.000000	97.127957 
2946.000000	97.129405 
2945.000000	97.134289 
2944.000000	97.140447 
2943.000000	97.145743 
2942.000000	97.149893 
2941.000000	97.153706 
2940.000000	97.157742 
2939.000000	97.162211 
2938.000000	97.167099 
2937.000000	97.171603 
2936.000000	97.174152 
2935.000000	97.173766 
2934.000000	97.171073 
2933.000000	97.167674 
2932.000000	97.164922 
2931.000000	97.163326 
2930.000000	97.162399 
2929.000000	97.161137 
2928.000000	97.159575 
2927.000000	97.159715 
2926.000000	97.163622 
2925.000000	97.170451 
2924.000000	97.176720 
2923.000000	97.180141 
2922.000000	97.181900 
2921.000000	97.184382 
2920.000000	97.188007 
2919.000000	97.191360 
2918.000000	97.193324 
2917.000000	97.193711 
2916.000000	97.192433 
2915.000000	97.189678 
2914.000000	97.186892 
2913.000000	97.186134 
2912.000000	97.187992 
2911.000000	97.190904 
2910.000000	97.192794 
2909.000000	97.192767 
2908.000000	97.191108 
2907.000000	97.188451 
2906.000000	97.185653 
2905.000000	97.183769 
2904.000000	97.183345 
2903.000000	97.183954 
2902.000000	97.185255 
2901.000000	97.188412 
2900.000000	97.195231 
2899.000000	97.205516 
2898.000000	97.216118 
2897.000000	97.223358 
2896.000000	97.226181 
2895.000000	97.226382 
2894.000000	97.226502 
2893.000000	97.228281 
2892.000000	97.232675 
2891.000000	97.239904 
2890.000000	97.248871 
2889.000000	97.257421 
2888.000000	97.263902 
2887.000000	97.268097 
2886.000000	97.270438 
2885.000000	97.271263 
2884.000000	97.271461 
2883.000000	97.272878 
2882.000000	97.276825 
2881.000000	97.282729 
2880.000000	97.289453 
2879.000000	97.297532 
2878.000000	97.308339 
2877.000000	97.320829 
2876.000000	97.330940 
2875.000000	97.335622 
2874.000000	97.336186 
2873.000000	97.336762 
2872.000000	97.339702 
2871.000000	97.343607 
2870.000000	97.346037 
2869.000000	97.346821 
2868.000000	97.348263 
2867.000000	97.352685 
2866.000000	97.360221 
2865.000000	97.368660 
2864.000000	97.375272 
2863.000000	97.379361 
2862.000000	97.382992 
2861.000000	97.388844 
2860.000000	97.397308 
2859.000000	97.406167 
2858.000000	97.413189 
2857.000000	97.418528 
2856.000000	97.424279 
2855.000000	97.432137 
2854.000000	97.441951 
2853.000000	97.452117 
2852.000000	97.460810 
2851.000000	97.467029 
2850.000000	97.471132 
2849.000000	97.474667 
2848.000000	97.479131 
2847.000000	97.484581 
2846.000000	97.489720 
2845.000000	97.493398 
2844.000000	97.495625 
2843.000000	97.497151 
2842.000000	97.498668 
2841.000000	97.500762 
2840.000000	97.504109 
2839.000000	97.508965 
2838.000000	97.514413 
2837.000000	97.518651 
2836.000000	97.520542 
2835.000000	97.520930 
2834.000000	97.522255 
2833.000000	97.526524 
2832.000000	97.533552 
2831.000000	97.541036 
2830.000000	97.546493 
2829.000000	97.549224 
2828.000000	97.550568 
2827.000000	97.552590 
2826.000000	97.556476 
2825.000000	97.561894 
2824.000000	97.567368 
2823.000000	97.571245 
2822.000000	97.572759 
2821.000000	97.572550 
2820.000000	97.572269 
2819.000000	97.573229 
2818.000000	97.575433 
2817.000000	97.577970 
2816.000000	97.580064 
2815.000000	97.581648 
2814.000000	97.583121 
2813.000000	97.584843 
2812.000000	97.586833 
2811.000000	97.588759 
2810.000000	97.590203 
2809.000000	97.591095 
2808.000000	97.591910 
2807.000000	97.593302 
2806.000000	97.595525 
2805.000000	97.598261 
2804.000000	97.600890 
2803.000000	97.602987 
2802.000000	97.604585 
2801.000000	97.606006 
2800.000000	97.607590 
2799.000000	97.609452 
2798.000000	97.611445 
2797.000000	97.613309 
2796.000000	97.614867 
2795.000000	97.616142 
2794.000000	97.617265 
2793.000000	97.618349 
2792.000000	97.619501 
2791.000000	97.620793 
2790.000000	97.622199 
2789.000000	97.623626 
2788.000000	97.625006 
2787.000000	97.626367 
2786.000000	97.627772 
2785.000000	97.629234 
2784.000000	97.630706 
2783.000000	97.632137 
2782.000000	97.633522 
2781.000000	97.634888 
2780.000000	97.636256 
2779.000000	97.637630 
2778.000000	97.639004 
2777.000000	97.640367 
2776.000000	97.641716 
2775.000000	97.643051 
2774.000000	97.644379 
2773.000000	97.645708 
2772.000000	97.647040 
2771.000000	97.648378 
2770.000000	97.649723 
2769.000000	97.651076 
2768.000000	97.652433 
2767.000000	97.653781 
2766.000000	97.655102 
2765.000000	97.656378 
2764.000000	97.657593 
2763.000000	97.658739 
2762.000000	97.659819 
2761.000000	97.660848 
2760.000000	97.661853 
2759.000000	97.662865 
2758.000000	97.663913 
2757.000000	97.665005 
2756.000000	97.666129 
2755.000000	97.667264 
2754.000000	97.668387 
2753.000000	97.669489 
2752.000000	97.670576 
2751.000000	97.671661 
2750.000000	97.672756 
2749.000000	97.673860 
2748.000000	97.674953 
2747.000000	97.676009 
2746.000000	97.677009 
2745.000000	97.677953 
2744.000000	97.678858 
2743.000000	97.679742 
2742.000000	97.680624 
2741.000000	97.681515 
2740.000000	97.682422 
2739.000000	97.683347 
2738.000000	97.684284 
2737.000000	97.685223 
2736.000000	97.686164 
2735.000000	97.687108 
2734.000000	97.688052 
2733.000000	97.688985 
2732.000000	97.689897 
2731.000000	97.690797 
2730.000000	97.691702 
2729.000000	97.692616 
2728.000000	97.693524 
2727.000000	97.694395 
2726.000000	97.695162 
2725.000000	97.695736 
2724.000000	97.696089 
2723.000000	97.696327 
2722.000000	97.696625 
2721.000000	97.697095 
2720.000000	97.697796 
2719.000000	97.698822 
2718.000000	97.700237 
2717.000000	97.701881 
2716.000000	97.703426 
2715.000000	97.704667 
2714.000000	97.705729 
2713.000000	97.706930 
2712.000000	97.708357 
2711.000000	97.709547 
2710.000000	97.709718 
2709.000000	97.708537 
2708.000000	97.706736 
2707.000000	97.705801 
2706.000000	97.706662 
2705.000000	97.708928 
2704.000000	97.711709 
2703.000000	97.714549 
2702.000000	97.717406 
2701.000000	97.720088 
2700.000000	97.722095 
2699.000000	97.723059 
2698.000000	97.723034 
2697.000000	97.722487 
2696.000000	97.722165 
2695.000000	97.722733 
2694.000000	97.724135 
2693.000000	97.725315 
2692.000000	97.725078 
2691.000000	97.723393 
2690.000000	97.721581 
2689.000000	97.720923 
2688.000000	97.721311 
2687.000000	97.721662 
2686.000000	97.721528 
2685.000000	97.721719 
2684.000000	97.723073 
2683.000000	97.725255 
2682.000000	97.727259 
2681.000000	97.728805 
2680.000000	97.730554 
2679.000000	97.733076 
2678.000000	97.736164 
2677.000000	97.739141 
2676.000000	97.741348 
2675.000000	97.742125 
2674.000000	97.741346 
2673.000000	97.739862 
2672.000000	97.738962 
2671.000000	97.739145 
2670.000000	97.739742 
2669.000000	97.740013 
2668.000000	97.740008 
2667.000000	97.740292 
2666.000000	97.741158 
2665.000000	97.742330 
2664.000000	97.743274 
2663.000000	97.743787 
2662.000000	97.744068 
2661.000000	97.744383 
2660.000000	97.744810 
2659.000000	97.745200 
2658.000000	97.745359 
2657.000000	97.745321 
2656.000000	97.745434 
2655.000000	97.746023 
2654.000000	97.746950 
2653.000000	97.747666 
2652.000000	97.747838 
2651.000000	97.747697 
2650.000000	97.747728 
2649.000000	97.748143 
2648.000000	97.748787 
2647.000000	97.749381 
2646.000000	97.749711 
2645.000000	97.749740 
2644.000000	97.749673 
2643.000000	97.749814 
2642.000000	97.750191 
2641.000000	97.750491 
2640.000000	97.750576 
2639.000000	97.750886 
2638.000000	97.751919 
2637.000000	97.753287 
2636.000000	97.753776 
2635.000000	97.752626 
2634.000000	97.750372 
2633.000000	97.748509 
2632.000000	97.748016 
2631.000000	97.748536 
2630.000000	97.748771 
2629.000000	97.747691 
2628.000000	97.745417 
2627.000000	97.743152 
2626.000000	97.742265 
2625.000000	97.743352 
2624.000000	97.745965 
2623.000000	97.748850 
2622.000000	97.750753 
2621.000000	97.751354 
2620.000000	97.751461 
2619.000000	97.752253 
2618.000000	97.754107 
2617.000000	97.756227 
2616.000000	97.757450 
2615.000000	97.757281 
2614.000000	97.756085 
2613.000000	97.754675 
2612.000000	97.753847 
2611.000000	97.753973 
2610.000000	97.754740 
2609.000000	97.755366 
2608.000000	97.755371 
2607.000000	97.755036 
2606.000000	97.754869 
2605.000000	97.754859 
2604.000000	97.754588 
2603.000000	97.753930 
2602.000000	97.753231 
2601.000000	97.752875 
2600.000000	97.753053 
2599.000000	97.753916 
2598.000000	97.755482 
2597.000000	97.757228 
2596.000000	97.758179 
2595.000000	97.757693 
2594.000000	97.756002 
2593.000000	97.754049 
2592.000000	97.752863 
2591.000000	97.752945 
2590.000000	97.754219 
2589.000000	97.756144 
2588.000000	97.758144 
2587.000000	97.760107 
2586.000000	97.762073 
2585.000000	97.763601 
2584.000000	97.763808 
2583.000000	97.762277 
2582.000000	97.759715 
2581.000000	97.757360 
2580.000000	97.755908 
2579.000000	97.755276 
2578.000000	97.754996 
2577.000000	97.754609 
2576.000000	97.753901 
2575.000000	97.753190 
2574.000000	97.753344 
2573.000000	97.755089 
2572.000000	97.758166 
2571.000000	97.761407 
2570.000000	97.763649 
2569.000000	97.764478 
2568.000000	97.764186 
2567.000000	97.763474 
2566.000000	97.763116 
2565.000000	97.763407 
2564.000000	97.763693 
2563.000000	97.762850 
2562.000000	97.760700 
2561.000000	97.758761 
2560.000000	97.758969 
2559.000000	97.761678 
2558.000000	97.765490 
2557.000000	97.769113 
2556.000000	97.772714 
2555.000000	97.776672 
2554.000000	97.779915 
2553.000000	97.780752 
2552.000000	97.779170 
2551.000000	97.777401 
2550.000000	97.777745 
2549.000000	97.779883 
2548.000000	97.780977 
2547.000000	97.778390 
2546.000000	97.772124 
2545.000000	97.765233 
2544.000000	97.761727 
2543.000000	97.762959 
2542.000000	97.765958 
2541.000000	97.766455 
2540.000000	97.763878 
2539.000000	97.761360 
2538.000000	97.760723 
2537.000000	97.760048 
2536.000000	97.757143 
2535.000000	97.753392 
2534.000000	97.752302 
2533.000000	97.755561 
2532.000000	97.762534 
2531.000000	97.772123 
2530.000000	97.782453 
2529.000000	97.789739 
2528.000000	97.790404 
2527.000000	97.784797 
2526.000000	97.777137 
2525.000000	97.770909 
2524.000000	97.766082 
2523.000000	97.761361 
2522.000000	97.756952 
2521.000000	97.754111 
2520.000000	97.753638 
2519.000000	97.756047 
2518.000000	97.761752 
2517.000000	97.769279 
2516.000000	97.774344 
2515.000000	97.772869 
2514.000000	97.765081 
2513.000000	97.755387 
2512.000000	97.747798 
2511.000000	97.742773 
2510.000000	97.739556 
2509.000000	97.740287 
2508.000000	97.749451 
2507.000000	97.768826 
2506.000000	97.794061 
2505.000000	97.816927 
2504.000000	97.831156 
2503.000000	97.834797 
2502.000000	97.828178 
2501.000000	97.812678 
2500.000000	97.792338 
2499.000000	97.774255 
2498.000000	97.764408 
2497.000000	97.763245 
2496.000000	97.766318 
2495.000000	97.768865 
2494.000000	97.769574 
2493.000000	97.770507 
2492.000000	97.774756 
2491.000000	97.783878 
2490.000000	97.795834 
2489.000000	97.805065 
2488.000000	97.806534 
2487.000000	97.800155 
2486.000000	97.790916 
2485.000000	97.784650 
2484.000000	97.783594 
2483.000000	97.786305 
2482.000000	97.789902 
2481.000000	97.791920 
2480.000000	97.791599 
2479.000000	97.790496 
2478.000000	97.791059 
2477.000000	97.793529 
2476.000000	97.794998 
2475.000000	97.792659 
2474.000000	97.787423 
2473.000000	97.783270 
2472.000000	97.782994 
2471.000000	97.785844 
2470.000000	97.789317 
2469.000000	97.791972 
2468.000000	97.794025 
2467.000000	97.796177 
2466.000000	97.798702 
2465.000000	97.801085 
2464.000000	97.802117 
2463.000000	97.800916 
2462.000000	97.798031 
2461.000000	97.795241 
2460.000000	97.794071 
2459.000000	97.794793 
2458.000000	97.796762 
2457.000000	97.798964 
2456.000000	97.800499 
2455.000000	97.800823 
2454.000000	97.799984 
2453.000000	97.798677 
2452.000000	97.797799 
2451.000000	97.797598 
2450.000000	97.797312 
2449.000000	97.796107 
2448.000000	97.794299 
2447.000000	97.792975 
2446.000000	97.792238 
2445.000000	97.790659 
2444.000000	97.787162 
2443.000000	97.783048 
2442.000000	97.781167 
2441.000000	97.782755 
2440.000000	97.786016 
2439.000000	97.788401 
2438.000000	97.789378 
2437.000000	97.790200 
2436.000000	97.791774 
2435.000000	97.793677 
2434.000000	97.795026 
2433.000000	97.795396 
2432.000000	97.794784 
2431.000000	97.793513 
2430.000000	97.792465 
2429.000000	97.792749 
2428.000000	97.794484 
2427.000000	97.796487 
2426.000000	97.797488 
2425.000000	97.797454 
2424.000000	97.797435 
2423.000000	97.798383 
2422.000000	97.800524 
2421.000000	97.803553 
2420.000000	97.806869 
2419.000000	97.809610 
2418.000000	97.811027 
2417.000000	97.810974 
2416.000000	97.809973 
2415.000000	97.808778 
2414.000000	97.808239 
2413.000000	97.809387 
2412.000000	97.812699 
2411.000000	97.816885 
2410.000000	97.819062 
2409.000000	97.817675 
2408.000000	97.814158 
2407.000000	97.811265 
2406.000000	97.810733 
2405.000000	97.812371 
2404.000000	97.815029 
2403.000000	97.817669 
2402.000000	97.819739 
2401.000000	97.821168 
2400.000000	97.822248 
2399.000000	97.823386 
2398.000000	97.824815 
2397.000000	97.826529 
2396.000000	97.828385 
2395.000000	97.830124 
2394.000000	97.831462 
2393.000000	97.832424 
2392.000000	97.833537 
2391.000000	97.835325 
2390.000000	97.837698 
2389.000000	97.840191 
2388.000000	97.842671 
2387.000000	97.845327 
2386.000000	97.848095 
2385.000000	97.850831 
2384.000000	97.854229 
2383.000000	97.859579 
2382.000000	97.866812 
2381.000000	97.873305 
2380.000000	97.875860 
2379.000000	97.873836 
2378.000000	97.869386 
2377.000000	97.864720 
2376.000000	97.860152 
2375.000000	97.855430 
2374.000000	97.851665 
2373.000000	97.850888 
2372.000000	97.854398 
2371.000000	97.862443 
2370.000000	97.874252 
2369.000000	97.886862 
2368.000000	97.895275 
2367.000000	97.896355 
2366.000000	97.891719 
2365.000000	97.886315 
2364.000000	97.883316 
2363.000000	97.882399 
2362.000000	97.883259 
2361.000000	97.887556 
2360.000000	97.896331 
2359.000000	97.907255 
2358.000000	97.916166 
2357.000000	97.921157 
2356.000000	97.922955 
2355.000000	97.922965 
2354.000000	97.921589 
2353.000000	97.920037 
2352.000000	97.920458 
2351.000000	97.923018 
2350.000000	97.925255 
2349.000000	97.924735 
2348.000000	97.922002 
2347.000000	97.920025 
2346.000000	97.921298 
2345.000000	97.925652 
2344.000000	97.930282 
2343.000000	97.932952 
2342.000000	97.933172 
2341.000000	97.932180 
2340.000000	97.931676 
2339.000000	97.932102 
2338.000000	97.932415 
2337.000000	97.931458 
2336.000000	97.929989 
2335.000000	97.929560 
2334.000000	97.930831 
2333.000000	97.932952 
2332.000000	97.935698 
2331.000000	97.938940 
2330.000000	97.942497 
2329.000000	97.944976 
2328.000000	97.945915 
2327.000000	97.945436 
2326.000000	97.944466 
2325.000000	97.944458 
2324.000000	97.946877 
2323.000000	97.951619 
2322.000000	97.955730 
2321.000000	97.955845 
2320.000000	97.952009 
2319.000000	97.947494 
2318.000000	97.945788 
2317.000000	97.946479 
2316.000000	97.947260 
2315.000000	97.946180 
2314.000000	97.944944 
2313.000000	97.945802 
2312.000000	97.950212 
2311.000000	97.955702 
2310.000000	97.958757 
2309.000000	97.956769 
2308.000000	97.952006 
2307.000000	97.948953 
2306.000000	97.951166 
2305.000000	97.957366 
2304.000000	97.963833 
2303.000000	97.966714 
2302.000000	97.965722 
2301.000000	97.962359 
2300.000000	97.958888 
2299.000000	97.955093 
2298.000000	97.949645 
2297.000000	97.940985 
2296.000000	97.930485 
2295.000000	97.920558 
2294.000000	97.913034 
2293.000000	97.907864 
2292.000000	97.904734 
2291.000000	97.903420 
2290.000000	97.903085 
2289.000000	97.902112 
2288.000000	97.898989 
2287.000000	97.892924 
2286.000000	97.883346 
2285.000000	97.870893 
2284.000000	97.858526 
2283.000000	97.850775 
2282.000000	97.849979 
2281.000000	97.853635 
2280.000000	97.855131 
2279.000000	97.848207 
2278.000000	97.832071 
2277.000000	97.813525 
2276.000000	97.802739 
2275.000000	97.804855 
2274.000000	97.816846 
2273.000000	97.832927 
2272.000000	97.851049 
2271.000000	97.870824 
2270.000000	97.887805 
2269.000000	97.895414 
2268.000000	97.892791 
2267.000000	97.885751 
2266.000000	97.879769 
2265.000000	97.875976 
2264.000000	97.874576 
2263.000000	97.876679 
2262.000000	97.880820 
2261.000000	97.882875 
2260.000000	97.881933 
2259.000000	97.882024 
2258.000000	97.885001 
2257.000000	97.885830 
2256.000000	97.878061 
2255.000000	97.860338 
2254.000000	97.835294 
2253.000000	97.806737 
2252.000000	97.781732 
2251.000000	97.770160 
2250.000000	97.776627 
2249.000000	97.794125 
2248.000000	97.809459 
2247.000000	97.816178 
2246.000000	97.817442 
2245.000000	97.817329 
2244.000000	97.815787 
2243.000000	97.812281 
2242.000000	97.809190 
2241.000000	97.809373 
2240.000000	97.813250 
2239.000000	97.819619 
2238.000000	97.826839 
2237.000000	97.832420 
2236.000000	97.833783 
2235.000000	97.830359 
2234.000000	97.823668 
2233.000000	97.815604 
2232.000000	97.808231 
2231.000000	97.804479 
2230.000000	97.806346 
2229.000000	97.812028 
2228.000000	97.816804 
2227.000000	97.817624 
2226.000000	97.815283 
2225.000000	97.811790 
2224.000000	97.807739 
2223.000000	97.802914 
2222.000000	97.797853 
2221.000000	97.793873 
2220.000000	97.792063 
2219.000000	97.792496 
2218.000000	97.793944 
2217.000000	97.794470 
2216.000000	97.793082 
2215.000000	97.790528 
2214.000000	97.788178 
2213.000000	97.786521 
2212.000000	97.785256 
2211.000000	97.784450 
2210.000000	97.784546 
2209.000000	97.785283 
2208.000000	97.785865 
2207.000000	97.785924 
2206.000000	97.785697 
2205.000000	97.785499 
2204.000000	97.785402 
2203.000000	97.785324 
2202.000000	97.785195 
2201.000000	97.784975 
2200.000000	97.784647 
2199.000000	97.784238 
2198.000000	97.783807 
2197.000000	97.783405 
2196.000000	97.783054 
2195.000000	97.782765 
2194.000000	97.782531 
2193.000000	97.782338 
2192.000000	97.782168 
2191.000000	97.782013 
2190.000000	97.781880 
2189.000000	97.781801 
2188.000000	97.781812 
2187.000000	97.781931 
2186.000000	97.782141 
2185.000000	97.782420 
2184.000000	97.782781 
2183.000000	97.783273 
2182.000000	97.783944 
2181.000000	97.784790 
2180.000000	97.785746 
2179.000000	97.786732 
2178.000000	97.787700 
2177.000000	97.788642 
2176.000000	97.789580 
2175.000000	97.790537 
2174.000000	97.791530 
2173.000000	97.792577 
2172.000000	97.793699 
2171.000000	97.794914 
2170.000000	97.796204 
2169.000000	97.797502 
2168.000000	97.798724 
2167.000000	97.799828 
2166.000000	97.800843 
2165.000000	97.801829 
2164.000000	97.802839 
2163.000000	97.803901 
2162.000000	97.805040 
2161.000000	97.806281 
2160.000000	97.807651 
2159.000000	97.809166 
2158.000000	97.810830 
2157.000000	97.812614 
2156.000000	97.814457 
2155.000000	97.816289 
2154.000000	97.818067 
2153.000000	97.819795 
2152.000000	97.821513 
2151.000000	97.823262 
2150.000000	97.825071 
2149.000000	97.826956 
2148.000000	97.828915 
2147.000000	97.830926 
2146.000000	97.832938 
2145.000000	97.834896 
2144.000000	97.836780 
2143.000000	97.838605 
2142.000000	97.840383 
2141.000000	97.842075 
2140.000000	97.843607 
2139.000000	97.844937 
2138.000000	97.846103 
2137.000000	97.847203 
2136.000000	97.848323 
2135.000000	97.849488 
2134.000000	97.850661 
2133.000000	97.851801 
2132.000000	97.852898 
2131.000000	97.853972 
2130.000000	97.855037 
2129.000000	97.856076 
2128.000000	97.857055 
2127.000000	97.857979 
2126.000000	97.858899 
2125.000000	97.859878 
2124.000000	97.860946 
2123.000000	97.862095 
2122.000000	97.863299 
2121.000000	97.864524 
2120.000000	97.865730 
2119.000000	97.866866 
2118.000000	97.867885 
2117.000000	97.868762 
2116.000000	97.869496 
2115.000000	97.870113 
2114.000000	97.870654 
2113.000000	97.871166 
2112.000000	97.871696 
2111.000000	97.872282 
2110.000000	97.872948 
2109.000000	97.873678 
2108.000000	97.874419 
2107.000000	97.875107 
2106.000000	97.875698 
2105.000000	97.876180 
2104.000000	97.876567 
2103.000000	97.876876 
2102.000000	97.877123 
2101.000000	97.877321 
2100.000000	97.877495 
2099.000000	97.877691 
2098.000000	97.877972 
2097.000000	97.878385 
2096.000000	97.878924 
2095.000000	97.879526 
2094.000000	97.880116 
2093.000000	97.880664 
2092.000000	97.881157 
2091.000000	97.881579 
2090.000000	97.881946 
2089.000000	97.882337 
2088.000000	97.882855 
2087.000000	97.883534 
2086.000000	97.884276 
2085.000000	97.884975 
2084.000000	97.885684 
2083.000000	97.886572 
2082.000000	97.887614 
2081.000000	97.888444 
2080.000000	97.888697 
2079.000000	97.888427 
2078.000000	97.887986 
2077.000000	97.887473 
2076.000000	97.886751 
2075.000000	97.886241 
2074.000000	97.886952 
2073.000000	97.889072 
2072.000000	97.891005 
2071.000000	97.891007 
2070.000000	97.889729 
2069.000000	97.890007 
2068.000000	97.893101 
2067.000000	97.896379 
2066.000000	97.896180 
2065.000000	97.891800 
2064.000000	97.885455 
2063.000000	97.879323 
2062.000000	97.874442 
2061.000000	97.872386 
2060.000000	97.874608 
2059.000000	97.880781 
2058.000000	97.889003 
2057.000000	97.896844 
2056.000000	97.902748 
2055.000000	97.906069 
2054.000000	97.906890 
2053.000000	97.906250 
2052.000000	97.906014 
2051.000000	97.907643 
2050.000000	97.910965 
2049.000000	97.914270 
2048.000000	97.916151 
2047.000000	97.917101 
2046.000000	97.918550 
2045.000000	97.920727 
2044.000000	97.922528 
2043.000000	97.923390 
2042.000000	97.923931 
2041.000000	97.924412 
2040.000000	97.923935 
2039.000000	97.922166 
2038.000000	97.920796 
2037.000000	97.921932 
2036.000000	97.925494 
2035.000000	97.929602 
2034.000000	97.933222 
2033.000000	97.937218 
2032.000000	97.942586 
2031.000000	97.948807 
2030.000000	97.954241 
2029.000000	97.957576 
2028.000000	97.958570 
2027.000000	97.957797 
2026.000000	97.956161 
2025.000000	97.954501 
2024.000000	97.953519 
2023.000000	97.953958 
2022.000000	97.956368 
2021.000000	97.960497 
2020.000000	97.964760 
2019.000000	97.966955 
2018.000000	97.966168 
2017.000000	97.963500 
2016.000000	97.961240 
2015.000000	97.960469 
2014.000000	97.960218 
2013.000000	97.959067 
2012.000000	97.957114 
2011.000000	97.955988 
2010.000000	97.956719 
2009.000000	97.958620 
2008.000000	97.960259 
2007.000000	97.961284 
2006.000000	97.962392 
2005.000000	97.963827 
2004.000000	97.964822 
2003.000000	97.964634 
2002.000000	97.963417 
2001.000000	97.961830 
2000.000000	97.960466 
1999.000000	97.959631 
1998.000000	97.959360 
1997.000000	97.959429 
1996.000000	97.959441 
1995.000000	97.959150 
1994.000000	97.958615 
1993.000000	97.957969 
1992.000000	97.957233 
1991.000000	97.956337 
1990.000000	97.955263 
1989.000000	97.954069 
1988.000000	97.952828 
1987.000000	97.951590 
1986.000000	97.950385 
1985.000000	97.949239 
1984.000000	97.948148 
1983.000000	97.947057 
1982.000000	97.945868 
1981.000000	97.944513 
1980.000000	97.943006 
1979.000000	97.941433 
1978.000000	97.939901 
1977.000000	97.938491 
1976.000000	97.937236 
1975.000000	97.936120 
1974.000000	97.935111 
1973.000000	97.934183 
1972.000000	97.933334 
1971.000000	97.932543 
1970.000000	97.931735 
1969.000000	97.930791 
1968.000000	97.929601 
1967.000000	97.928119 
1966.000000	97.926394 
1965.000000	97.924534 
1964.000000	97.922654 
1963.000000	97.920847 
1962.000000	97.919178 
1961.000000	97.917666 
1960.000000	97.916272 
1959.000000	97.914922 
1958.000000	97.913544 
1957.000000	97.912091 
1956.000000	97.910518 
1955.000000	97.908819 
1954.000000	97.907127 
1953.000000	97.905750 
1952.000000	97.904980 
1951.000000	97.904739 
1950.000000	97.904626 
1949.000000	97.904439 
1948.000000	97.904548 
1947.000000	97.905345 
1946.000000	97.906162 
1945.000000	97.905235 
1944.000000	97.901172 
1943.000000	97.894640 
1942.000000	97.888614 
1941.000000	97.885877 
1940.000000	97.886588 
1939.000000	97.888625 
1938.000000	97.889758 
1937.000000	97.889528 
1936.000000	97.889342 
1935.000000	97.890552 
1934.000000	97.892946 
1933.000000	97.895723 
1932.000000	97.898865 
1931.000000	97.902721 
1930.000000	97.906410 
1929.000000	97.907542 
1928.000000	97.904770 
1927.000000	97.898783 
1926.000000	97.890945 
1925.000000	97.882324 
1924.000000	97.874625 
1923.000000	97.871116 
1922.000000	97.874111 
1921.000000	97.882444 
1920.000000	97.892383 
1919.000000	97.899611 
1918.000000	97.901073 
1917.000000	97.896685 
1916.000000	97.890556 
1915.000000	97.888141 
1914.000000	97.890348 
1913.000000	97.893195 
1912.000000	97.892533 
1911.000000	97.888418 
1910.000000	97.883708 
1909.000000	97.879918 
1908.000000	97.876335 
1907.000000	97.871916 
1906.000000	97.866631 
1905.000000	97.861009 
1904.000000	97.855817 
1903.000000	97.852277 
1902.000000	97.850978 
1901.000000	97.850952 
1900.000000	97.850675 
1899.000000	97.849647 
1898.000000	97.848347 
1897.000000	97.847112 
1896.000000	97.845774 
1895.000000	97.844159 
1894.000000	97.842318 
1893.000000	97.840356 
1892.000000	97.838338 
1891.000000	97.836357 
1890.000000	97.834503 
1889.000000	97.832797 
1888.000000	97.831251 
1887.000000	97.829935 
1886.000000	97.828900 
1885.000000	97.828112 
1884.000000	97.827503 
1883.000000	97.827010 
1882.000000	97.826571 
1881.000000	97.826154 
1880.000000	97.825764 
1879.000000	97.825454 
1878.000000	97.825333 
1877.000000	97.825517 
1876.000000	97.826041 
1875.000000	97.826816 
1874.000000	97.827686 
1873.000000	97.828534 
1872.000000	97.829339 
1871.000000	97.830155 
1870.000000	97.831047 
1869.000000	97.832054 
1868.000000	97.833183 
1867.000000	97.834428 
1866.000000	97.835790 
1865.000000	97.837287 
1864.000000	97.838946 
1863.000000	97.840779 
1862.000000	97.842748 
1861.000000	97.844796 
1860.000000	97.846861 
1859.000000	97.848905 
1858.000000	97.850928 
1857.000000	97.852932 
1856.000000	97.854905 
1855.000000	97.856884 
1854.000000	97.858956 
1853.000000	97.861122 
1852.000000	97.863370 
1851.000000	97.865818 
1850.000000	97.868575 
1849.000000	97.871648 
1848.000000	97.875087 
1847.000000	97.879183 
1846.000000	97.884069 
1845.000000	97.888997 
1844.000000	97.892491 
1843.000000	97.894008 
1842.000000	97.894711 
1841.000000	97.895710 
1840.000000	97.897308 
1839.000000	97.899626 
1838.000000	97.902732 
1837.000000	97.905929 
1836.000000	97.908032 
1835.000000	97.909148 
1834.000000	97.910393 
1833.000000	97.911991 
1832.000000	97.912868 
1831.000000	97.911336 
1830.000000	97.907624 
1829.000000	97.904817 
1828.000000	97.905001 
1827.000000	97.907264 
1826.000000	97.909746 
1825.000000	97.912466 
1824.000000	97.916487 
1823.000000	97.921882 
1822.000000	97.926495 
1821.000000	97.927226 
1820.000000	97.923251 
1819.000000	97.917533 
1818.000000	97.914797 
1817.000000	97.916322 
1816.000000	97.918925 
1815.000000	97.919778 
1814.000000	97.919004 
1813.000000	97.917999 
1812.000000	97.916952 
1811.000000	97.915454 
1810.000000	97.914342 
1809.000000	97.914444 
1808.000000	97.915334 
1807.000000	97.916055 
1806.000000	97.916116 
1805.000000	97.915583 
1804.000000	97.914810 
1803.000000	97.914381 
1802.000000	97.914536 
1801.000000	97.915041 
1800.000000	97.915355 
1799.000000	97.915242 
1798.000000	97.915194 
1797.000000	97.915685 
1796.000000	97.916710 
1795.000000	97.917945 
1794.000000	97.919052 
1793.000000	97.919895 
1792.000000	97.920547 
1791.000000	97.921342 
1790.000000	97.922585 
1789.000000	97.924059 
1788.000000	97.925457 
1787.000000	97.926754 
1786.000000	97.928046 
1785.000000	97.929164 
1784.000000	97.929839 
1783.000000	97.930254 
1782.000000	97.930791 
1781.000000	97.931816 
1780.000000	97.933324 
1779.000000	97.934813 
1778.000000	97.935937 
1777.000000	97.936842 
1776.000000	97.938065 
1775.000000	97.939862 
1774.000000	97.941884 
1773.000000	97.943531 
1772.000000	97.944572 
1771.000000	97.945350 
1770.000000	97.946467 
1769.000000	97.948144 
1768.000000	97.950269 
1767.000000	97.952412 
1766.000000	97.954101 
1765.000000	97.955301 
1764.000000	97.956245 
1763.000000	97.957106 
1762.000000	97.957830 
1761.000000	97.958514 
1760.000000	97.959480 
1759.000000	97.960779 
1758.000000	97.961973 
1757.000000	97.962509 
1756.000000	97.962505 
1755.000000	97.962288 
1754.000000	97.961751 
1753.000000	97.960634 
1752.000000	97.959474 
1751.000000	97.959345 
1750.000000	97.960779 
1749.000000	97.963088 
1748.000000	97.964940 
1747.000000	97.965448 
1746.000000	97.964119 
1745.000000	97.961649 
1744.000000	97.959700 
1743.000000	97.959471 
1742.000000	97.960807 
1741.000000	97.962221 
1740.000000	97.961935 
1739.000000	97.959896 
1738.000000	97.957855 
1737.000000	97.955976 
1736.000000	97.952797 
1735.000000	97.948891 
1734.000000	97.945899 
1733.000000	97.943913 
1732.000000	97.944264 
1731.000000	97.947176 
1730.000000	97.951529 
1729.000000	97.954949 
1728.000000	97.955104 
1727.000000	97.951672 
1726.000000	97.946303 
1725.000000	97.942183 
1724.000000	97.940260 
1723.000000	97.939239 
1722.000000	97.938595 
1721.000000	97.937218 
1720.000000	97.932886 
1719.000000	97.924834 
1718.000000	97.916956 
1717.000000	97.912933 
1716.000000	97.910961 
1715.000000	97.908642 
1714.000000	97.905554 
1713.000000	97.900570 
1712.000000	97.892482 
1711.000000	97.883647 
1710.000000	97.877685 
1709.000000	97.874671 
1708.000000	97.871117 
1707.000000	97.863830 
1706.000000	97.854174 
1705.000000	97.846083 
1704.000000	97.841291 
1703.000000	97.837809 
1702.000000	97.832828 
1701.000000	97.825588 
1700.000000	97.813418 
1699.000000	97.798942 
1698.000000	97.790298 
1697.000000	97.785061 
1696.000000	97.778867 
1695.000000	97.770512 
1694.000000	97.762368 
1693.000000	97.754971 
1692.000000	97.745819 
1691.000000	97.735395 
1690.000000	97.725974 
1689.000000	97.717902 
1688.000000	97.710223 
1687.000000	97.700954 
1686.000000	97.690267 
1685.000000	97.680492 
1684.000000	97.671074 
1683.000000	97.661666 
1682.000000	97.653676 
1681.000000	97.645020 
1680.000000	97.636868 
1679.000000	97.630600 
1678.000000	97.624041 
1677.000000	97.614570 
1676.000000	97.602967 
1675.000000	97.590759 
1674.000000	97.576526 
1673.000000	97.561065 
1672.000000	97.545970 
1671.000000	97.533404 
1670.000000	97.525804 
1669.000000	97.521681 
1668.000000	97.520483 
1667.000000	97.520633 
1666.000000	97.517589 
1665.000000	97.508934 
1664.000000	97.496518 
1663.000000	97.484940 
1662.000000	97.474250 
1661.000000	97.462372 
1660.000000	97.452214 
1659.000000	97.445508 
1658.000000	97.440218 
1657.000000	97.435038 
1656.000000	97.430148 
1655.000000	97.424029 
1654.000000	97.415599 
1653.000000	97.390136 
1652.000000	97.346868 
1651.000000	97.324697 
1650.000000	97.319724 
1649.000000	97.312988 
1648.000000	97.304986 
1647.000000	97.305511 
1646.000000	97.311537 
1645.000000	97.312980 
1644.000000	97.308496 
1643.000000	97.304155 
1642.000000	97.302024 
1641.000000	97.299863 
1640.000000	97.297624 
1639.000000	97.295845 
1638.000000	97.294737 
1637.000000	97.293761 
1636.000000	97.291892 
1635.000000	97.284891 
1634.000000	97.276830 
1633.000000	97.274940 
1632.000000	97.276912 
1631.000000	97.282536 
1630.000000	97.291406 
1629.000000	97.300713 
1628.000000	97.309822 
1627.000000	97.322484 
1626.000000	97.337103 
1625.000000	97.346826 
1624.000000	97.349829 
1623.000000	97.352259 
1622.000000	97.359598 
1621.000000	97.371839 
1620.000000	97.387827 
1619.000000	97.405960 
1618.000000	97.424124 
1617.000000	97.434676 
1616.000000	97.434942 
1615.000000	97.436920 
1614.000000	97.445491 
1613.000000	97.453306 
1612.000000	97.458908 
1611.000000	97.468555 
1610.000000	97.483783 
1609.000000	97.500836 
1608.000000	97.519524 
1607.000000	97.541027 
1606.000000	97.558849 
1605.000000	97.566785 
1604.000000	97.569986 
1603.000000	97.577152 
1602.000000	97.590939 
1601.000000	97.607231 
1600.000000	97.621815 
1599.000000	97.633072 
1598.000000	97.640801 
1597.000000	97.646606 
1596.000000	97.652846 
1595.000000	97.660221 
1594.000000	97.667166 
1593.000000	97.673043 
1592.000000	97.680077 
1591.000000	97.689816 
1590.000000	97.699949 
1589.000000	97.707713 
1588.000000	97.714279 
1587.000000	97.722686 
1586.000000	97.732649 
1585.000000	97.740408 
1584.000000	97.745815 
1583.000000	97.750956 
1582.000000	97.755488 
1581.000000	97.760192 
1580.000000	97.768820 
1579.000000	97.781977 
1578.000000	97.794796 
1577.000000	97.802708 
1576.000000	97.804420 
1575.000000	97.804918 
1574.000000	97.809632 
1573.000000	97.817041 
1572.000000	97.824846 
1571.000000	97.833582 
1570.000000	97.841391 
1569.000000	97.844242 
1568.000000	97.845445 
1567.000000	97.847728 
1566.000000	97.847923 
1565.000000	97.844690 
1564.000000	97.842455 
1563.000000	97.844644 
1562.000000	97.848044 
1561.000000	97.848866 
1560.000000	97.852610 
1559.000000	97.859917 
1558.000000	97.860485 
1557.000000	97.859993 
1556.000000	97.862992 
1555.000000	97.868595 
1554.000000	97.872307 
1553.000000	97.871599 
1552.000000	97.868222 
1551.000000	97.865488 
1550.000000	97.866490 
1549.000000	97.869855 
1548.000000	97.871536 
1547.000000	97.870002 
1546.000000	97.866257 
1545.000000	97.863465 
1544.000000	97.863977 
1543.000000	97.866306 
1542.000000	97.867314 
1541.000000	97.864739 
1540.000000	97.857842 
1539.000000	97.849812 
1538.000000	97.844801 
1537.000000	97.842142 
1536.000000	97.839256 
1535.000000	97.835819 
1534.000000	97.832604 
1533.000000	97.829731 
1532.000000	97.826556 
1531.000000	97.822694 
1530.000000	97.818430 
1529.000000	97.814133 
1528.000000	97.810025 
1527.000000	97.806143 
1526.000000	97.802300 
1525.000000	97.798294 
1524.000000	97.794083 
1523.000000	97.789726 
1522.000000	97.785271 
1521.000000	97.780708 
1520.000000	97.776019 
1519.000000	97.771195 
1518.000000	97.766252 
1517.000000	97.761217 
1516.000000	97.756113 
1515.000000	97.750952 
1514.000000	97.745729 
1513.000000	97.740445 
1512.000000	97.735105 
1511.000000	97.729719 
1510.000000	97.724295 
1509.000000	97.718835 
1508.000000	97.713326 
1507.000000	97.707747 
1506.000000	97.702079 
1505.000000	97.696336 
1504.000000	97.690564 
1503.000000	97.684786 
1502.000000	97.678998 
1501.000000	97.673174 
1500.000000	97.667281 
1499.000000	97.661292 
1498.000000	97.655206 
1497.000000	97.649051 
1496.000000	97.642873 
1495.000000	97.636712 
1494.000000	97.630574 
1493.000000	97.624430 
1492.000000	97.618236 
1491.000000	97.611958 
1490.000000	97.605585 
1489.000000	97.599115 
1488.000000	97.592553 
1487.000000	97.585907 
1486.000000	97.579185 
1485.000000	97.572388 
1484.000000	97.565512 
1483.000000	97.558568 
1482.000000	97.551573 
1481.000000	97.544539 
1480.000000	97.537462 
1479.000000	97.530325 
1478.000000	97.523125 
1477.000000	97.515903 
1476.000000	97.508689 
1475.000000	97.501464 
1474.000000	97.494224 
1473.000000	97.487147 
1472.000000	97.480486 
1471.000000	97.474091 
1470.000000	97.467523 
1469.000000	97.460355 
1468.000000	97.452299 
1467.000000	97.443527 
1466.000000	97.434788 
1465.000000	97.426963 
1464.000000	97.420214 
1463.000000	97.413405 
1462.000000	97.405704 
1461.000000	97.397138 
1460.000000	97.387942 
1459.000000	97.378274 
1458.000000	97.369736 
1457.000000	97.364929 
1456.000000	97.361629 
1455.000000	97.355270 
1454.000000	97.344573 
1453.000000	97.331270 
1452.000000	97.318564 
1451.000000	97.308893 
1450.000000	97.303215 
1449.000000	97.301752 
1448.000000	97.302606 
1447.000000	97.302261 
1446.000000	97.297551 
1445.000000	97.289781 
1444.000000	97.282687 
1443.000000	97.276177 
1442.000000	97.268773 
1441.000000	97.260175 
1440.000000	97.250549 
1439.000000	97.238352 
1438.000000	97.225815 
1437.000000	97.220728 
1436.000000	97.223599 
1435.000000	97.223362 
1434.000000	97.214829 
1433.000000	97.203770 
1432.000000	97.197000 
1431.000000	97.196104 
1430.000000	97.198167 
1429.000000	97.200851 
1428.000000	97.201800 
1427.000000	97.199902 
1426.000000	97.195636 
1425.000000	97.194133 
1424.000000	97.200221 
1423.000000	97.207065 
1422.000000	97.205282 
1421.000000	97.196929 
1420.000000	97.194951 
1419.000000	97.204822 
1418.000000	97.216417 
1417.000000	97.221871 
1416.000000	97.223441 
1415.000000	97.224135 
1414.000000	97.222768 
1413.000000	97.218350 
1412.000000	97.212662 
1411.000000	97.206992 
1410.000000	97.202156 
1409.000000	97.200193 
1408.000000	97.201602 
1407.000000	97.205655 
1406.000000	97.211839 
1405.000000	97.223400 
1404.000000	97.243897 
1403.000000	97.267718 
1402.000000	97.286800 
1401.000000	97.300683 
1400.000000	97.314846 
1399.000000	97.330096 
1398.000000	97.340547 
1397.000000	97.344751 
1396.000000	97.350781 
1395.000000	97.366872 
1394.000000	97.388728 
1393.000000	97.406543 
1392.000000	97.418381 
1391.000000	97.427059 
1390.000000	97.434310 
1389.000000	97.441414 
1388.000000	97.450995 
1387.000000	97.464564 
1386.000000	97.478956 
1385.000000	97.490910 
1384.000000	97.502543 
1383.000000	97.517145 
1382.000000	97.534184 
1381.000000	97.549417 
1380.000000	97.560723 
1379.000000	97.571889 
1378.000000	97.588065 
1377.000000	97.609077 
1376.000000	97.629128 
1375.000000	97.642887 
1374.000000	97.650005 
1373.000000	97.653991 
1372.000000	97.657316 
1371.000000	97.661227 
1370.000000	97.667947 
1369.000000	97.679959 
1368.000000	97.696335 
1367.000000	97.711265 
1366.000000	97.720905 
1365.000000	97.728516 
1364.000000	97.740361 
1363.000000	97.757372 
1362.000000	97.773465 
1361.000000	97.784139 
1360.000000	97.792768 
1359.000000	97.804857 
1358.000000	97.820272 
1357.000000	97.834240 
1356.000000	97.843270 
1355.000000	97.847421 
1354.000000	97.848978 
1353.000000	97.850820 
1352.000000	97.854903 
1351.000000	97.862254 
1350.000000	97.872314 
1349.000000	97.883486 
1348.000000	97.894563 
1347.000000	97.904122 
1346.000000	97.910728 
1345.000000	97.913645 
1344.000000	97.913399 
1343.000000	97.911172 
1342.000000	97.908930 
1341.000000	97.910057 
1340.000000	97.918029 
1339.000000	97.932186 
1338.000000	97.946582 
1337.000000	97.955648 
1336.000000	97.958658 
1335.000000	97.957960 
1334.000000	97.956208 
1333.000000	97.955624 
1332.000000	97.957530 
1331.000000	97.961273 
1330.000000	97.964453 
1329.000000	97.965285 
1328.000000	97.964164 
1327.000000	97.962793 
1326.000000	97.962247 
1325.000000	97.962463 
1324.000000	97.962960 
1323.000000	97.963023 
1322.000000	97.962292 
1321.000000	97.961348 
1320.000000	97.961202 
1319.000000	97.962069 
1318.000000	97.963384 
1317.000000	97.964624 
1316.000000	97.965119 
1315.000000	97.963872 
1314.000000	97.961136 
1313.000000	97.959297 
1312.000000	97.959941 
1311.000000	97.961013 
1310.000000	97.959765 
1309.000000	97.957632 
1308.000000	97.958808 
1307.000000	97.964360 
1306.000000	97.970429 
1305.000000	97.973137 
1304.000000	97.972368 
1303.000000	97.969590 
1302.000000	97.965665 
1301.000000	97.961902 
1300.000000	97.960536 
1299.000000	97.962301 
1298.000000	97.965379 
1297.000000	97.967808 
1296.000000	97.969065 
1295.000000	97.968545 
1294.000000	97.965027 
1293.000000	97.959146 
1292.000000	97.954131 
1291.000000	97.952221 
1290.000000	97.952317 
1289.000000	97.952481 
1288.000000	97.952742 
1287.000000	97.954123 
1286.000000	97.956581 
1285.000000	97.959351 
1284.000000	97.961969 
1283.000000	97.963777 
1282.000000	97.963886 
1281.000000	97.962726 
1280.000000	97.962279 
1279.000000	97.963346 
1278.000000	97.964091 
1277.000000	97.962954 
1276.000000	97.961462 
1275.000000	97.962311 
1274.000000	97.965526 
1273.000000	97.968119 
1272.000000	97.966643 
1271.000000	97.959485 
1270.000000	97.948851 
1269.000000	97.941572 
1268.000000	97.944507 
1267.000000	97.956160 
1266.000000	97.965904 
1265.000000	97.965839 
1264.000000	97.960743 
1263.000000	97.961561 
1262.000000	97.970989 
1261.000000	97.981054 
1260.000000	97.984076 
1259.000000	97.979663 
1258.000000	97.970775 
1257.000000	97.959485 
1256.000000	97.948097 
1255.000000	97.938538 
1254.000000	97.927939 
1253.000000	97.910338 
1252.000000	97.886837 
1251.000000	97.869880 
1250.000000	97.872085 
1249.000000	97.892675 
1248.000000	97.919173 
1247.000000	97.940855 
1246.000000	97.956292 
1245.000000	97.968299 
1244.000000	97.976708 
1243.000000	97.978965 
1242.000000	97.975253 
1241.000000	97.969752 
1240.000000	97.966898 
1239.000000	97.967961 
1238.000000	97.970961 
1237.000000	97.972405 
1236.000000	97.968937 
1235.000000	97.958895 
1234.000000	97.943572 
1233.000000	97.926879 
1232.000000	97.913270 
1231.000000	97.905575 
1230.000000	97.904011 
1229.000000	97.906053 
1228.000000	97.907071 
1227.000000	97.902585 
1226.000000	97.890981 
1225.000000	97.873290 
1224.000000	97.850087 
1223.000000	97.820660 
1222.000000	97.786479 
1221.000000	97.752429 
1220.000000	97.721108 
1219.000000	97.687511 
1218.000000	97.643446 
1217.000000	97.587019 
1216.000000	97.524262 
1215.000000	97.461654 
1214.000000	97.401260 
1213.000000	97.343369 
1212.000000	97.287804 
1211.000000	97.230044 
1210.000000	97.162288 
1209.000000	97.083502 
1208.000000	97.004160 
1207.000000	96.935032 
1206.000000	96.873718 
1205.000000	96.808466 
1204.000000	96.732959 
1203.000000	96.650525 
1202.000000	96.565720 
1201.000000	96.479607 
1200.000000	96.393943 
1199.000000	96.312574 
1198.000000	96.235707 
1197.000000	96.158179 
1196.000000	96.076263 
1195.000000	95.992053 
1194.000000	95.908478 
1193.000000	95.823478 
1192.000000	95.732064 
1191.000000	95.632082 
1190.000000	95.526091 
1189.000000	95.419253 
1188.000000	95.316539 
1187.000000	95.220066 
1186.000000	95.127848 
1185.000000	95.035970 
1184.000000	94.941591 
1183.000000	94.842732 
1182.000000	94.737513 
1181.000000	94.626825 
1180.000000	94.515688 
1179.000000	94.407438 
1178.000000	94.297752 
1177.000000	94.179238 
1176.000000	94.050986 
1175.000000	93.918595 
1174.000000	93.785910 
1173.000000	93.652780 
1172.000000	93.520169 
1171.000000	93.389784 
1170.000000	93.257767 
1169.000000	93.116887 
1168.000000	92.968220 
1167.000000	92.824796 
1166.000000	92.701512 
1165.000000	92.607774 
1164.000000	92.551532 
1163.000000	92.541212 
1162.000000	92.576954 
1161.000000	92.643461 
1160.000000	92.715516 
1159.000000	92.769297 
1158.000000	92.789304 
1157.000000	92.770197 
1156.000000	92.714852 
1155.000000	92.628527 
1154.000000	92.514811 
1153.000000	92.379907 
1152.000000	92.238462 
1151.000000	92.107672 
1150.000000	91.993781 
1149.000000	91.889965 
1148.000000	91.787812 
1147.000000	91.683678 
1146.000000	91.573352 
1145.000000	91.450323 
1144.000000	91.314330 
1143.000000	91.175362 
1142.000000	91.044049 
1141.000000	90.921663 
1140.000000	90.802254 
1139.000000	90.680045 
1138.000000	90.552465 
1137.000000	90.420717 
1136.000000	90.289585 
1135.000000	90.162678 
1134.000000	90.036896 
1133.000000	89.905957 
1132.000000	89.768739 
1131.000000	89.628400 
1130.000000	89.484562 
1129.000000	89.333992 
1128.000000	89.178641 
1127.000000	89.024447 
1126.000000	88.871423 
1125.000000	88.713570 
1124.000000	88.549544 
1123.000000	88.384707 
1122.000000	88.221719 
1121.000000	88.058527 
1120.000000	87.896750 
1119.000000	87.741644 
1118.000000	87.592154 
1117.000000	87.442274 
1116.000000	87.294326 
1115.000000	87.158832 
1114.000000	87.037783 
1113.000000	86.919863 
1112.000000	86.796702 
1111.000000	86.673059 
1110.000000	86.556424 
1109.000000	86.446788 
1108.000000	86.339932 
1107.000000	86.231194 
1106.000000	86.113901 
1105.000000	85.984140 
1104.000000	85.849073 
1103.000000	85.720583 
1102.000000	85.599978 
1101.000000	85.479273 
1100.000000	85.357162 
1099.000000	85.240565 
1098.000000	85.130587 
1097.000000	85.020924 
1096.000000	84.910039 
1095.000000	84.800608 
1094.000000	84.686254 
1093.000000	84.555247 
1092.000000	84.409995 
1091.000000	84.267878 
1090.000000	84.139779 
1089.000000	84.021669 
1088.000000	83.908272 
1087.000000	83.798357 
1086.000000	83.684849 
1085.000000	83.558093 
1084.000000	83.423202 
1083.000000	83.297498 
1082.000000	83.186212 
1081.000000	83.076702 
1080.000000	82.960356 
1079.000000	82.842577 
1078.000000	82.726160 
1077.000000	82.602134 
1076.000000	82.463689 
1075.000000	82.313798 
1074.000000	82.153418 
1073.000000	81.976496 
1072.000000	81.780573 
1071.000000	81.567059 
1070.000000	81.327809 
1069.000000	81.048681 
1068.000000	80.732022 
1067.000000	80.401011 
1066.000000	80.076970 
1065.000000	79.765838 
1064.000000	79.468439 
1063.000000	79.184030 
1062.000000	78.898818 
1061.000000	78.591944 
1060.000000	78.261184 
1059.000000	77.926315 
1058.000000	77.601027 
1057.000000	77.278317 
1056.000000	76.948487 
1055.000000	76.611926 
1054.000000	76.267438 
1053.000000	75.907305 
1052.000000	75.532874 
1051.000000	75.157040 
1050.000000	74.782345 
1049.000000	74.395505 
1048.000000	73.990755 
1047.000000	73.577768 
1046.000000	73.162128 
1045.000000	72.739980 
1044.000000	72.315163 
1043.000000	71.899936 
1042.000000	71.495094 
1041.000000	71.090035 
1040.000000	70.685216 
1039.000000	70.293021 
1038.000000	69.914786 
1037.000000	69.541152 
1036.000000	69.177660 
1035.000000	68.844100 
1034.000000	68.544350 
1033.000000	68.262003 
1032.000000	67.989078 
1031.000000	67.733413 
1030.000000	67.495706 
1029.000000	67.268073 
1028.000000	67.058554 
1027.000000	66.886439 
1026.000000	66.747206 
1025.000000	66.610681 
1024.000000	66.460122 
1023.000000	66.305642 
1022.000000	66.154880 
1021.000000	66.001022 
1020.000000	65.845588 
1019.000000	65.702700 
1018.000000	65.573090 
1017.000000	65.441464 
1016.000000	65.305491 
1015.000000	65.179788 
1014.000000	65.066839 
1013.000000	64.953098 
1012.000000	64.837741 
1011.000000	64.734889 
1010.000000	64.642882 
1009.000000	64.542437 
1008.000000	64.430931 
1007.000000	64.328670 
1006.000000	64.247491 
1005.000000	64.184345 
1004.000000	64.147141 
1003.000000	64.149274 
1002.000000	64.171703 
1001.000000	64.169125 
1000.000000	64.127814 
999.000000	 64.084183 
998.000000	 64.073063 
997.000000	 64.090306 
996.000000	 64.119177 
995.000000	 64.161438 
994.000000	 64.224422 
993.000000	 64.302852 
992.000000	 64.389580 
991.000000	 64.484117 
990.000000	 64.580705 
989.000000	 64.669407 
988.000000	 64.756511 
987.000000	 64.861503 
986.000000	 64.988382 
985.000000	 65.123493 
984.000000	 65.265682 
983.000000	 65.432545 
982.000000	 65.631232 
981.000000	 65.848297 
980.000000	 66.073395 
979.000000	 66.308339 
978.000000	 66.549513 
977.000000	 66.788846 
976.000000	 67.036641 
975.000000	 67.315759 
974.000000	 67.627328 
973.000000	 67.947535 
972.000000	 68.262833 
971.000000	 68.582408 
970.000000	 68.911769 
969.000000	 69.241711 
968.000000	 69.569495 
967.000000	 69.905029 
966.000000	 70.249576 
965.000000	 70.592132 
964.000000	 70.931630 
963.000000	 71.278807 
962.000000	 71.632041 
961.000000	 71.975780 
960.000000	 72.306939 
959.000000	 72.638439 
958.000000	 72.972624 
957.000000	 73.295752 
956.000000	 73.603067 
955.000000	 73.904672 
954.000000	 74.201832 
953.000000	 74.481209 
952.000000	 74.738261 
951.000000	 74.983913 
950.000000	 75.223310 
949.000000	 75.450070 
948.000000	 75.665566 
947.000000	 75.880642 
946.000000	 76.092784 
945.000000	 76.283951 
944.000000	 76.446858 
943.000000	 76.593284 
942.000000	 76.732796 
941.000000	 76.864329 
940.000000	 76.992506 
939.000000	 77.129273 
938.000000	 77.273307 
937.000000	 77.409386 
936.000000	 77.534109 
935.000000	 77.661748 
934.000000	 77.799868 
933.000000	 77.940452 
932.000000	 78.080310 
931.000000	 78.228273 
930.000000	 78.385323 
929.000000	 78.537754 
928.000000	 78.676974 
927.000000	 78.808390 
926.000000	 78.936116 
925.000000	 79.056529 
924.000000	 79.169949 
923.000000	 79.280302 
922.000000	 79.381369 
921.000000	 79.463024 
920.000000	 79.532334 
919.000000	 79.607257 
918.000000	 79.687777 
917.000000	 79.756270 
916.000000	 79.809953 
915.000000	 79.869615 
914.000000	 79.951168 
913.000000	 80.051862 
912.000000	 80.170795 
911.000000	 80.320480 
910.000000	 80.510164 
909.000000	 80.737531 
908.000000	 81.002378 
907.000000	 81.308252 
906.000000	 81.646011 
905.000000	 81.996398 
904.000000	 82.353367 
903.000000	 82.725459 
902.000000	 83.112455 
901.000000	 83.502145 
900.000000	 83.891846 
899.000000	 84.290542 
898.000000	 84.696119 
897.000000	 85.091582 
896.000000	 85.466922 
895.000000	 85.824988 
894.000000	 86.164527 
893.000000	 86.478717 
892.000000	 86.773540 
891.000000	 87.067131 
890.000000	 87.365948 
889.000000	 87.658544 
888.000000	 87.935266 
887.000000	 88.196755 
886.000000	 88.442381 
885.000000	 88.669211 
884.000000	 88.883376 
883.000000	 89.093261 
882.000000	 89.291455 
881.000000	 89.465786 
880.000000	 89.629930 
879.000000	 89.818264 
878.000000	 90.043314 
877.000000	 90.280452 
876.000000	 90.501610 
875.000000	 90.702619 
874.000000	 90.892432 
873.000000	 91.079740 
872.000000	 91.279752 
871.000000	 91.512846 
870.000000	 91.783660 
869.000000	 92.073953 
868.000000	 92.361277 
867.000000	 92.632617 
866.000000	 92.880799 
865.000000	 93.105815 
864.000000	 93.323265 
863.000000	 93.554884 
862.000000	 93.804316 
861.000000	 94.053927 
860.000000	 94.287650 
859.000000	 94.504484 
858.000000	 94.709964 
857.000000	 94.909080 
856.000000	 95.108290 
855.000000	 95.308935 
854.000000	 95.496117 
853.000000	 95.648647 
852.000000	 95.762952 
851.000000	 95.855809 
850.000000	 95.943493 
849.000000	 96.030857 
848.000000	 96.119620 
847.000000	 96.210013 
846.000000	 96.292025 
845.000000	 96.351312 
844.000000	 96.387212 
843.000000	 96.411589 
842.000000	 96.428571 
841.000000	 96.429707 
840.000000	 96.409650 
839.000000	 96.370696 
838.000000	 96.311162 
837.000000	 96.227269 
836.000000	 96.130578 
835.000000	 96.046835 
834.000000	 95.990708 
833.000000	 95.954617 
832.000000	 95.926673 
831.000000	 95.905409 
830.000000	 95.893269 
829.000000	 95.891787 
828.000000	 95.909428 
827.000000	 95.959119 
826.000000	 96.040823 
825.000000	 96.139424 
824.000000	 96.242829 
823.000000	 96.346617 
822.000000	 96.442046 
821.000000	 96.520349 
820.000000	 96.588763 
819.000000	 96.662005 
818.000000	 96.736861 
817.000000	 96.791556 
816.000000	 96.809673 
815.000000	 96.789353 
814.000000	 96.730341 
813.000000	 96.628578 
812.000000	 96.483125 
811.000000	 96.289828 
810.000000	 96.026159 
809.000000	 95.661895 
808.000000	 95.191228 
807.000000	 94.640678 
806.000000	 94.042651 
805.000000	 93.417770 
804.000000	 92.786735 
803.000000	 92.177616 
802.000000	 91.611723 
801.000000	 91.101496 
800.000000	 90.670804 
799.000000	 90.355818 
798.000000	 90.174341 
797.000000	 90.111418 
796.000000	 90.140823 
795.000000	 90.240818 
794.000000	 90.385588 
793.000000	 90.545992 
792.000000	 90.706631 
791.000000	 90.863154 
790.000000	 91.000096 
789.000000	 91.093030 
788.000000	 91.134518 
787.000000	 91.134146 
786.000000	 91.089576 
785.000000	 90.982317 
784.000000	 90.808483 
783.000000	 90.591253 
782.000000	 90.357284 
781.000000	 90.124620 
780.000000	 89.920186 
779.000000	 89.781758 
778.000000	 89.728944 
777.000000	 89.752032 
776.000000	 89.837438 
775.000000	 89.981909 
774.000000	 90.174384 
773.000000	 90.388840 
772.000000	 90.606111 
771.000000	 90.822587 
770.000000	 91.029817 
769.000000	 91.206938 
768.000000	 91.341691 
767.000000	 91.439843 
766.000000	 91.508002 
765.000000	 91.547329 
764.000000	 91.570102 
763.000000	 91.601449 
762.000000	 91.656619 
761.000000	 91.732926 
760.000000	 91.824846 
759.000000	 91.924829 
758.000000	 92.010047 
757.000000	 92.058107 
756.000000	 92.080270 
755.000000	 92.108881 
754.000000	 92.146640 
753.000000	 92.164016 
752.000000	 92.159307 
751.000000	 92.183942 
750.000000	 92.283990 
749.000000	 92.444383 
748.000000	 92.614241 
747.000000	 92.766266 
746.000000	 92.907360 
745.000000	 93.048933 
744.000000	 93.195948 
743.000000	 93.356870 
742.000000	 93.539661 
741.000000	 93.738612 
740.000000	 93.937609 
739.000000	 94.123540 
738.000000	 94.291669 
737.000000	 94.446709 
736.000000	 94.603266 
735.000000	 94.773088 
734.000000	 94.946743 
733.000000	 95.100157 
732.000000	 95.221492 
731.000000	 95.316363 
730.000000	 95.386817 
729.000000	 95.427970 
728.000000	 95.449123 
727.000000	 95.475723 
726.000000	 95.523262 
725.000000	 95.587397 
724.000000	 95.666272 
723.000000	 95.770588 
722.000000	 95.900220 
721.000000	 96.029986 
720.000000	 96.133928 
719.000000	 96.212159 
718.000000	 96.281425 
717.000000	 96.352837 
716.000000	 96.430673 
715.000000	 96.515184 
714.000000	 96.594354 
713.000000	 96.649747 
712.000000	 96.681787 
711.000000	 96.714304 
710.000000	 96.763355 
709.000000	 96.819487 
708.000000	 96.862205 
707.000000	 96.879783 
706.000000	 96.871928 
705.000000	 96.841881 
704.000000	 96.793055 
703.000000	 96.723402 
702.000000	 96.614845 
701.000000	 96.442448 
700.000000	 96.201796 
699.000000	 95.913349 
698.000000	 95.601682 
697.000000	 95.289435 
696.000000	 95.014934 
695.000000	 94.833121 
694.000000	 94.779681 
693.000000	 94.846511 
692.000000	 94.996793 
691.000000	 95.187213 
690.000000	 95.377274 
689.000000	 95.537567 
688.000000	 95.662568 
687.000000	 95.766917 
686.000000	 95.861792 
685.000000	 95.949038 
684.000000	 96.034864 
683.000000	 96.124904 
682.000000	 96.209914 
681.000000	 96.279442 
680.000000	 96.347199 
679.000000	 96.435196 
678.000000	 96.536075 
677.000000	 96.623459 
676.000000	 96.692636 
675.000000	 96.763136 
674.000000	 96.845363 
673.000000	 96.922761 
672.000000	 96.967894 
671.000000	 96.950809 
670.000000	 96.855474 
669.000000	 96.709345 
668.000000	 96.648917 
667.000000	 96.810735 
666.000000	 97.099446 
665.000000	 97.331071 
664.000000	 97.457336 
663.000000	 97.519266 
662.000000	 97.569727 
661.000000	 97.627100 
660.000000	 97.685088 
659.000000	 97.743206 
658.000000	 97.801341 
657.000000	 97.852555 
656.000000	 97.895629 
655.000000	 97.938302 
654.000000	 97.973745 
653.000000	 97.976399 
652.000000	 97.941596 
651.000000	 97.912816 
650.000000	 97.940851 

