4000.000000	97.688503 
3999.000000	97.685281 
3998.000000	97.681895 
3997.000000	97.679353 
3996.000000	97.678137 
3995.000000	97.678065 
3994.000000	97.678581 
3993.000000	97.679039 
3992.000000	97.678959 
3991.000000	97.678431 
3990.000000	97.678215 
3989.000000	97.678996 
3988.000000	97.680409 
3987.000000	97.681216 
3986.000000	97.680551 
3985.000000	97.678643 
3984.000000	97.676371 
3983.000000	97.674557 
3982.000000	97.673877 
3981.000000	97.674680 
3980.000000	97.676371 
3979.000000	97.677491 
3978.000000	97.677144 
3977.000000	97.676090 
3976.000000	97.675855 
3975.000000	97.676673 
3974.000000	97.677092 
3973.000000	97.675766 
3972.000000	97.672869 
3971.000000	97.669694 
3970.000000	97.667314 
3969.000000	97.665929 
3968.000000	97.665040 
3967.000000	97.663966 
3966.000000	97.662322 
3965.000000	97.660128 
3964.000000	97.657597 
3963.000000	97.654971 
3962.000000	97.652527 
3961.000000	97.650524 
3960.000000	97.648894 
3959.000000	97.647358 
3958.000000	97.645973 
3957.000000	97.645346 
3956.000000	97.645735 
3955.000000	97.646374 
3954.000000	97.646187 
3953.000000	97.644770 
3952.000000	97.642494 
3951.000000	97.639822 
3950.000000	97.636994 
3949.000000	97.634258 
3948.000000	97.632028 
3947.000000	97.630832 
3946.000000	97.630903 
3945.000000	97.631772 
3944.000000	97.632343 
3943.000000	97.631832 
3942.000000	97.630563 
3941.000000	97.629451 
3940.000000	97.628934 
3939.000000	97.628777 
3938.000000	97.628635 
3937.000000	97.628573 
3936.000000	97.628648 
3935.000000	97.628326 
3934.000000	97.626943 
3933.000000	97.624545 
3932.000000	97.622010 
3931.000000	97.620118 
3930.000000	97.618989 
3929.000000	97.618592 
3928.000000	97.618978 
3927.000000	97.619898 
3926.000000	97.620519 
3925.000000	97.620194 
3924.000000	97.619184 
3923.000000	97.618113 
3922.000000	97.617113 
3921.000000	97.616000 
3920.000000	97.614859 
3919.000000	97.614020 
3918.000000	97.613397 
3917.000000	97.612590 
3916.000000	97.611623 
3915.000000	97.611023 
3914.000000	97.610982 
3913.000000	97.611110 
3912.000000	97.610909 
3911.000000	97.610279 
3910.000000	97.609236 
3909.000000	97.607904 
3908.000000	97.606579 
3907.000000	97.605556 
3906.000000	97.604694 
3905.000000	97.603376 
3904.000000	97.601334 
3903.000000	97.599079 
3902.000000	97.597387 
3901.000000	97.596515 
3900.000000	97.596105 
3899.000000	97.595751 
3898.000000	97.595364 
3897.000000	97.594915 
3896.000000	97.594293 
3895.000000	97.593624 
3894.000000	97.593158 
3893.000000	97.592910 
3892.000000	97.592301 
3891.000000	97.590914 
3890.000000	97.589153 
3889.000000	97.587856 
3888.000000	97.587272 
3887.000000	97.586805 
3886.000000	97.585856 
3885.000000	97.584637 
3884.000000	97.583598 
3883.000000	97.582635 
3882.000000	97.581386 
3881.000000	97.579978 
3880.000000	97.578999 
3879.000000	97.578659 
3878.000000	97.578633 
3877.000000	97.578623 
3876.000000	97.578497 
3875.000000	97.578152 
3874.000000	97.577688 
3873.000000	97.577406 
3872.000000	97.577339 
3871.000000	97.577113 
3870.000000	97.576592 
3869.000000	97.576242 
3868.000000	97.576363 
3867.000000	97.576712 
3866.000000	97.576818 
3865.000000	97.576661 
3864.000000	97.576674 
3863.000000	97.577034 
3862.000000	97.577357 
3861.000000	97.577387 
3860.000000	97.577228 
3859.000000	97.577032 
3858.000000	97.576781 
3857.000000	97.576501 
3856.000000	97.576322 
3855.000000	97.576147 
3854.000000	97.575788 
3853.000000	97.575491 
3852.000000	97.575516 
3851.000000	97.575756 
3850.000000	97.575963 
3849.000000	97.576063 
3848.000000	97.576205 
3847.000000	97.576477 
3846.000000	97.576704 
3845.000000	97.576716 
3844.000000	97.576530 
3843.000000	97.576271 
3842.000000	97.576079 
3841.000000	97.576043 
3840.000000	97.576141 
3839.000000	97.576330 
3838.000000	97.576547 
3837.000000	97.576716 
3836.000000	97.576819 
3835.000000	97.576890 
3834.000000	97.576971 
3833.000000	97.577073 
3832.000000	97.577188 
3831.000000	97.577301 
3830.000000	97.577403 
3829.000000	97.577482 
3828.000000	97.577525 
3827.000000	97.577527 
3826.000000	97.577495 
3825.000000	97.577441 
3824.000000	97.577379 
3823.000000	97.577319 
3822.000000	97.577263 
3821.000000	97.577216 
3820.000000	97.577197 
3819.000000	97.577226 
3818.000000	97.577305 
3817.000000	97.577420 
3816.000000	97.577559 
3815.000000	97.577715 
3814.000000	97.577879 
3813.000000	97.578032 
3812.000000	97.578162 
3811.000000	97.578272 
3810.000000	97.578363 
3809.000000	97.578429 
3808.000000	97.578454 
3807.000000	97.578429 
3806.000000	97.578368 
3805.000000	97.578295 
3804.000000	97.578233 
3803.000000	97.578191 
3802.000000	97.578171 
3801.000000	97.578172 
3800.000000	97.578189 
3799.000000	97.578199 
3798.000000	97.578178 
3797.000000	97.578117 
3796.000000	97.578010 
3795.000000	97.577863 
3794.000000	97.577694 
3793.000000	97.577463 
3792.000000	97.577098 
3791.000000	97.576681 
3790.000000	97.576376 
3789.000000	97.576115 
3788.000000	97.575662 
3787.000000	97.575011 
3786.000000	97.574351 
3785.000000	97.573671 
3784.000000	97.572891 
3783.000000	97.572212 
3782.000000	97.571706 
3781.000000	97.571026 
3780.000000	97.569990 
3779.000000	97.569280 
3778.000000	97.569553 
3777.000000	97.570265 
3776.000000	97.569894 
3775.000000	97.567604 
3774.000000	97.564330 
3773.000000	97.561867 
3772.000000	97.560482 
3771.000000	97.558771 
3770.000000	97.556123 
3769.000000	97.553760 
3768.000000	97.552581 
3767.000000	97.551894 
3766.000000	97.550523 
3765.000000	97.548574 
3764.000000	97.547485 
3763.000000	97.547858 
3762.000000	97.548203 
3761.000000	97.546938 
3760.000000	97.544609 
3759.000000	97.542761 
3758.000000	97.540720 
3757.000000	97.537155 
3756.000000	97.532701 
3755.000000	97.528664 
3754.000000	97.525032 
3753.000000	97.521169 
3752.000000	97.518214 
3751.000000	97.517462 
3750.000000	97.517002 
3749.000000	97.514844 
3748.000000	97.512833 
3747.000000	97.513225 
3746.000000	97.514612 
3745.000000	97.513677 
3744.000000	97.511458 
3743.000000	97.510811 
3742.000000	97.511051 
3741.000000	97.510190 
3740.000000	97.508245 
3739.000000	97.507101 
3738.000000	97.507224 
3737.000000	97.506785 
3736.000000	97.505067 
3735.000000	97.504008 
3734.000000	97.504905 
3733.000000	97.506288 
3732.000000	97.506298 
3731.000000	97.505009 
3730.000000	97.503467 
3729.000000	97.502210 
3728.000000	97.500991 
3727.000000	97.499668 
3726.000000	97.498855 
3725.000000	97.498967 
3724.000000	97.499476 
3723.000000	97.499812 
3722.000000	97.500236 
3721.000000	97.501150 
3720.000000	97.502123 
3719.000000	97.502522 
3718.000000	97.501916 
3717.000000	97.500487 
3716.000000	97.499020 
3715.000000	97.497719 
3714.000000	97.495915 
3713.000000	97.493303 
3712.000000	97.490990 
3711.000000	97.490221 
3710.000000	97.490666 
3709.000000	97.491349 
3708.000000	97.491543 
3707.000000	97.490757 
3706.000000	97.489208 
3705.000000	97.487780 
3704.000000	97.487303 
3703.000000	97.487696 
3702.000000	97.487609 
3701.000000	97.485461 
3700.000000	97.481160 
3699.000000	97.476437 
3698.000000	97.472456 
3697.000000	97.468645 
3696.000000	97.464692 
3695.000000	97.460758 
3694.000000	97.456238 
3693.000000	97.451412 
3692.000000	97.449314 
3691.000000	97.453341 
3690.000000	97.461682 
3689.000000	97.467673 
3688.000000	97.467374 
3687.000000	97.462988 
3686.000000	97.458154 
3685.000000	97.453228 
3684.000000	97.447735 
3683.000000	97.443977 
3682.000000	97.443887 
3681.000000	97.443422 
3680.000000	97.437033 
3679.000000	97.426213 
3678.000000	97.418410 
3677.000000	97.414339 
3676.000000	97.407021 
3675.000000	97.395759 
3674.000000	97.385908 
3673.000000	97.380184 
3672.000000	97.376479 
3671.000000	97.372177 
3670.000000	97.369831 
3669.000000	97.371661 
3668.000000	97.372213 
3667.000000	97.366685 
3666.000000	97.357924 
3665.000000	97.351361 
3664.000000	97.348754 
3663.000000	97.347547 
3662.000000	97.343601 
3661.000000	97.334761 
3660.000000	97.322847 
3659.000000	97.310749 
3658.000000	97.299576 
3657.000000	97.287024 
3656.000000	97.272193 
3655.000000	97.257990 
3654.000000	97.246842 
3653.000000	97.237407 
3652.000000	97.225365 
3651.000000	97.208976 
3650.000000	97.193052 
3649.000000	97.182163 
3648.000000	97.174653 
3647.000000	97.169089 
3646.000000	97.167574 
3645.000000	97.171210 
3644.000000	97.177639 
3643.000000	97.183551 
3642.000000	97.186987 
3641.000000	97.187780 
3640.000000	97.185500 
3639.000000	97.178669 
3638.000000	97.167590 
3637.000000	97.154870 
3636.000000	97.142345 
3635.000000	97.128657 
3634.000000	97.113182 
3633.000000	97.099330 
3632.000000	97.090245 
3631.000000	97.082584 
3630.000000	97.069142 
3629.000000	97.052042 
3628.000000	97.041804 
3627.000000	97.040998 
3626.000000	97.044158 
3625.000000	97.048158 
3624.000000	97.054917 
3623.000000	97.067255 
3622.000000	97.083154 
3621.000000	97.094740 
3620.000000	97.095014 
3619.000000	97.084739 
3618.000000	97.071009 
3617.000000	97.061327 
3616.000000	97.059610 
3615.000000	97.064269 
3614.000000	97.070341 
3613.000000	97.074228 
3612.000000	97.075306 
3611.000000	97.073340 
3610.000000	97.067360 
3609.000000	97.058046 
3608.000000	97.049208 
3607.000000	97.044790 
3606.000000	97.045372 
3605.000000	97.049511 
3604.000000	97.056216 
3603.000000	97.064833 
3602.000000	97.074164 
3601.000000	97.082271 
3600.000000	97.088198 
3599.000000	97.091864 
3598.000000	97.093222 
3597.000000	97.092711 
3596.000000	97.092047 
3595.000000	97.092030 
3594.000000	97.092262 
3593.000000	97.092513 
3592.000000	97.093434 
3591.000000	97.095706 
3590.000000	97.098108 
3589.000000	97.097932 
3588.000000	97.094720 
3587.000000	97.092082 
3586.000000	97.093570 
3585.000000	97.099143 
3584.000000	97.106419 
3583.000000	97.112798 
3582.000000	97.116832 
3581.000000	97.118135 
3580.000000	97.117266 
3579.000000	97.115259 
3578.000000	97.113014 
3577.000000	97.110998 
3576.000000	97.109039 
3575.000000	97.106303 
3574.000000	97.101604 
3573.000000	97.094926 
3572.000000	97.087741 
3571.000000	97.082364 
3570.000000	97.080126 
3569.000000	97.079873 
3568.000000	97.079705 
3567.000000	97.079956 
3566.000000	97.081909 
3565.000000	97.085413 
3564.000000	97.089482 
3563.000000	97.093318 
3562.000000	97.096580 
3561.000000	97.099517 
3560.000000	97.102453 
3559.000000	97.105332 
3558.000000	97.107619 
3557.000000	97.109059 
3556.000000	97.110083 
3555.000000	97.111364 
3554.000000	97.112874 
3553.000000	97.113927 
3552.000000	97.113984 
3551.000000	97.112809 
3550.000000	97.110230 
3549.000000	97.106381 
3548.000000	97.102056 
3547.000000	97.098077 
3546.000000	97.094167 
3545.000000	97.089636 
3544.000000	97.085466 
3543.000000	97.084188 
3542.000000	97.087133 
3541.000000	97.093222 
3540.000000	97.100325 
3539.000000	97.106906 
3538.000000	97.112450 
3537.000000	97.117142 
3536.000000	97.121513 
3535.000000	97.125232 
3534.000000	97.127037 
3533.000000	97.126241 
3532.000000	97.124331 
3531.000000	97.123793 
3530.000000	97.124903 
3529.000000	97.124964 
3528.000000	97.121465 
3527.000000	97.115006 
3526.000000	97.108418 
3525.000000	97.104092 
3524.000000	97.102892 
3523.000000	97.104616 
3522.000000	97.108068 
3521.000000	97.111192 
3520.000000	97.112269 
3519.000000	97.110994 
3518.000000	97.108308 
3517.000000	97.105226 
3516.000000	97.102233 
3515.000000	97.099683 
3514.000000	97.098291 
3513.000000	97.098543 
3512.000000	97.099778 
3511.000000	97.100534 
3510.000000	97.100033 
3509.000000	97.098956 
3508.000000	97.098628 
3507.000000	97.099676 
3506.000000	97.101530 
3505.000000	97.102977 
3504.000000	97.103185 
3503.000000	97.102188 
3502.000000	97.100552 
3501.000000	97.098781 
3500.000000	97.097079 
3499.000000	97.095567 
3498.000000	97.094611 
3497.000000	97.094870 
3496.000000	97.096719 
3495.000000	97.099587 
3494.000000	97.102146 
3493.000000	97.103320 
3492.000000	97.102840 
3491.000000	97.100953 
3490.000000	97.098130 
3489.000000	97.094984 
3488.000000	97.092106 
3487.000000	97.089725 
3486.000000	97.087688 
3485.000000	97.086035 
3484.000000	97.085338 
3483.000000	97.086122 
3482.000000	97.088146 
3481.000000	97.090562 
3480.000000	97.092778 
3479.000000	97.094698 
3478.000000	97.096133 
3477.000000	97.096571 
3476.000000	97.095754 
3475.000000	97.094195 
3474.000000	97.092799 
3473.000000	97.092045 
3472.000000	97.091650 
3471.000000	97.090975 
3470.000000	97.089791 
3469.000000	97.088547 
3468.000000	97.087792 
3467.000000	97.087561 
3466.000000	97.087523 
3465.000000	97.087470 
3464.000000	97.087283 
3463.000000	97.086461 
3462.000000	97.084286 
3461.000000	97.080755 
3460.000000	97.076988 
3459.000000	97.074123 
3458.000000	97.071950 
3457.000000	97.069126 
3456.000000	97.064891 
3455.000000	97.060235 
3454.000000	97.057224 
3453.000000	97.057173 
3452.000000	97.059910 
3451.000000	97.064258 
3450.000000	97.068615 
3449.000000	97.071393 
3448.000000	97.071621 
3447.000000	97.069597 
3446.000000	97.066624 
3445.000000	97.063875 
3444.000000	97.061620 
3443.000000	97.059511 
3442.000000	97.057172 
3441.000000	97.054402 
3440.000000	97.051218 
3439.000000	97.047944 
3438.000000	97.045128 
3437.000000	97.043151 
3436.000000	97.042058 
3435.000000	97.041763 
3434.000000	97.042136 
3433.000000	97.042660 
3432.000000	97.042600 
3431.000000	97.041791 
3430.000000	97.040932 
3429.000000	97.040865 
3428.000000	97.041568 
3427.000000	97.042213 
3426.000000	97.042279 
3425.000000	97.042285 
3424.000000	97.043053 
3423.000000	97.044325 
3422.000000	97.044666 
3421.000000	97.043048 
3420.000000	97.040085 
3419.000000	97.037426 
3418.000000	97.036100 
3417.000000	97.035894 
3416.000000	97.036074 
3415.000000	97.036035 
3414.000000	97.035255 
3413.000000	97.033321 
3412.000000	97.030407 
3411.000000	97.027469 
3410.000000	97.025585 
3409.000000	97.025107 
3408.000000	97.025554 
3407.000000	97.026104 
3406.000000	97.026192 
3405.000000	97.025860 
3404.000000	97.025593 
3403.000000	97.025640 
3402.000000	97.025527 
3401.000000	97.024487 
3400.000000	97.022380 
3399.000000	97.019895 
3398.000000	97.017819 
3397.000000	97.016378 
3396.000000	97.015468 
3395.000000	97.015163 
3394.000000	97.015580 
3393.000000	97.016399 
3392.000000	97.016943 
3391.000000	97.016829 
3390.000000	97.016327 
3389.000000	97.016029 
3388.000000	97.016295 
3387.000000	97.017041 
3386.000000	97.017854 
3385.000000	97.018157 
3384.000000	97.017477 
3383.000000	97.015835 
3382.000000	97.014024 
3381.000000	97.013124 
3380.000000	97.013446 
3379.000000	97.014120 
3378.000000	97.013991 
3377.000000	97.013053 
3376.000000	97.012528 
3375.000000	97.013357 
3374.000000	97.015007 
3373.000000	97.016119 
3372.000000	97.016138 
3371.000000	97.015844 
3370.000000	97.016252 
3369.000000	97.017365 
3368.000000	97.018231 
3367.000000	97.018101 
3366.000000	97.017310 
3365.000000	97.016967 
3364.000000	97.017908 
3363.000000	97.019974 
3362.000000	97.022141 
3361.000000	97.023294 
3360.000000	97.022994 
3359.000000	97.021681 
3358.000000	97.020293 
3357.000000	97.019630 
3356.000000	97.020022 
3355.000000	97.021486 
3354.000000	97.024036 
3353.000000	97.027593 
3352.000000	97.031561 
3351.000000	97.034808 
3350.000000	97.036395 
3349.000000	97.036374 
3348.000000	97.035772 
3347.000000	97.035703 
3346.000000	97.036529 
3345.000000	97.037720 
3344.000000	97.038201 
3343.000000	97.036877 
3342.000000	97.033307 
3341.000000	97.028297 
3340.000000	97.023504 
3339.000000	97.020094 
3338.000000	97.018108 
3337.000000	97.017090 
3336.000000	97.016924 
3335.000000	97.017775 
3334.000000	97.019388 
3333.000000	97.020939 
3332.000000	97.021691 
3331.000000	97.021538 
3330.000000	97.020841 
3329.000000	97.020009 
3328.000000	97.019378 
3327.000000	97.019252 
3326.000000	97.019746 
3325.000000	97.020518 
3324.000000	97.020879 
3323.000000	97.020324 
3322.000000	97.018942 
3321.000000	97.017288 
3320.000000	97.015926 
3319.000000	97.015108 
3318.000000	97.014832 
3317.000000	97.014979 
3316.000000	97.015287 
3315.000000	97.015328 
3314.000000	97.014730 
3313.000000	97.013481 
3312.000000	97.011985 
3311.000000	97.010784 
3310.000000	97.010143 
3309.000000	97.009908 
3308.000000	97.009673 
3307.000000	97.009054 
3306.000000	97.007887 
3305.000000	97.006314 
3304.000000	97.004792 
3303.000000	97.003899 
3302.000000	97.003958 
3301.000000	97.004819 
3300.000000	97.005853 
3299.000000	97.006335 
3298.000000	97.005951 
3297.000000	97.004997 
3296.000000	97.004198 
3295.000000	97.004148 
3294.000000	97.004927 
3293.000000	97.006184 
3292.000000	97.007441 
3291.000000	97.008347 
3290.000000	97.008687 
3289.000000	97.008347 
3288.000000	97.007411 
3287.000000	97.006227 
3286.000000	97.005175 
3285.000000	97.004305 
3284.000000	97.003319 
3283.000000	97.002091 
3282.000000	97.001111 
3281.000000	97.001113 
3280.000000	97.002082 
3279.000000	97.002892 
3278.000000	97.002360 
3277.000000	97.000582 
3276.000000	96.998859 
3275.000000	96.998204 
3274.000000	96.998371 
3273.000000	96.998648 
3272.000000	96.999094 
3271.000000	97.000372 
3270.000000	97.002553 
3269.000000	97.004696 
3268.000000	97.005836 
3267.000000	97.006111 
3266.000000	97.006677 
3265.000000	97.008529 
3264.000000	97.011502 
3263.000000	97.014407 
3262.000000	97.016179 
3261.000000	97.016744 
3260.000000	97.016658 
3259.000000	97.016227 
3258.000000	97.015324 
3257.000000	97.014054 
3256.000000	97.013149 
3255.000000	97.013275 
3254.000000	97.014140 
3253.000000	97.014767 
3252.000000	97.014659 
3251.000000	97.014395 
3250.000000	97.015024 
3249.000000	97.017086 
3248.000000	97.020210 
3247.000000	97.023414 
3246.000000	97.025661 
3245.000000	97.026420 
3244.000000	97.026100 
3243.000000	97.025966 
3242.000000	97.027134 
3241.000000	97.029301 
3240.000000	97.030730 
3239.000000	97.030142 
3238.000000	97.028651 
3237.000000	97.029143 
3236.000000	97.033286 
3235.000000	97.039413 
3234.000000	97.043622 
3233.000000	97.042951 
3232.000000	97.037432 
3231.000000	97.029835 
3230.000000	97.023648 
3229.000000	97.020761 
3228.000000	97.020499 
3227.000000	97.020812 
3226.000000	97.020573 
3225.000000	97.020444 
3224.000000	97.021441 
3223.000000	97.023381 
3222.000000	97.025303 
3221.000000	97.026956 
3220.000000	97.029127 
3219.000000	97.032685 
3218.000000	97.037927 
3217.000000	97.044541 
3216.000000	97.051546 
3215.000000	97.057618 
3214.000000	97.062264 
3213.000000	97.066523 
3212.000000	97.071934 
3211.000000	97.078885 
3210.000000	97.086427 
3209.000000	97.093333 
3208.000000	97.098593 
3207.000000	97.101157 
3206.000000	97.100400 
3205.000000	97.097238 
3204.000000	97.094016 
3203.000000	97.092567 
3202.000000	97.092468 
3201.000000	97.091552 
3200.000000	97.088106 
3199.000000	97.082514 
3198.000000	97.076627 
3197.000000	97.071373 
3196.000000	97.065418 
3195.000000	97.057063 
3194.000000	97.047478 
3193.000000	97.040759 
3192.000000	97.039848 
3191.000000	97.043165 
3190.000000	97.046052 
3189.000000	97.045496 
3188.000000	97.042812 
3187.000000	97.041859 
3186.000000	97.045504 
3185.000000	97.053469 
3184.000000	97.062447 
3183.000000	97.068500 
3182.000000	97.070394 
3181.000000	97.070587 
3180.000000	97.072496 
3179.000000	97.076872 
3178.000000	97.081416 
3177.000000	97.083709 
3176.000000	97.083631 
3175.000000	97.082920 
3174.000000	97.083275 
3173.000000	97.084935 
3172.000000	97.086318 
3171.000000	97.084993 
3170.000000	97.079880 
3169.000000	97.072772 
3168.000000	97.067034 
3167.000000	97.064540 
3166.000000	97.064436 
3165.000000	97.064651 
3164.000000	97.063831 
3163.000000	97.062071 
3162.000000	97.060777 
3161.000000	97.061862 
3160.000000	97.066038 
3159.000000	97.071670 
3158.000000	97.076387 
3157.000000	97.080122 
3156.000000	97.085268 
3155.000000	97.093287 
3154.000000	97.102473 
3153.000000	97.109924 
3152.000000	97.114594 
3151.000000	97.117238 
3150.000000	97.118464 
3149.000000	97.118410 
3148.000000	97.117813 
3147.000000	97.117775 
3146.000000	97.118397 
3145.000000	97.118783 
3144.000000	97.118478 
3143.000000	97.117893 
3142.000000	97.117186 
3141.000000	97.115659 
3140.000000	97.112663 
3139.000000	97.108555 
3138.000000	97.104417 
3137.000000	97.100995 
3136.000000	97.097949 
3135.000000	97.094168 
3134.000000	97.089146 
3133.000000	97.084180 
3132.000000	97.081767 
3131.000000	97.083489 
3130.000000	97.088705 
3129.000000	97.095297 
3128.000000	97.101255 
3127.000000	97.105601 
3126.000000	97.108536 
3125.000000	97.111156 
3124.000000	97.114631 
3123.000000	97.118973 
3122.000000	97.122693 
3121.000000	97.124340 
3120.000000	97.124214 
3119.000000	97.124006 
3118.000000	97.124969 
3117.000000	97.127006 
3116.000000	97.129364 
3115.000000	97.131568 
3114.000000	97.133632 
3113.000000	97.135911 
3112.000000	97.138933 
3111.000000	97.142849 
3110.000000	97.146689 
3109.000000	97.148679 
3108.000000	97.147914 
3107.000000	97.145503 
3106.000000	97.143807 
3105.000000	97.144180 
3104.000000	97.145892 
3103.000000	97.147327 
3102.000000	97.147785 
3101.000000	97.147950 
3100.000000	97.148817 
3099.000000	97.150584 
3098.000000	97.152713 
3097.000000	97.154665 
3096.000000	97.156293 
3095.000000	97.157656 
3094.000000	97.158832 
3093.000000	97.159951 
3092.000000	97.161154 
3091.000000	97.162402 
3090.000000	97.163483 
3089.000000	97.164294 
3088.000000	97.164969 
3087.000000	97.165719 
3086.000000	97.166657 
3085.000000	97.167741 
3084.000000	97.168838 
3083.000000	97.169846 
3082.000000	97.170785 
3081.000000	97.171752 
3080.000000	97.172812 
3079.000000	97.173948 
3078.000000	97.175076 
3077.000000	97.176137 
3076.000000	97.177144 
3075.000000	97.178153 
3074.000000	97.179212 
3073.000000	97.180319 
3072.000000	97.181440 
3071.000000	97.182534 
3070.000000	97.183578 
3069.000000	97.184582 
3068.000000	97.185599 
3067.000000	97.186679 
3066.000000	97.187797 
3065.000000	97.188836 
3064.000000	97.189691 
3063.000000	97.190355 
3062.000000	97.190929 
3061.000000	97.191532 
3060.000000	97.192218 
3059.000000	97.192989 
3058.000000	97.193828 
3057.000000	97.194736 
3056.000000	97.195714 
3055.000000	97.196698 
3054.000000	97.197543 
3053.000000	97.198141 
3052.000000	97.198541 
3051.000000	97.198974 
3050.000000	97.199650 
3049.000000	97.200574 
3048.000000	97.201551 
3047.000000	97.202356 
3046.000000	97.202876 
3045.000000	97.203134 
3044.000000	97.203311 
3043.000000	97.203734 
3042.000000	97.204685 
3041.000000	97.206079 
3040.000000	97.207329 
3039.000000	97.207831 
3038.000000	97.207569 
3037.000000	97.207135 
3036.000000	97.207089 
3035.000000	97.207334 
3034.000000	97.207353 
3033.000000	97.206921 
3032.000000	97.206352 
3031.000000	97.206055 
3030.000000	97.206069 
3029.000000	97.206118 
3028.000000	97.205886 
3027.000000	97.205128 
3026.000000	97.203765 
3025.000000	97.202089 
3024.000000	97.200724 
3023.000000	97.200051 
3022.000000	97.199798 
3021.000000	97.199501 
3020.000000	97.199296 
3019.000000	97.199789 
3018.000000	97.201047 
3017.000000	97.202155 
3016.000000	97.202134 
3015.000000	97.201003 
3014.000000	97.199777 
3013.000000	97.199544 
3012.000000	97.200578 
3011.000000	97.202060 
3010.000000	97.202508 
3009.000000	97.200873 
3008.000000	97.197356 
3007.000000	97.193298 
3006.000000	97.190004 
3005.000000	97.187851 
3004.000000	97.186739 
3003.000000	97.186806 
3002.000000	97.188263 
3001.000000	97.190769 
3000.000000	97.193399 
2999.000000	97.195206 
2998.000000	97.195604 
2997.000000	97.194425 
2996.000000	97.192129 
2995.000000	97.189909 
2994.000000	97.189024 
2993.000000	97.189783 
2992.000000	97.191313 
2991.000000	97.192356 
2990.000000	97.192233 
2989.000000	97.191152 
2988.000000	97.189931 
2987.000000	97.189466 
2986.000000	97.190257 
2985.000000	97.192236 
2984.000000	97.194963 
2983.000000	97.197968 
2982.000000	97.200947 
2981.000000	97.203727 
2980.000000	97.206157 
2979.000000	97.208019 
2978.000000	97.209035 
2977.000000	97.209139 
2976.000000	97.208754 
2975.000000	97.208605 
2974.000000	97.209094 
2973.000000	97.210028 
2972.000000	97.211064 
2971.000000	97.212137 
2970.000000	97.213225 
2969.000000	97.214034 
2968.000000	97.214270 
2967.000000	97.214131 
2966.000000	97.214215 
2965.000000	97.214947 
2964.000000	97.216340 
2963.000000	97.218206 
2962.000000	97.220289 
2961.000000	97.222266 
2960.000000	97.223962 
2959.000000	97.225618 
2958.000000	97.227660 
2957.000000	97.230079 
2956.000000	97.232205 
2955.000000	97.233281 
2954.000000	97.233254 
2953.000000	97.232893 
2952.000000	97.233219 
2951.000000	97.234690 
2950.000000	97.236855 
2949.000000	97.238687 
2948.000000	97.239520 
2947.000000	97.239656 
2946.000000	97.240006 
2945.000000	97.241066 
2944.000000	97.242491 
2943.000000	97.243665 
2942.000000	97.244377 
2941.000000	97.244846 
2940.000000	97.245359 
2939.000000	97.246130 
2938.000000	97.247238 
2937.000000	97.248370 
2936.000000	97.248801 
2935.000000	97.248087 
2934.000000	97.246774 
2933.000000	97.246135 
2932.000000	97.246913 
2931.000000	97.248568 
2930.000000	97.249804 
2929.000000	97.249820 
2928.000000	97.248861 
2927.000000	97.247762 
2926.000000	97.247150 
2925.000000	97.247080 
2924.000000	97.247255 
2923.000000	97.247368 
2922.000000	97.247276 
2921.000000	97.247026 
2920.000000	97.246829 
2919.000000	97.246953 
2918.000000	97.247447 
2917.000000	97.247842 
2916.000000	97.247335 
2915.000000	97.245537 
2914.000000	97.243127 
2913.000000	97.241498 
2912.000000	97.241419 
2911.000000	97.242283 
2910.000000	97.242843 
2909.000000	97.242754 
2908.000000	97.242934 
2907.000000	97.244287 
2906.000000	97.246575 
2905.000000	97.248588 
2904.000000	97.249259 
2903.000000	97.248598 
2902.000000	97.247625 
2901.000000	97.247493 
2900.000000	97.248559 
2899.000000	97.250210 
2898.000000	97.251551 
2897.000000	97.252271 
2896.000000	97.252695 
2895.000000	97.253169 
2894.000000	97.253715 
2893.000000	97.254285 
2892.000000	97.255000 
2891.000000	97.255916 
2890.000000	97.256800 
2889.000000	97.257473 
2888.000000	97.258199 
2887.000000	97.259328 
2886.000000	97.260608 
2885.000000	97.261294 
2884.000000	97.261105 
2883.000000	97.260747 
2882.000000	97.261195 
2881.000000	97.262530 
2880.000000	97.263959 
2879.000000	97.264930 
2878.000000	97.265764 
2877.000000	97.266950 
2876.000000	97.268315 
2875.000000	97.269354 
2874.000000	97.270045 
2873.000000	97.270775 
2872.000000	97.271685 
2871.000000	97.272574 
2870.000000	97.273250 
2869.000000	97.273475 
2868.000000	97.272798 
2867.000000	97.270968 
2866.000000	97.268534 
2865.000000	97.266572 
2864.000000	97.265780 
2863.000000	97.266326 
2862.000000	97.268295 
2861.000000	97.271426 
2860.000000	97.274408 
2859.000000	97.275673 
2858.000000	97.275396 
2857.000000	97.275733 
2856.000000	97.278322 
2855.000000	97.282266 
2854.000000	97.285346 
2853.000000	97.286672 
2852.000000	97.287058 
2851.000000	97.287149 
2850.000000	97.286392 
2849.000000	97.283993 
2848.000000	97.280091 
2847.000000	97.275801 
2846.000000	97.272595 
2845.000000	97.271562 
2844.000000	97.272655 
2843.000000	97.274502 
2842.000000	97.275617 
2841.000000	97.276009 
2840.000000	97.276918 
2839.000000	97.278813 
2838.000000	97.280450 
2837.000000	97.280440 
2836.000000	97.279151 
2835.000000	97.278562 
2834.000000	97.280641 
2833.000000	97.286172 
2832.000000	97.294457 
2831.000000	97.303338 
2830.000000	97.309977 
2829.000000	97.312785 
2828.000000	97.312975 
2827.000000	97.313760 
2826.000000	97.317434 
2825.000000	97.323180 
2824.000000	97.327936 
2823.000000	97.329420 
2822.000000	97.328295 
2821.000000	97.327544 
2820.000000	97.329536 
2819.000000	97.333485 
2818.000000	97.336092 
2817.000000	97.334966 
2816.000000	97.331129 
2815.000000	97.327962 
2814.000000	97.327619 
2813.000000	97.328876 
2812.000000	97.328584 
2811.000000	97.324769 
2810.000000	97.318328 
2809.000000	97.312301 
2808.000000	97.309591 
2807.000000	97.310918 
2806.000000	97.314480 
2805.000000	97.317391 
2804.000000	97.317964 
2803.000000	97.316811 
2802.000000	97.315960 
2801.000000	97.317070 
2800.000000	97.320314 
2799.000000	97.324356 
2798.000000	97.327207 
2797.000000	97.327637 
2796.000000	97.326276 
2795.000000	97.325282 
2794.000000	97.326463 
2793.000000	97.329661 
2792.000000	97.333101 
2791.000000	97.335233 
2790.000000	97.336044 
2789.000000	97.336557 
2788.000000	97.337520 
2787.000000	97.338757 
2786.000000	97.339582 
2785.000000	97.339574 
2784.000000	97.339002 
2783.000000	97.338665 
2782.000000	97.339248 
2781.000000	97.340715 
2780.000000	97.342384 
2779.000000	97.343630 
2778.000000	97.344465 
2777.000000	97.345343 
2776.000000	97.346544 
2775.000000	97.347915 
2774.000000	97.349124 
2773.000000	97.349993 
2772.000000	97.350561 
2771.000000	97.351005 
2770.000000	97.351599 
2769.000000	97.352589 
2768.000000	97.353965 
2767.000000	97.355327 
2766.000000	97.356199 
2765.000000	97.356521 
2764.000000	97.356724 
2763.000000	97.357238 
2762.000000	97.358028 
2761.000000	97.358732 
2760.000000	97.359145 
2759.000000	97.359416 
2758.000000	97.359796 
2757.000000	97.360322 
2756.000000	97.360797 
2755.000000	97.361052 
2754.000000	97.361169 
2753.000000	97.361381 
2752.000000	97.361803 
2751.000000	97.362382 
2750.000000	97.363030 
2749.000000	97.363705 
2748.000000	97.364352 
2747.000000	97.364851 
2746.000000	97.365131 
2745.000000	97.365269 
2744.000000	97.365448 
2743.000000	97.365775 
2742.000000	97.366196 
2741.000000	97.366586 
2740.000000	97.366897 
2739.000000	97.367158 
2738.000000	97.367414 
2737.000000	97.367682 
2736.000000	97.367967 
2735.000000	97.368289 
2734.000000	97.368662 
2733.000000	97.369075 
2732.000000	97.369491 
2731.000000	97.369873 
2730.000000	97.370209 
2729.000000	97.370507 
2728.000000	97.370777 
2727.000000	97.371030 
2726.000000	97.371274 
2725.000000	97.371517 
2724.000000	97.371765 
2723.000000	97.372020 
2722.000000	97.372268 
2721.000000	97.372495 
2720.000000	97.372707 
2719.000000	97.372950 
2718.000000	97.373273 
2717.000000	97.373684 
2716.000000	97.374127 
2715.000000	97.374524 
2714.000000	97.374856 
2713.000000	97.375184 
2712.000000	97.375570 
2711.000000	97.375980 
2710.000000	97.376316 
2709.000000	97.376541 
2708.000000	97.376745 
2707.000000	97.377084 
2706.000000	97.377662 
2705.000000	97.378435 
2704.000000	97.379145 
2703.000000	97.379452 
2702.000000	97.379225 
2701.000000	97.378783 
2700.000000	97.378733 
2699.000000	97.379417 
2698.000000	97.380571 
2697.000000	97.381477 
2696.000000	97.381599 
2695.000000	97.380934 
2694.000000	97.379940 
2693.000000	97.379163 
2692.000000	97.378802 
2691.000000	97.378548 
2690.000000	97.377873 
2689.000000	97.376616 
2688.000000	97.375194 
2687.000000	97.374140 
2686.000000	97.373670 
2685.000000	97.373803 
2684.000000	97.374553 
2683.000000	97.375724 
2682.000000	97.376806 
2681.000000	97.377471 
2680.000000	97.377950 
2679.000000	97.378566 
2678.000000	97.379170 
2677.000000	97.379501 
2676.000000	97.379770 
2675.000000	97.380227 
2674.000000	97.380385 
2673.000000	97.379504 
2672.000000	97.377819 
2671.000000	97.376442 
2670.000000	97.375910 
2669.000000	97.375717 
2668.000000	97.375486 
2667.000000	97.375516 
2666.000000	97.375671 
2665.000000	97.374679 
2664.000000	97.371511 
2663.000000	97.366974 
2662.000000	97.363154 
2661.000000	97.361287 
2660.000000	97.360942 
2659.000000	97.361047 
2658.000000	97.361003 
2657.000000	97.360691 
2656.000000	97.360040 
2655.000000	97.359012 
2654.000000	97.357731 
2653.000000	97.356437 
2652.000000	97.355502 
2651.000000	97.355487 
2650.000000	97.356784 
2649.000000	97.359100 
2648.000000	97.361485 
2647.000000	97.362853 
2646.000000	97.362465 
2645.000000	97.360305 
2644.000000	97.357395 
2643.000000	97.355412 
2642.000000	97.355291 
2641.000000	97.356242 
2640.000000	97.356645 
2639.000000	97.356001 
2638.000000	97.355403 
2637.000000	97.355980 
2636.000000	97.357580 
2635.000000	97.359362 
2634.000000	97.361073 
2633.000000	97.363043 
2632.000000	97.365162 
2631.000000	97.366541 
2630.000000	97.366359 
2629.000000	97.364725 
2628.000000	97.362648 
2627.000000	97.361372 
2626.000000	97.361629 
2625.000000	97.363245 
2624.000000	97.365248 
2623.000000	97.366526 
2622.000000	97.366520 
2621.000000	97.365265 
2620.000000	97.362871 
2619.000000	97.359227 
2618.000000	97.354447 
2617.000000	97.349447 
2616.000000	97.345712 
2615.000000	97.344251 
2614.000000	97.344824 
2613.000000	97.346280 
2612.000000	97.347749 
2611.000000	97.349394 
2610.000000	97.351732 
2609.000000	97.354456 
2608.000000	97.356435 
2607.000000	97.356972 
2606.000000	97.356573 
2605.000000	97.356137 
2604.000000	97.355703 
2603.000000	97.354619 
2602.000000	97.352918 
2601.000000	97.351776 
2600.000000	97.352258 
2599.000000	97.354096 
2598.000000	97.356146 
2597.000000	97.357706 
2596.000000	97.358762 
2595.000000	97.359090 
2594.000000	97.357999 
2593.000000	97.355382 
2592.000000	97.352497 
2591.000000	97.350924 
2590.000000	97.350858 
2589.000000	97.351158 
2588.000000	97.350942 
2587.000000	97.350672 
2586.000000	97.351332 
2585.000000	97.353088 
2584.000000	97.355154 
2583.000000	97.356666 
2582.000000	97.357345 
2581.000000	97.357392 
2580.000000	97.357127 
2579.000000	97.356847 
2578.000000	97.356748 
2577.000000	97.356801 
2576.000000	97.356765 
2575.000000	97.356421 
2574.000000	97.355768 
2573.000000	97.354894 
2572.000000	97.353705 
2571.000000	97.351918 
2570.000000	97.349420 
2569.000000	97.346674 
2568.000000	97.344680 
2567.000000	97.344256 
2566.000000	97.345228 
2565.000000	97.346370 
2564.000000	97.346473 
2563.000000	97.345500 
2562.000000	97.344468 
2561.000000	97.344292 
2560.000000	97.345061 
2559.000000	97.346414 
2558.000000	97.348082 
2557.000000	97.349782 
2556.000000	97.350994 
2555.000000	97.351276 
2554.000000	97.350531 
2553.000000	97.348681 
2552.000000	97.345622 
2551.000000	97.342125 
2550.000000	97.340136 
2549.000000	97.340950 
2548.000000	97.343156 
2547.000000	97.343501 
2546.000000	97.340451 
2545.000000	97.335800 
2544.000000	97.332301 
2543.000000	97.330381 
2542.000000	97.328530 
2541.000000	97.326234 
2540.000000	97.324737 
2539.000000	97.324703 
2538.000000	97.324929 
2537.000000	97.324239 
2536.000000	97.323522 
2535.000000	97.324611 
2534.000000	97.327741 
2533.000000	97.331097 
2532.000000	97.332773 
2531.000000	97.332569 
2530.000000	97.331735 
2529.000000	97.331535 
2528.000000	97.332246 
2527.000000	97.333344 
2526.000000	97.334339 
2525.000000	97.335224 
2524.000000	97.336122 
2523.000000	97.336787 
2522.000000	97.336734 
2521.000000	97.335816 
2520.000000	97.334365 
2519.000000	97.332716 
2518.000000	97.330838 
2517.000000	97.328492 
2516.000000	97.325610 
2515.000000	97.322636 
2514.000000	97.320666 
2513.000000	97.320933 
2512.000000	97.323739 
2511.000000	97.327987 
2510.000000	97.331990 
2509.000000	97.334783 
2508.000000	97.336319 
2507.000000	97.336774 
2506.000000	97.336478 
2505.000000	97.336397 
2504.000000	97.337660 
2503.000000	97.340219 
2502.000000	97.342567 
2501.000000	97.343292 
2500.000000	97.342433 
2499.000000	97.341028 
2498.000000	97.339863 
2497.000000	97.339059 
2496.000000	97.338598 
2495.000000	97.338560 
2494.000000	97.338842 
2493.000000	97.339133 
2492.000000	97.339303 
2491.000000	97.339529 
2490.000000	97.339886 
2489.000000	97.340017 
2488.000000	97.339488 
2487.000000	97.338402 
2486.000000	97.337459 
2485.000000	97.337290 
2484.000000	97.337855 
2483.000000	97.338494 
2482.000000	97.338544 
2481.000000	97.337938 
2480.000000	97.337164 
2479.000000	97.336775 
2478.000000	97.336974 
2477.000000	97.337609 
2476.000000	97.338316 
2475.000000	97.338617 
2474.000000	97.338106 
2473.000000	97.336782 
2472.000000	97.335210 
2471.000000	97.334095 
2470.000000	97.333686 
2469.000000	97.333625 
2468.000000	97.333220 
2467.000000	97.331896 
2466.000000	97.329599 
2465.000000	97.327076 
2464.000000	97.325540 
2463.000000	97.325709 
2462.000000	97.327169 
2461.000000	97.328748 
2460.000000	97.329690 
2459.000000	97.330164 
2458.000000	97.330512 
2457.000000	97.330399 
2456.000000	97.329027 
2455.000000	97.326156 
2454.000000	97.322676 
2453.000000	97.319946 
2452.000000	97.318578 
2451.000000	97.318177 
2450.000000	97.318212 
2449.000000	97.318707 
2448.000000	97.319690 
2447.000000	97.320383 
2446.000000	97.319706 
2445.000000	97.317611 
2444.000000	97.315268 
2443.000000	97.313750 
2442.000000	97.313141 
2441.000000	97.312965 
2440.000000	97.312848 
2439.000000	97.312695 
2438.000000	97.312950 
2437.000000	97.314831 
2436.000000	97.319207 
2435.000000	97.324851 
2434.000000	97.328841 
2433.000000	97.329523 
2432.000000	97.328280 
2431.000000	97.327898 
2430.000000	97.329689 
2429.000000	97.332850 
2428.000000	97.335904 
2427.000000	97.337737 
2426.000000	97.337721 
2425.000000	97.335938 
2424.000000	97.333514 
2423.000000	97.332064 
2422.000000	97.332466 
2421.000000	97.334479 
2420.000000	97.337475 
2419.000000	97.340860 
2418.000000	97.344056 
2417.000000	97.346946 
2416.000000	97.349630 
2415.000000	97.351496 
2414.000000	97.351565 
2413.000000	97.350169 
2412.000000	97.349332 
2411.000000	97.350605 
2410.000000	97.353139 
2409.000000	97.354807 
2408.000000	97.354679 
2407.000000	97.353498 
2406.000000	97.352307 
2405.000000	97.351841 
2404.000000	97.352589 
2403.000000	97.354107 
2402.000000	97.354742 
2401.000000	97.353279 
2400.000000	97.350698 
2399.000000	97.349236 
2398.000000	97.349911 
2397.000000	97.351816 
2396.000000	97.353404 
2395.000000	97.353396 
2394.000000	97.351067 
2393.000000	97.347201 
2392.000000	97.344488 
2391.000000	97.345119 
2390.000000	97.347678 
2389.000000	97.347880 
2388.000000	97.342953 
2387.000000	97.334202 
2386.000000	97.325137 
2385.000000	97.318512 
2384.000000	97.315563 
2383.000000	97.316531 
2382.000000	97.321360 
2381.000000	97.330614 
2380.000000	97.346012 
2379.000000	97.368775 
2378.000000	97.395915 
2377.000000	97.418892 
2376.000000	97.428637 
2375.000000	97.422315 
2374.000000	97.405090 
2373.000000	97.386051 
2372.000000	97.371774 
2371.000000	97.363266 
2370.000000	97.357460 
2369.000000	97.350513 
2368.000000	97.341368 
2367.000000	97.333433 
2366.000000	97.332259 
2365.000000	97.340162 
2364.000000	97.352106 
2363.000000	97.358162 
2362.000000	97.354314 
2361.000000	97.346897 
2360.000000	97.343463 
2359.000000	97.345160 
2358.000000	97.347949 
2357.000000	97.349392 
2356.000000	97.349520 
2355.000000	97.346892 
2354.000000	97.343262 
2353.000000	97.340366 
2352.000000	97.339692 
2351.000000	97.339410 
2350.000000	97.335623 
2349.000000	97.329500 
2348.000000	97.325444 
2347.000000	97.327699 
2346.000000	97.330490 
2345.000000	97.324440 
2344.000000	97.310312 
2343.000000	97.295225 
2342.000000	97.293076 
2341.000000	97.309704 
2340.000000	97.338418 
2339.000000	97.362969 
2338.000000	97.373192 
2337.000000	97.372236 
2336.000000	97.367468 
2335.000000	97.363995 
2334.000000	97.360780 
2333.000000	97.354121 
2332.000000	97.337646 
2331.000000	97.312037 
2330.000000	97.279171 
2329.000000	97.248117 
2328.000000	97.219131 
2327.000000	97.196738 
2326.000000	97.179933 
2325.000000	97.168227 
2324.000000	97.160245 
2323.000000	97.157006 
2322.000000	97.160973 
2321.000000	97.167824 
2320.000000	97.171505 
2319.000000	97.172019 
2318.000000	97.174247 
2317.000000	97.182999 
2316.000000	97.193943 
2315.000000	97.202828 
2314.000000	97.203262 
2313.000000	97.196463 
2312.000000	97.183779 
2311.000000	97.173392 
2310.000000	97.167807 
2309.000000	97.167069 
2308.000000	97.165252 
2307.000000	97.162634 
2306.000000	97.160660 
2305.000000	97.161196 
2304.000000	97.161349 
2303.000000	97.160978 
2302.000000	97.161023 
2301.000000	97.163653 
2300.000000	97.166595 
2299.000000	97.168864 
2298.000000	97.168869 
2297.000000	97.167478 
2296.000000	97.163570 
2295.000000	97.159078 
2294.000000	97.156068 
2293.000000	97.156877 
2292.000000	97.160525 
2291.000000	97.166083 
2290.000000	97.173557 
2289.000000	97.183151 
2288.000000	97.193069 
2287.000000	97.200493 
2286.000000	97.204714 
2285.000000	97.207404 
2284.000000	97.210865 
2283.000000	97.214994 
2282.000000	97.217754 
2281.000000	97.217136 
2280.000000	97.213487 
2279.000000	97.208690 
2278.000000	97.204537 
2277.000000	97.201540 
2276.000000	97.199507 
2275.000000	97.198722 
2274.000000	97.199998 
2273.000000	97.204007 
2272.000000	97.210000 
2271.000000	97.215741 
2270.000000	97.218769 
2269.000000	97.218607 
2268.000000	97.217295 
2267.000000	97.217323 
2266.000000	97.218793 
2265.000000	97.219509 
2264.000000	97.217482 
2263.000000	97.212679 
2262.000000	97.206451 
2261.000000	97.200413 
2260.000000	97.195861 
2259.000000	97.192985 
2258.000000	97.190780 
2257.000000	97.188397 
2256.000000	97.186977 
2255.000000	97.188538 
2254.000000	97.192965 
2253.000000	97.197298 
2252.000000	97.198695 
2251.000000	97.197135 
2250.000000	97.194171 
2249.000000	97.190509 
2248.000000	97.185958 
2247.000000	97.181263 
2246.000000	97.178034 
2245.000000	97.176803 
2244.000000	97.176327 
2243.000000	97.174910 
2242.000000	97.172029 
2241.000000	97.168483 
2240.000000	97.165553 
2239.000000	97.163908 
2238.000000	97.163201 
2237.000000	97.162507 
2236.000000	97.161248 
2235.000000	97.159568 
2234.000000	97.157826 
2233.000000	97.156118 
2232.000000	97.154371 
2231.000000	97.152581 
2230.000000	97.150718 
2229.000000	97.148633 
2228.000000	97.146330 
2227.000000	97.144147 
2226.000000	97.142382 
2225.000000	97.140919 
2224.000000	97.139369 
2223.000000	97.137565 
2222.000000	97.135711 
2221.000000	97.134012 
2220.000000	97.132417 
2219.000000	97.130780 
2218.000000	97.129087 
2217.000000	97.127440 
2216.000000	97.125901 
2215.000000	97.124438 
2214.000000	97.122965 
2213.000000	97.121407 
2212.000000	97.119747 
2211.000000	97.118026 
2210.000000	97.116281 
2209.000000	97.114520 
2208.000000	97.112741 
2207.000000	97.110947 
2206.000000	97.109150 
2205.000000	97.107359 
2204.000000	97.105751 
2203.000000	97.104709 
2202.000000	97.104253 
2201.000000	97.103833 
2200.000000	97.102847 
2199.000000	97.100814 
2198.000000	97.097291 
2197.000000	97.092657 
2196.000000	97.088546 
2195.000000	97.086325 
2194.000000	97.085455 
2193.000000	97.084440 
2192.000000	97.083043 
2191.000000	97.081779 
2190.000000	97.079552 
2189.000000	97.074604 
2188.000000	97.068446 
2187.000000	97.065460 
2186.000000	97.066629 
2185.000000	97.066858 
2184.000000	97.061989 
2183.000000	97.056230 
2182.000000	97.057626 
2181.000000	97.067042 
2180.000000	97.076001 
2179.000000	97.076417 
2178.000000	97.068362 
2177.000000	97.057717 
2176.000000	97.050259 
2175.000000	97.048971 
2174.000000	97.053927 
2173.000000	97.062128 
2172.000000	97.069369 
2171.000000	97.073645 
2170.000000	97.074967 
2169.000000	97.072446 
2168.000000	97.064998 
2167.000000	97.055011 
2166.000000	97.046737 
2165.000000	97.039460 
2164.000000	97.027174 
2163.000000	97.008633 
2162.000000	96.993583 
2161.000000	96.993827 
2160.000000	97.011229 
2159.000000	97.037724 
2158.000000	97.064451 
2157.000000	97.087449 
2156.000000	97.105445 
2155.000000	97.117599 
2154.000000	97.124405 
2153.000000	97.128043 
2152.000000	97.130615 
2151.000000	97.132554 
2150.000000	97.133396 
2149.000000	97.134256 
2148.000000	97.138881 
2147.000000	97.150640 
2146.000000	97.167791 
2145.000000	97.183618 
2144.000000	97.193320 
2143.000000	97.198892 
2142.000000	97.204676 
2141.000000	97.210134 
2140.000000	97.211162 
2139.000000	97.208055 
2138.000000	97.207776 
2137.000000	97.216288 
2136.000000	97.231030 
2135.000000	97.242939 
2134.000000	97.244971 
2133.000000	97.237665 
2132.000000	97.228193 
2131.000000	97.224441 
2130.000000	97.228890 
2129.000000	97.237578 
2128.000000	97.244747 
2127.000000	97.248301 
2126.000000	97.250326 
2125.000000	97.253425 
2124.000000	97.257968 
2123.000000	97.262199 
2122.000000	97.263435 
2121.000000	97.259650 
2120.000000	97.251691 
2119.000000	97.243823 
2118.000000	97.240616 
2117.000000	97.242775 
2116.000000	97.246733 
2115.000000	97.248188 
2114.000000	97.245304 
2113.000000	97.239040 
2112.000000	97.232015 
2111.000000	97.227370 
2110.000000	97.227173 
2109.000000	97.230914 
2108.000000	97.236020 
2107.000000	97.240243 
2106.000000	97.243069 
2105.000000	97.244991 
2104.000000	97.246458 
2103.000000	97.247498 
2102.000000	97.247395 
2101.000000	97.244953 
2100.000000	97.240352 
2099.000000	97.236478 
2098.000000	97.236867 
2097.000000	97.242136 
2096.000000	97.249521 
2095.000000	97.256043 
2094.000000	97.260862 
2093.000000	97.264095 
2092.000000	97.265105 
2091.000000	97.263401 
2090.000000	97.260414 
2089.000000	97.258673 
2088.000000	97.259027 
2087.000000	97.259396 
2086.000000	97.256657 
2085.000000	97.249764 
2084.000000	97.241219 
2083.000000	97.235201 
2082.000000	97.233763 
2081.000000	97.235360 
2080.000000	97.237119 
2079.000000	97.238137 
2078.000000	97.239542 
2077.000000	97.241711 
2076.000000	97.243186 
2075.000000	97.242741 
2074.000000	97.240753 
2073.000000	97.237678 
2072.000000	97.232796 
2071.000000	97.225687 
2070.000000	97.217839 
2069.000000	97.211710 
2068.000000	97.208632 
2067.000000	97.208083 
2066.000000	97.208030 
2065.000000	97.205456 
2064.000000	97.198037 
2063.000000	97.186956 
2062.000000	97.177148 
2061.000000	97.173489 
2060.000000	97.176530 
2059.000000	97.182694 
2058.000000	97.188036 
2057.000000	97.190725 
2056.000000	97.190519 
2055.000000	97.187376 
2054.000000	97.181453 
2053.000000	97.173891 
2052.000000	97.166549 
2051.000000	97.160488 
2050.000000	97.155014 
2049.000000	97.148664 
2048.000000	97.141196 
2047.000000	97.134258 
2046.000000	97.129724 
2045.000000	97.127740 
2044.000000	97.126701 
2043.000000	97.124772 
2042.000000	97.121029 
2041.000000	97.115532 
2040.000000	97.109253 
2039.000000	97.103993 
2038.000000	97.101383 
2037.000000	97.101375 
2036.000000	97.102114 
2035.000000	97.101948 
2034.000000	97.101188 
2033.000000	97.101330 
2032.000000	97.102904 
2031.000000	97.104495 
2030.000000	97.103872 
2029.000000	97.100181 
2028.000000	97.095078 
2027.000000	97.091257 
2026.000000	97.089293 
2025.000000	97.086739 
2024.000000	97.081423 
2023.000000	97.075392 
2022.000000	97.073778 
2021.000000	97.079338 
2020.000000	97.089448 
2019.000000	97.097734 
2018.000000	97.099592 
2017.000000	97.095051 
2016.000000	97.087982 
2015.000000	97.082750 
2014.000000	97.080546 
2013.000000	97.079034 
2012.000000	97.075641 
2011.000000	97.071355 
2010.000000	97.069922 
2009.000000	97.072870 
2008.000000	97.077314 
2007.000000	97.080227 
2006.000000	97.083003 
2005.000000	97.089034 
2004.000000	97.098328 
2003.000000	97.107361 
2002.000000	97.113509 
2001.000000	97.116617 
2000.000000	97.116464 
1999.000000	97.111466 
1998.000000	97.100820 
1997.000000	97.086745 
1996.000000	97.073796 
1995.000000	97.066153 
1994.000000	97.065356 
1993.000000	97.069372 
1992.000000	97.073309 
1991.000000	97.073051 
1990.000000	97.068974 
1989.000000	97.065059 
1988.000000	97.064366 
1987.000000	97.066130 
1986.000000	97.067367 
1985.000000	97.066571 
1984.000000	97.064940 
1983.000000	97.064184 
1982.000000	97.064471 
1981.000000	97.065110 
1980.000000	97.066673 
1979.000000	97.070998 
1978.000000	97.078204 
1977.000000	97.085288 
1976.000000	97.089171 
1975.000000	97.090180 
1974.000000	97.091478 
1973.000000	97.095599 
1972.000000	97.102413 
1971.000000	97.109719 
1970.000000	97.114879 
1969.000000	97.116250 
1968.000000	97.114108 
1967.000000	97.110855 
1966.000000	97.109745 
1965.000000	97.112425 
1964.000000	97.118199 
1963.000000	97.125301 
1962.000000	97.132168 
1961.000000	97.137720 
1960.000000	97.141361 
1959.000000	97.143324 
1958.000000	97.144759 
1957.000000	97.147056 
1956.000000	97.150746 
1955.000000	97.155312 
1954.000000	97.159806 
1953.000000	97.163687 
1952.000000	97.167041 
1951.000000	97.170154 
1950.000000	97.173222 
1949.000000	97.176428 
1948.000000	97.179959 
1947.000000	97.183790 
1946.000000	97.187575 
1945.000000	97.190907 
1944.000000	97.193671 
1943.000000	97.196071 
1942.000000	97.198520 
1941.000000	97.201363 
1940.000000	97.204642 
1939.000000	97.208153 
1938.000000	97.211588 
1937.000000	97.214785 
1936.000000	97.217785 
1935.000000	97.220673 
1934.000000	97.223472 
1933.000000	97.226255 
1932.000000	97.229242 
1931.000000	97.232618 
1930.000000	97.236254 
1929.000000	97.239698 
1928.000000	97.242675 
1927.000000	97.245265 
1926.000000	97.247531 
1925.000000	97.249349 
1924.000000	97.250774 
1923.000000	97.252278 
1922.000000	97.254246 
1921.000000	97.256497 
1920.000000	97.258639 
1919.000000	97.260635 
1918.000000	97.262678 
1917.000000	97.264630 
1916.000000	97.266136 
1915.000000	97.267293 
1914.000000	97.268572 
1913.000000	97.270227 
1912.000000	97.272077 
1911.000000	97.273933 
1910.000000	97.275834 
1909.000000	97.277771 
1908.000000	97.279604 
1907.000000	97.281232 
1906.000000	97.282660 
1905.000000	97.283888 
1904.000000	97.284936 
1903.000000	97.286024 
1902.000000	97.287309 
1901.000000	97.288560 
1900.000000	97.289501 
1899.000000	97.290247 
1898.000000	97.291129 
1897.000000	97.292233 
1896.000000	97.293349 
1895.000000	97.294287 
1894.000000	97.295015 
1893.000000	97.295618 
1892.000000	97.296204 
1891.000000	97.296839 
1890.000000	97.297513 
1889.000000	97.298178 
1888.000000	97.298813 
1887.000000	97.299439 
1886.000000	97.300075 
1885.000000	97.300730 
1884.000000	97.301401 
1883.000000	97.302098 
1882.000000	97.302839 
1881.000000	97.303634 
1880.000000	97.304477 
1879.000000	97.305354 
1878.000000	97.306247 
1877.000000	97.307146 
1876.000000	97.308052 
1875.000000	97.308992 
1874.000000	97.309998 
1873.000000	97.311082 
1872.000000	97.312204 
1871.000000	97.313305 
1870.000000	97.314346 
1869.000000	97.315316 
1868.000000	97.316240 
1867.000000	97.317176 
1866.000000	97.318121 
1865.000000	97.318958 
1864.000000	97.319616 
1863.000000	97.320313 
1862.000000	97.321388 
1861.000000	97.322882 
1860.000000	97.324442 
1859.000000	97.325880 
1858.000000	97.327412 
1857.000000	97.329087 
1856.000000	97.330530 
1855.000000	97.331529 
1854.000000	97.332460 
1853.000000	97.333708 
1852.000000	97.335324 
1851.000000	97.337382 
1850.000000	97.339898 
1849.000000	97.342468 
1848.000000	97.344475 
1847.000000	97.346011 
1846.000000	97.347820 
1845.000000	97.350099 
1844.000000	97.352126 
1843.000000	97.353589 
1842.000000	97.355300 
1841.000000	97.357797 
1840.000000	97.360842 
1839.000000	97.364020 
1838.000000	97.366975 
1837.000000	97.368968 
1836.000000	97.369408 
1835.000000	97.369310 
1834.000000	97.370110 
1833.000000	97.371373 
1832.000000	97.371646 
1831.000000	97.370590 
1830.000000	97.369577 
1829.000000	97.370142 
1828.000000	97.372284 
1827.000000	97.375477 
1826.000000	97.379638 
1825.000000	97.384483 
1824.000000	97.388559 
1823.000000	97.390618 
1822.000000	97.391310 
1821.000000	97.392017 
1820.000000	97.393193 
1819.000000	97.394638 
1818.000000	97.396888 
1817.000000	97.400129 
1816.000000	97.402660 
1815.000000	97.403372 
1814.000000	97.403335 
1813.000000	97.403976 
1812.000000	97.404839 
1811.000000	97.404397 
1810.000000	97.403036 
1809.000000	97.402023 
1808.000000	97.401142 
1807.000000	97.400105 
1806.000000	97.400084 
1805.000000	97.401998 
1804.000000	97.404656 
1803.000000	97.406244 
1802.000000	97.406428 
1801.000000	97.406445 
1800.000000	97.407180 
1799.000000	97.408504 
1798.000000	97.410337 
1797.000000	97.412110 
1796.000000	97.412845 
1795.000000	97.412725 
1794.000000	97.413219 
1793.000000	97.415261 
1792.000000	97.417683 
1791.000000	97.419027 
1790.000000	97.420037 
1789.000000	97.421866 
1788.000000	97.424268 
1787.000000	97.426361 
1786.000000	97.427862 
1785.000000	97.429114 
1784.000000	97.430391 
1783.000000	97.431784 
1782.000000	97.433239 
1781.000000	97.434718 
1780.000000	97.436256 
1779.000000	97.437846 
1778.000000	97.439489 
1777.000000	97.441126 
1776.000000	97.442710 
1775.000000	97.444261 
1774.000000	97.445824 
1773.000000	97.447433 
1772.000000	97.449069 
1771.000000	97.450694 
1770.000000	97.452300 
1769.000000	97.453903 
1768.000000	97.455515 
1767.000000	97.457142 
1766.000000	97.458781 
1765.000000	97.460432 
1764.000000	97.462092 
1763.000000	97.463756 
1762.000000	97.465411 
1761.000000	97.467074 
1760.000000	97.468800 
1759.000000	97.470626 
1758.000000	97.472502 
1757.000000	97.474334 
1756.000000	97.476213 
1755.000000	97.478179 
1754.000000	97.479873 
1753.000000	97.480841 
1752.000000	97.481211 
1751.000000	97.481982 
1750.000000	97.483965 
1749.000000	97.486761 
1748.000000	97.489118 
1747.000000	97.490289 
1746.000000	97.490190 
1745.000000	97.489607 
1744.000000	97.489731 
1743.000000	97.490746 
1742.000000	97.491791 
1741.000000	97.492538 
1740.000000	97.493576 
1739.000000	97.495159 
1738.000000	97.496669 
1737.000000	97.497566 
1736.000000	97.497588 
1735.000000	97.497011 
1734.000000	97.497017 
1733.000000	97.496980 
1732.000000	97.496921 
1731.000000	97.498938 
1730.000000	97.503978 
1729.000000	97.509963 
1728.000000	97.514253 
1727.000000	97.516153 
1726.000000	97.516362 
1725.000000	97.516268 
1724.000000	97.516645 
1723.000000	97.517505 
1722.000000	97.519388 
1721.000000	97.522262 
1720.000000	97.524890 
1719.000000	97.525847 
1718.000000	97.525671 
1717.000000	97.525275 
1716.000000	97.522421 
1715.000000	97.517082 
1714.000000	97.512969 
1713.000000	97.511428 
1712.000000	97.510134 
1711.000000	97.508070 
1710.000000	97.506251 
1709.000000	97.504546 
1708.000000	97.501805 
1707.000000	97.498700 
1706.000000	97.497696 
1705.000000	97.498818 
1704.000000	97.498212 
1703.000000	97.494015 
1702.000000	97.487830 
1701.000000	97.484062 
1700.000000	97.484701 
1699.000000	97.484694 
1698.000000	97.484183 
1697.000000	97.485213 
1696.000000	97.486347 
1695.000000	97.485927 
1694.000000	97.484462 
1693.000000	97.483255 
1692.000000	97.482359 
1691.000000	97.481173 
1690.000000	97.479388 
1689.000000	97.476968 
1688.000000	97.474278 
1687.000000	97.471663 
1686.000000	97.469414 
1685.000000	97.468216 
1684.000000	97.467377 
1683.000000	97.465437 
1682.000000	97.462917 
1681.000000	97.460509 
1680.000000	97.458536 
1679.000000	97.456921 
1678.000000	97.455293 
1677.000000	97.453430 
1676.000000	97.451550 
1675.000000	97.449970 
1674.000000	97.448378 
1673.000000	97.446535 
1672.000000	97.444750 
1671.000000	97.443391 
1670.000000	97.442291 
1669.000000	97.440712 
1668.000000	97.438900 
1667.000000	97.437780 
1666.000000	97.437108 
1665.000000	97.436110 
1664.000000	97.434767 
1663.000000	97.433867 
1662.000000	97.433087 
1661.000000	97.431074 
1660.000000	97.428480 
1659.000000	97.427001 
1658.000000	97.426851 
1657.000000	97.427105 
1656.000000	97.426856 
1655.000000	97.425340 
1654.000000	97.422600 
1653.000000	97.420112 
1652.000000	97.414960 
1651.000000	97.409055 
1650.000000	97.404471 
1649.000000	97.402161 
1648.000000	97.402075 
1647.000000	97.403417 
1646.000000	97.403834 
1645.000000	97.402137 
1644.000000	97.399682 
1643.000000	97.398518 
1642.000000	97.399746 
1641.000000	97.402135 
1640.000000	97.403988 
1639.000000	97.404009 
1638.000000	97.402249 
1637.000000	97.400191 
1636.000000	97.399784 
1635.000000	97.400806 
1634.000000	97.401152 
1633.000000	97.400487 
1632.000000	97.398963 
1631.000000	97.397726 
1630.000000	97.398009 
1629.000000	97.399721 
1628.000000	97.401627 
1627.000000	97.403200 
1626.000000	97.404291 
1625.000000	97.404901 
1624.000000	97.406421 
1623.000000	97.410271 
1622.000000	97.414885 
1621.000000	97.417467 
1620.000000	97.418175 
1619.000000	97.418636 
1618.000000	97.419480 
1617.000000	97.419435 
1616.000000	97.417387 
1615.000000	97.415264 
1614.000000	97.414904 
1613.000000	97.415355 
1612.000000	97.415738 
1611.000000	97.417084 
1610.000000	97.419831 
1609.000000	97.422729 
1608.000000	97.425679 
1607.000000	97.429764 
1606.000000	97.433738 
1605.000000	97.435503 
1604.000000	97.436251 
1603.000000	97.438129 
1602.000000	97.440972 
1601.000000	97.443373 
1600.000000	97.445491 
1599.000000	97.448133 
1598.000000	97.450783 
1597.000000	97.452764 
1596.000000	97.454706 
1595.000000	97.457691 
1594.000000	97.461535 
1593.000000	97.464949 
1592.000000	97.467269 
1591.000000	97.468881 
1590.000000	97.470137 
1589.000000	97.470982 
1588.000000	97.471783 
1587.000000	97.473321 
1586.000000	97.475732 
1585.000000	97.478162 
1584.000000	97.480395 
1583.000000	97.482982 
1582.000000	97.485645 
1581.000000	97.487711 
1580.000000	97.489440 
1579.000000	97.491493 
1578.000000	97.493814 
1577.000000	97.496266 
1576.000000	97.498937 
1575.000000	97.501277 
1574.000000	97.502667 
1573.000000	97.503294 
1572.000000	97.503759 
1571.000000	97.504499 
1570.000000	97.505196 
1569.000000	97.504798 
1568.000000	97.504022 
1567.000000	97.504186 
1566.000000	97.505112 
1565.000000	97.506170 
1564.000000	97.507403 
1563.000000	97.508170 
1562.000000	97.507521 
1561.000000	97.504305 
1560.000000	97.501750 
1559.000000	97.503057 
1558.000000	97.503962 
1557.000000	97.502636 
1556.000000	97.501201 
1555.000000	97.500494 
1554.000000	97.500273 
1553.000000	97.500190 
1552.000000	97.500120 
1551.000000	97.499207 
1550.000000	97.497031 
1549.000000	97.494404 
1548.000000	97.492440 
1547.000000	97.491187 
1546.000000	97.489542 
1545.000000	97.486791 
1544.000000	97.483527 
1543.000000	97.480659 
1542.000000	97.478819 
1541.000000	97.478292 
1540.000000	97.477282 
1539.000000	97.474149 
1538.000000	97.469599 
1537.000000	97.464528 
1536.000000	97.459276 
1535.000000	97.454536 
1534.000000	97.451047 
1533.000000	97.448557 
1532.000000	97.445795 
1531.000000	97.442139 
1530.000000	97.438017 
1529.000000	97.433861 
1528.000000	97.429519 
1527.000000	97.424874 
1526.000000	97.420265 
1525.000000	97.416203 
1524.000000	97.412859 
1523.000000	97.409939 
1522.000000	97.406818 
1521.000000	97.402520 
1520.000000	97.396739 
1519.000000	97.390523 
1518.000000	97.384965 
1517.000000	97.380445 
1516.000000	97.376668 
1515.000000	97.373391 
1514.000000	97.370696 
1513.000000	97.368308 
1512.000000	97.365316 
1511.000000	97.360714 
1510.000000	97.354702 
1509.000000	97.348125 
1508.000000	97.342293 
1507.000000	97.337960 
1506.000000	97.335076 
1505.000000	97.332406 
1504.000000	97.328865 
1503.000000	97.324144 
1502.000000	97.318554 
1501.000000	97.312744 
1500.000000	97.307576 
1499.000000	97.303074 
1498.000000	97.298549 
1497.000000	97.294529 
1496.000000	97.291620 
1495.000000	97.289315 
1494.000000	97.287400 
1493.000000	97.286118 
1492.000000	97.285153 
1491.000000	97.283800 
1490.000000	97.281752 
1489.000000	97.279441 
1488.000000	97.276573 
1487.000000	97.272901 
1486.000000	97.269555 
1485.000000	97.265673 
1484.000000	97.260186 
1483.000000	97.254251 
1482.000000	97.249297 
1481.000000	97.245489 
1480.000000	97.241254 
1479.000000	97.235722 
1478.000000	97.229627 
1477.000000	97.224091 
1476.000000	97.218691 
1475.000000	97.212722 
1474.000000	97.207431 
1473.000000	97.205293 
1472.000000	97.206650 
1471.000000	97.208603 
1470.000000	97.209438 
1469.000000	97.208676 
1468.000000	97.205252 
1467.000000	97.199212 
1466.000000	97.193673 
1465.000000	97.192088 
1464.000000	97.193840 
1463.000000	97.194046 
1462.000000	97.190294 
1461.000000	97.184885 
1460.000000	97.181083 
1459.000000	97.178861 
1458.000000	97.174276 
1457.000000	97.166497 
1456.000000	97.160853 
1455.000000	97.159501 
1454.000000	97.159710 
1453.000000	97.160722 
1452.000000	97.163187 
1451.000000	97.166387 
1450.000000	97.169284 
1449.000000	97.172028 
1448.000000	97.174124 
1447.000000	97.174750 
1446.000000	97.173972 
1445.000000	97.173225 
1444.000000	97.173992 
1443.000000	97.174909 
1442.000000	97.174838 
1441.000000	97.174762 
1440.000000	97.175360 
1439.000000	97.174147 
1438.000000	97.168895 
1437.000000	97.163864 
1436.000000	97.165547 
1435.000000	97.172355 
1434.000000	97.179099 
1433.000000	97.184563 
1432.000000	97.189463 
1431.000000	97.193627 
1430.000000	97.196243 
1429.000000	97.198203 
1428.000000	97.200519 
1427.000000	97.203290 
1426.000000	97.206052 
1425.000000	97.209260 
1424.000000	97.214790 
1423.000000	97.221026 
1422.000000	97.224774 
1421.000000	97.226414 
1420.000000	97.229737 
1419.000000	97.234720 
1418.000000	97.236656 
1417.000000	97.236854 
1416.000000	97.240992 
1415.000000	97.250088 
1414.000000	97.260124 
1413.000000	97.267220 
1412.000000	97.271632 
1411.000000	97.275517 
1410.000000	97.279960 
1409.000000	97.285330 
1408.000000	97.291059 
1407.000000	97.296069 
1406.000000	97.300022 
1405.000000	97.304399 
1404.000000	97.311306 
1403.000000	97.319279 
1402.000000	97.325252 
1401.000000	97.329635 
1400.000000	97.335986 
1399.000000	97.346100 
1398.000000	97.357398 
1397.000000	97.366856 
1396.000000	97.374378 
1395.000000	97.381638 
1394.000000	97.389156 
1393.000000	97.396691 
1392.000000	97.404937 
1391.000000	97.414002 
1390.000000	97.422735 
1389.000000	97.429729 
1388.000000	97.434430 
1387.000000	97.437865 
1386.000000	97.442103 
1385.000000	97.448647 
1384.000000	97.457426 
1383.000000	97.466656 
1382.000000	97.474285 
1381.000000	97.479782 
1380.000000	97.484090 
1379.000000	97.488834 
1378.000000	97.495369 
1377.000000	97.503806 
1376.000000	97.512574 
1375.000000	97.519417 
1374.000000	97.523468 
1373.000000	97.526769 
1372.000000	97.532110 
1371.000000	97.540147 
1370.000000	97.549330 
1369.000000	97.557617 
1368.000000	97.564786 
1367.000000	97.571534 
1366.000000	97.577773 
1365.000000	97.582949 
1364.000000	97.586584 
1363.000000	97.588578 
1362.000000	97.589883 
1361.000000	97.592291 
1360.000000	97.596916 
1359.000000	97.603424 
1358.000000	97.610391 
1357.000000	97.616315 
1356.000000	97.620640 
1355.000000	97.623756 
1354.000000	97.626513 
1353.000000	97.630446 
1352.000000	97.636405 
1351.000000	97.644372 
1350.000000	97.653272 
1349.000000	97.660368 
1348.000000	97.663788 
1347.000000	97.664246 
1346.000000	97.664370 
1345.000000	97.666281 
1344.000000	97.670114 
1343.000000	97.674746 
1342.000000	97.678957 
1341.000000	97.681616 
1340.000000	97.681843 
1339.000000	97.680085 
1338.000000	97.678120 
1337.000000	97.677480 
1336.000000	97.678218 
1335.000000	97.679353 
1334.000000	97.680367 
1333.000000	97.681793 
1332.000000	97.683989 
1331.000000	97.686342 
1330.000000	97.687712 
1329.000000	97.687631 
1328.000000	97.686845 
1327.000000	97.686963 
1326.000000	97.688742 
1325.000000	97.690827 
1324.000000	97.691441 
1323.000000	97.689971 
1322.000000	97.687096 
1321.000000	97.684020 
1320.000000	97.681778 
1319.000000	97.680863 
1318.000000	97.681341 
1317.000000	97.683164 
1316.000000	97.685778 
1315.000000	97.687718 
1314.000000	97.687603 
1313.000000	97.686006 
1312.000000	97.685191 
1311.000000	97.686404 
1310.000000	97.688235 
1309.000000	97.688535 
1308.000000	97.687023 
1307.000000	97.685459 
1306.000000	97.685484 
1305.000000	97.687024 
1304.000000	97.688988 
1303.000000	97.690176 
1302.000000	97.689798 
1301.000000	97.687946 
1300.000000	97.685831 
1299.000000	97.684880 
1298.000000	97.685314 
1297.000000	97.685887 
1296.000000	97.685244 
1295.000000	97.683506 
1294.000000	97.682223 
1293.000000	97.682889 
1292.000000	97.685548 
1291.000000	97.688722 
1290.000000	97.690656 
1289.000000	97.690594 
1288.000000	97.688797 
1287.000000	97.685888 
1286.000000	97.682714 
1285.000000	97.680679 
1284.000000	97.681253 
1283.000000	97.684264 
1282.000000	97.687139 
1281.000000	97.686769 
1280.000000	97.682487 
1279.000000	97.676955 
1278.000000	97.673975 
1277.000000	97.675455 
1276.000000	97.680426 
1275.000000	97.686585 
1274.000000	97.692259 
1273.000000	97.696744 
1272.000000	97.699181 
1271.000000	97.698095 
1270.000000	97.692831 
1269.000000	97.685023 
1268.000000	97.677803 
1267.000000	97.673048 
1266.000000	97.669940 
1265.000000	97.666856 
1264.000000	97.663815 
1263.000000	97.662100 
1262.000000	97.662162 
1261.000000	97.662994 
1260.000000	97.663974 
1259.000000	97.666237 
1258.000000	97.671108 
1257.000000	97.677550 
1256.000000	97.682199 
1255.000000	97.682877 
1254.000000	97.681547 
1253.000000	97.681905 
1252.000000	97.683692 
1251.000000	97.681990 
1250.000000	97.673801 
1249.000000	97.663120 
1248.000000	97.656934 
1247.000000	97.657024 
1246.000000	97.658641 
1245.000000	97.657115 
1244.000000	97.652487 
1243.000000	97.647229 
1242.000000	97.642731 
1241.000000	97.639224 
1240.000000	97.636473 
1239.000000	97.633066 
1238.000000	97.627300 
1237.000000	97.620061 
1236.000000	97.614537 
1235.000000	97.611710 
1234.000000	97.608363 
1233.000000	97.601201 
1232.000000	97.590679 
1231.000000	97.578949 
1230.000000	97.566228 
1229.000000	97.551536 
1228.000000	97.535249 
1227.000000	97.518533 
1226.000000	97.501364 
1225.000000	97.483199 
1224.000000	97.464632 
1223.000000	97.446358 
1222.000000	97.427149 
1221.000000	97.404539 
1220.000000	97.376950 
1219.000000	97.344158 
1218.000000	97.306952 
1217.000000	97.267742 
1216.000000	97.229842 
1215.000000	97.194387 
1214.000000	97.159547 
1213.000000	97.124715 
1212.000000	97.093021 
1211.000000	97.066309 
1210.000000	97.039670 
1209.000000	97.005553 
1208.000000	96.963008 
1207.000000	96.919186 
1206.000000	96.881202 
1205.000000	96.849233 
1204.000000	96.818152 
1203.000000	96.782988 
1202.000000	96.742076 
1201.000000	96.697575 
1200.000000	96.653996 
1199.000000	96.614571 
1198.000000	96.578552 
1197.000000	96.543513 
1196.000000	96.509494 
1195.000000	96.478337 
1194.000000	96.449371 
1193.000000	96.418814 
1192.000000	96.384235 
1191.000000	96.347169 
1190.000000	96.310488 
1189.000000	96.275181 
1188.000000	96.240537 
1187.000000	96.205664 
1186.000000	96.169873 
1185.000000	96.132724 
1184.000000	96.094169 
1183.000000	96.053890 
1182.000000	96.011006 
1181.000000	95.965691 
1180.000000	95.920300 
1179.000000	95.876894 
1178.000000	95.834077 
1177.000000	95.788513 
1176.000000	95.739144 
1175.000000	95.687676 
1174.000000	95.635618 
1173.000000	95.583697 
1172.000000	95.533716 
1171.000000	95.487082 
1170.000000	95.440936 
1169.000000	95.389624 
1168.000000	95.331564 
1167.000000	95.272057 
1166.000000	95.218605 
1165.000000	95.176712 
1164.000000	95.150832 
1163.000000	95.144563 
1162.000000	95.156618 
1161.000000	95.178746 
1160.000000	95.200020 
1159.000000	95.212283 
1158.000000	95.211240 
1157.000000	95.195443 
1156.000000	95.166153 
1155.000000	95.126529 
1154.000000	95.079545 
1153.000000	95.027862 
1152.000000	94.975693 
1151.000000	94.927744 
1150.000000	94.884867 
1149.000000	94.843244 
1148.000000	94.799242 
1147.000000	94.752695 
1146.000000	94.704483 
1145.000000	94.653977 
1144.000000	94.600828 
1143.000000	94.546898 
1142.000000	94.494165 
1141.000000	94.442366 
1140.000000	94.390259 
1139.000000	94.337432 
1138.000000	94.283718 
1137.000000	94.228919 
1136.000000	94.174251 
1135.000000	94.121785 
1134.000000	94.071027 
1133.000000	94.018161 
1132.000000	93.959893 
1131.000000	93.896050 
1130.000000	93.827763 
1129.000000	93.755785 
1128.000000	93.681940 
1127.000000	93.609652 
1126.000000	93.541156 
1125.000000	93.475850 
1124.000000	93.412294 
1123.000000	93.349783 
1122.000000	93.287329 
1121.000000	93.223751 
1120.000000	93.159707 
1119.000000	93.097019 
1118.000000	93.035382 
1117.000000	92.972729 
1116.000000	92.909604 
1115.000000	92.850006 
1114.000000	92.796742 
1113.000000	92.748616 
1112.000000	92.702954 
1111.000000	92.658057 
1110.000000	92.612234 
1109.000000	92.563607 
1108.000000	92.511961 
1107.000000	92.458568 
1106.000000	92.404395 
1105.000000	92.350506 
1104.000000	92.298894 
1103.000000	92.249868 
1102.000000	92.199182 
1101.000000	92.142826 
1100.000000	92.082963 
1099.000000	92.025677 
1098.000000	91.974265 
1097.000000	91.927825 
1096.000000	91.885604 
1095.000000	91.846719 
1094.000000	91.806811 
1093.000000	91.761327 
1092.000000	91.712840 
1091.000000	91.669593 
1090.000000	91.635932 
1089.000000	91.608595 
1088.000000	91.582253 
1087.000000	91.553722 
1086.000000	91.521123 
1085.000000	91.484815 
1084.000000	91.449757 
1083.000000	91.421656 
1082.000000	91.399767 
1081.000000	91.377828 
1080.000000	91.352274 
1079.000000	91.325275 
1078.000000	91.300028 
1077.000000	91.277197 
1076.000000	91.255020 
1075.000000	91.228669 
1074.000000	91.191544 
1073.000000	91.142287 
1072.000000	91.088272 
1071.000000	91.036462 
1070.000000	90.982913 
1069.000000	90.917869 
1068.000000	90.838945 
1067.000000	90.752332 
1066.000000	90.663504 
1065.000000	90.574839 
1064.000000	90.490685 
1063.000000	90.414748 
1062.000000	90.341726 
1061.000000	90.260659 
1060.000000	90.167993 
1059.000000	90.069765 
1058.000000	89.970575 
1057.000000	89.868886 
1056.000000	89.764299 
1055.000000	89.660324 
1054.000000	89.557144 
1053.000000	89.449572 
1052.000000	89.335542 
1051.000000	89.219474 
1050.000000	89.103923 
1049.000000	88.985235 
1048.000000	88.860593 
1047.000000	88.732143 
1046.000000	88.602025 
1045.000000	88.470018 
1044.000000	88.336977 
1043.000000	88.204467 
1042.000000	88.071299 
1041.000000	87.936853 
1040.000000	87.806797 
1039.000000	87.687909 
1038.000000	87.578244 
1037.000000	87.470879 
1036.000000	87.366736 
1035.000000	87.274677 
1034.000000	87.199296 
1033.000000	87.137651 
1032.000000	87.087185 
1031.000000	87.047058 
1030.000000	87.012171 
1029.000000	86.976286 
1028.000000	86.941490 
1027.000000	86.915154 
1026.000000	86.897990 
1025.000000	86.884409 
1024.000000	86.873149 
1023.000000	86.866813 
1022.000000	86.862085 
1021.000000	86.852138 
1020.000000	86.838465 
1019.000000	86.828783 
1018.000000	86.823393 
1017.000000	86.815222 
1016.000000	86.803474 
1015.000000	86.795316 
1014.000000	86.793204 
1013.000000	86.792345 
1012.000000	86.791880 
1011.000000	86.797027 
1010.000000	86.808793 
1009.000000	86.823023 
1008.000000	86.841298 
1007.000000	86.871408 
1006.000000	86.914805 
1005.000000	86.963924 
1004.000000	87.013570 
1003.000000	87.064817 
1002.000000	87.116709 
1001.000000	87.165525 
1000.000000	87.214532 
999.000000	 87.273542 
998.000000	 87.345489 
997.000000	 87.422422 
996.000000	 87.497290 
995.000000	 87.571520 
994.000000	 87.649056 
993.000000	 87.730824 
992.000000	 87.816441 
991.000000	 87.904114 
990.000000	 87.988881 
989.000000	 88.068548 
988.000000	 88.150333 
987.000000	 88.243286 
986.000000	 88.345762 
985.000000	 88.449483 
984.000000	 88.554010 
983.000000	 88.666283 
982.000000	 88.786922 
981.000000	 88.908544 
980.000000	 89.027765 
979.000000	 89.147549 
978.000000	 89.267305 
977.000000	 89.382662 
976.000000	 89.496668 
975.000000	 89.619468 
974.000000	 89.753710 
973.000000	 89.890506 
972.000000	 90.023093 
971.000000	 90.154776 
970.000000	 90.289411 
969.000000	 90.422827 
968.000000	 90.548505 
967.000000	 90.665445 
966.000000	 90.777040 
965.000000	 90.887624 
964.000000	 91.002135 
963.000000	 91.123278 
962.000000	 91.246917 
961.000000	 91.365441 
960.000000	 91.476391 
959.000000	 91.582336 
958.000000	 91.682750 
957.000000	 91.773296 
956.000000	 91.854275 
955.000000	 91.933062 
954.000000	 92.016059 
953.000000	 92.103305 
952.000000	 92.191574 
951.000000	 92.276700 
950.000000	 92.352692 
949.000000	 92.415777 
948.000000	 92.470782 
947.000000	 92.527249 
946.000000	 92.587417 
945.000000	 92.643726 
944.000000	 92.689261 
943.000000	 92.724813 
942.000000	 92.755291 
941.000000	 92.786107 
940.000000	 92.824352 
939.000000	 92.875798 
938.000000	 92.937168 
937.000000	 92.997219 
936.000000	 93.048501 
935.000000	 93.093228 
934.000000	 93.136103 
933.000000	 93.177643 
932.000000	 93.217609 
931.000000	 93.259155 
930.000000	 93.304895 
929.000000	 93.352506 
928.000000	 93.398150 
927.000000	 93.441700 
926.000000	 93.485414 
925.000000	 93.528942 
924.000000	 93.567802 
923.000000	 93.596421 
922.000000	 93.613087 
921.000000	 93.623695 
920.000000	 93.639526 
919.000000	 93.668089 
918.000000	 93.705999 
917.000000	 93.743143 
916.000000	 93.773486 
915.000000	 93.799669 
914.000000	 93.828614 
913.000000	 93.865797 
912.000000	 93.912565 
911.000000	 93.965634 
910.000000	 94.020107 
909.000000	 94.075834 
908.000000	 94.138409 
907.000000	 94.211065 
906.000000	 94.289703 
905.000000	 94.370032 
904.000000	 94.454821 
903.000000	 94.547743 
902.000000	 94.644168 
901.000000	 94.735646 
900.000000	 94.821248 
899.000000	 94.907292 
898.000000	 94.997284 
897.000000	 95.088265 
896.000000	 95.175266 
895.000000	 95.253563 
894.000000	 95.319040 
893.000000	 95.372921 
892.000000	 95.424235 
891.000000	 95.480917 
890.000000	 95.539926 
889.000000	 95.592327 
888.000000	 95.635573 
887.000000	 95.673885 
886.000000	 95.709154 
885.000000	 95.739416 
884.000000	 95.764815 
883.000000	 95.787209 
882.000000	 95.805582 
881.000000	 95.820506 
880.000000	 95.841482 
879.000000	 95.879551 
878.000000	 95.932586 
877.000000	 95.987781 
876.000000	 96.038554 
875.000000	 96.088378 
874.000000	 96.138655 
873.000000	 96.186668 
872.000000	 96.237585 
871.000000	 96.303916 
870.000000	 96.386852 
869.000000	 96.469359 
868.000000	 96.534961 
867.000000	 96.584907 
866.000000	 96.630985 
865.000000	 96.679682 
864.000000	 96.730701 
863.000000	 96.784540 
862.000000	 96.842234 
861.000000	 96.900123 
860.000000	 96.952323 
859.000000	 96.997921 
858.000000	 97.041193 
857.000000	 97.085315 
856.000000	 97.128918 
855.000000	 97.167729 
854.000000	 97.197023 
853.000000	 97.214284 
852.000000	 97.222471 
851.000000	 97.229785 
850.000000	 97.244468 
849.000000	 97.270454 
848.000000	 97.307221 
847.000000	 97.350106 
846.000000	 97.390481 
845.000000	 97.420384 
844.000000	 97.438998 
843.000000	 97.451857 
842.000000	 97.463099 
841.000000	 97.471905 
840.000000	 97.476514 
839.000000	 97.476598 
838.000000	 97.470878 
837.000000	 97.458448 
836.000000	 97.444778 
835.000000	 97.440300 
834.000000	 97.448634 
833.000000	 97.460816 
832.000000	 97.465594 
831.000000	 97.461536 
830.000000	 97.454895 
829.000000	 97.449768 
828.000000	 97.446483 
827.000000	 97.447041 
826.000000	 97.454855 
825.000000	 97.469156 
824.000000	 97.485318 
823.000000	 97.500861 
822.000000	 97.516807 
821.000000	 97.533767 
820.000000	 97.550661 
819.000000	 97.565969 
818.000000	 97.575835 
817.000000	 97.571915 
816.000000	 97.546500 
815.000000	 97.501987 
814.000000	 97.451590 
813.000000	 97.406091 
812.000000	 97.359894 
811.000000	 97.293005 
810.000000	 97.187490 
809.000000	 97.040754 
808.000000	 96.863591 
807.000000	 96.669425 
806.000000	 96.468156 
805.000000	 96.267689 
804.000000	 96.075708 
803.000000	 95.897432 
802.000000	 95.735243 
801.000000	 95.594333 
800.000000	 95.486001 
799.000000	 95.420472 
798.000000	 95.397416 
797.000000	 95.407217 
796.000000	 95.439179 
795.000000	 95.484010 
794.000000	 95.532312 
793.000000	 95.578203 
792.000000	 95.622704 
791.000000	 95.667157 
790.000000	 95.705047 
789.000000	 95.726351 
788.000000	 95.727604 
787.000000	 95.711085 
786.000000	 95.676728 
785.000000	 95.622632 
784.000000	 95.552487 
783.000000	 95.474892 
782.000000	 95.396039 
781.000000	 95.320862 
780.000000	 95.260103 
779.000000	 95.226286 
778.000000	 95.221893 
777.000000	 95.240674 
776.000000	 95.281061 
775.000000	 95.347190 
774.000000	 95.434189 
773.000000	 95.524235 
772.000000	 95.603108 
771.000000	 95.672105 
770.000000	 95.738159 
769.000000	 95.800121 
768.000000	 95.850895 
767.000000	 95.886969 
766.000000	 95.910080 
765.000000	 95.924487 
764.000000	 95.937901 
763.000000	 95.960259 
762.000000	 95.995200 
761.000000	 96.035346 
760.000000	 96.070538 
759.000000	 96.098252 
758.000000	 96.122854 
757.000000	 96.149045 
756.000000	 96.181006 
755.000000	 96.224196 
754.000000	 96.280563 
753.000000	 96.341634 
752.000000	 96.391549 
751.000000	 96.419526 
750.000000	 96.428795 
749.000000	 96.433656 
748.000000	 96.447921 
747.000000	 96.474648 
746.000000	 96.506216 
745.000000	 96.535015 
744.000000	 96.563663 
743.000000	 96.602748 
742.000000	 96.658039 
741.000000	 96.722336 
740.000000	 96.781555 
739.000000	 96.827795 
738.000000	 96.864975 
737.000000	 96.901768 
736.000000	 96.940030 
735.000000	 96.972369 
734.000000	 96.992198 
733.000000	 97.003658 
732.000000	 97.017438 
731.000000	 97.036695 
730.000000	 97.052007 
729.000000	 97.051999 
728.000000	 97.037282 
727.000000	 97.019807 
726.000000	 97.010323 
725.000000	 97.014045 
724.000000	 97.033900 
723.000000	 97.067546 
722.000000	 97.103102 
721.000000	 97.128641 
720.000000	 97.147043 
719.000000	 97.170362 
718.000000	 97.200197 
717.000000	 97.227348 
716.000000	 97.248252 
715.000000	 97.268502 
714.000000	 97.289055 
713.000000	 97.301411 
712.000000	 97.304469 
711.000000	 97.309839 
710.000000	 97.323968 
709.000000	 97.343165 
708.000000	 97.358963 
707.000000	 97.369810 
706.000000	 97.376226 
705.000000	 97.372798 
704.000000	 97.356041 
703.000000	 97.330720 
702.000000	 97.302590 
701.000000	 97.269409 
700.000000	 97.224744 
699.000000	 97.169513 
698.000000	 97.111359 
697.000000	 97.057458 
696.000000	 97.014520 
695.000000	 96.990350 
694.000000	 96.991732 
693.000000	 97.018119 
692.000000	 97.060192 
691.000000	 97.107702 
690.000000	 97.154346 
689.000000	 97.197471 
688.000000	 97.235470 
687.000000	 97.264692 
686.000000	 97.281417 
685.000000	 97.285953 
684.000000	 97.283414 
683.000000	 97.280951 
682.000000	 97.283068 
681.000000	 97.291428 
680.000000	 97.306308 
679.000000	 97.327549 
678.000000	 97.351419 
677.000000	 97.372419 
676.000000	 97.395257 
675.000000	 97.427502 
674.000000	 97.464459 
673.000000	 97.495125 
672.000000	 97.522441 
671.000000	 97.573675 
670.000000	 97.676138 
669.000000	 97.818190 
668.000000	 97.894301 
667.000000	 97.828919 
666.000000	 97.704738 
665.000000	 97.615668 
664.000000	 97.570145 
663.000000	 97.557996 
662.000000	 97.571610 
661.000000	 97.599579 
660.000000	 97.629660 
659.000000	 97.656154 
658.000000	 97.676771 
657.000000	 97.685384 
656.000000	 97.681900 
655.000000	 97.674354 
654.000000	 97.668695 
653.000000	 97.663852 
652.000000	 97.659631 
651.000000	 97.660458 
650.000000	 97.667570 

