4000.000000	97.045015 
3999.000000	97.044649 
3998.000000	97.044029 
3997.000000	97.043151 
3996.000000	97.042166 
3995.000000	97.041466 
3994.000000	97.041423 
3993.000000	97.041999 
3992.000000	97.042748 
3991.000000	97.043173 
3990.000000	97.043190 
3989.000000	97.043109 
3988.000000	97.043216 
3987.000000	97.043553 
3986.000000	97.044019 
3985.000000	97.044497 
3984.000000	97.044812 
3983.000000	97.044743 
3982.000000	97.044306 
3981.000000	97.043803 
3980.000000	97.043502 
3979.000000	97.043358 
3978.000000	97.043181 
3977.000000	97.042973 
3976.000000	97.042908 
3975.000000	97.043022 
3974.000000	97.043110 
3973.000000	97.042951 
3972.000000	97.042481 
3971.000000	97.041754 
3970.000000	97.040886 
3969.000000	97.040069 
3968.000000	97.039500 
3967.000000	97.039245 
3966.000000	97.039185 
3965.000000	97.039079 
3964.000000	97.038692 
3963.000000	97.037952 
3962.000000	97.037004 
3961.000000	97.036132 
3960.000000	97.035504 
3959.000000	97.035086 
3958.000000	97.034755 
3957.000000	97.034437 
3956.000000	97.034104 
3955.000000	97.033715 
3954.000000	97.033238 
3953.000000	97.032688 
3952.000000	97.032113 
3951.000000	97.031539 
3950.000000	97.030960 
3949.000000	97.030380 
3948.000000	97.029850 
3947.000000	97.029446 
3946.000000	97.029186 
3945.000000	97.028938 
3944.000000	97.028460 
3943.000000	97.027629 
3942.000000	97.026654 
3941.000000	97.025943 
3940.000000	97.025677 
3939.000000	97.025644 
3938.000000	97.025496 
3937.000000	97.025191 
3936.000000	97.024825 
3935.000000	97.024155 
3934.000000	97.022755 
3933.000000	97.020696 
3932.000000	97.018801 
3931.000000	97.017682 
3930.000000	97.017239 
3929.000000	97.017424 
3928.000000	97.018565 
3927.000000	97.020540 
3926.000000	97.022018 
3925.000000	97.021775 
3924.000000	97.020235 
3923.000000	97.018615 
3922.000000	97.017159 
3921.000000	97.015570 
3920.000000	97.014217 
3919.000000	97.013847 
3918.000000	97.014153 
3917.000000	97.014119 
3916.000000	97.013561 
3915.000000	97.013220 
3914.000000	97.013334 
3913.000000	97.013452 
3912.000000	97.013258 
3911.000000	97.012994 
3910.000000	97.012654 
3909.000000	97.011992 
3908.000000	97.010926 
3907.000000	97.009610 
3906.000000	97.008011 
3905.000000	97.005998 
3904.000000	97.003898 
3903.000000	97.002305 
3902.000000	97.001385 
3901.000000	97.000848 
3900.000000	97.000372 
3899.000000	96.999845 
3898.000000	96.999235 
3897.000000	96.998518 
3896.000000	96.997746 
3895.000000	96.996961 
3894.000000	96.996168 
3893.000000	96.995371 
3892.000000	96.994568 
3891.000000	96.993753 
3890.000000	96.992926 
3889.000000	96.992095 
3888.000000	96.991267 
3887.000000	96.990438 
3886.000000	96.989605 
3885.000000	96.988774 
3884.000000	96.987948 
3883.000000	96.987122 
3882.000000	96.986290 
3881.000000	96.985460 
3880.000000	96.984653 
3879.000000	96.983885 
3878.000000	96.983149 
3877.000000	96.982425 
3876.000000	96.981695 
3875.000000	96.980957 
3874.000000	96.980218 
3873.000000	96.979491 
3872.000000	96.978775 
3871.000000	96.978067 
3870.000000	96.977379 
3869.000000	96.976738 
3868.000000	96.976162 
3867.000000	96.975636 
3866.000000	96.975142 
3865.000000	96.974679 
3864.000000	96.974261 
3863.000000	96.973880 
3862.000000	96.973512 
3861.000000	96.973138 
3860.000000	96.972755 
3859.000000	96.972368 
3858.000000	96.971978 
3857.000000	96.971594 
3856.000000	96.971228 
3855.000000	96.970884 
3854.000000	96.970560 
3853.000000	96.970266 
3852.000000	96.970011 
3851.000000	96.969791 
3850.000000	96.969600 
3849.000000	96.969435 
3848.000000	96.969295 
3847.000000	96.969173 
3846.000000	96.969053 
3845.000000	96.968921 
3844.000000	96.968770 
3843.000000	96.968606 
3842.000000	96.968444 
3841.000000	96.968307 
3840.000000	96.968208 
3839.000000	96.968146 
3838.000000	96.968111 
3837.000000	96.968089 
3836.000000	96.968077 
3835.000000	96.968081 
3834.000000	96.968111 
3833.000000	96.968177 
3832.000000	96.968282 
3831.000000	96.968426 
3830.000000	96.968604 
3829.000000	96.968811 
3828.000000	96.969037 
3827.000000	96.969267 
3826.000000	96.969486 
3825.000000	96.969693 
3824.000000	96.969896 
3823.000000	96.970098 
3822.000000	96.970293 
3821.000000	96.970489 
3820.000000	96.970709 
3819.000000	96.970974 
3818.000000	96.971279 
3817.000000	96.971607 
3816.000000	96.971950 
3815.000000	96.972303 
3814.000000	96.972650 
3813.000000	96.972966 
3812.000000	96.973243 
3811.000000	96.973497 
3810.000000	96.973748 
3809.000000	96.973997 
3808.000000	96.974228 
3807.000000	96.974428 
3806.000000	96.974606 
3805.000000	96.974784 
3804.000000	96.974980 
3803.000000	96.975203 
3802.000000	96.975459 
3801.000000	96.975758 
3800.000000	96.976096 
3799.000000	96.976443 
3798.000000	96.976773 
3797.000000	96.977080 
3796.000000	96.977369 
3795.000000	96.977630 
3794.000000	96.977835 
3793.000000	96.977962 
3792.000000	96.978010 
3791.000000	96.977998 
3790.000000	96.977962 
3789.000000	96.977921 
3788.000000	96.977798 
3787.000000	96.977537 
3786.000000	96.977155 
3785.000000	96.976621 
3784.000000	96.975929 
3783.000000	96.975280 
3782.000000	96.974738 
3781.000000	96.974015 
3780.000000	96.972961 
3779.000000	96.972166 
3778.000000	96.972240 
3777.000000	96.972858 
3776.000000	96.972887 
3775.000000	96.971692 
3774.000000	96.969824 
3773.000000	96.968317 
3772.000000	96.967195 
3771.000000	96.965720 
3770.000000	96.964163 
3769.000000	96.963701 
3768.000000	96.964154 
3767.000000	96.963789 
3766.000000	96.961508 
3765.000000	96.958432 
3764.000000	96.956918 
3763.000000	96.957677 
3762.000000	96.958761 
3761.000000	96.958078 
3760.000000	96.956046 
3759.000000	96.954495 
3758.000000	96.952904 
3757.000000	96.949844 
3756.000000	96.945987 
3755.000000	96.942623 
3754.000000	96.939089 
3753.000000	96.933963 
3752.000000	96.929227 
3751.000000	96.928119 
3750.000000	96.928649 
3749.000000	96.926960 
3748.000000	96.925033 
3747.000000	96.926762 
3746.000000	96.929986 
3745.000000	96.929621 
3744.000000	96.929181 
3743.000000	96.932802 
3742.000000	96.935774 
3741.000000	96.933198 
3740.000000	96.926917 
3739.000000	96.923822 
3738.000000	96.926229 
3737.000000	96.928120 
3736.000000	96.924952 
3735.000000	96.921456 
3734.000000	96.923415 
3733.000000	96.928460 
3732.000000	96.931915 
3731.000000	96.933927 
3730.000000	96.936703 
3729.000000	96.939627 
3728.000000	96.939541 
3727.000000	96.935400 
3726.000000	96.930916 
3725.000000	96.929340 
3724.000000	96.929560 
3723.000000	96.929861 
3722.000000	96.931078 
3721.000000	96.933769 
3720.000000	96.935767 
3719.000000	96.935272 
3718.000000	96.932095 
3717.000000	96.927943 
3716.000000	96.925008 
3715.000000	96.922740 
3714.000000	96.918601 
3713.000000	96.912102 
3712.000000	96.906439 
3711.000000	96.904440 
3710.000000	96.904422 
3709.000000	96.903508 
3708.000000	96.900308 
3707.000000	96.894756 
3706.000000	96.888169 
3705.000000	96.882269 
3704.000000	96.877828 
3703.000000	96.874185 
3702.000000	96.869831 
3701.000000	96.863532 
3700.000000	96.855383 
3699.000000	96.846758 
3698.000000	96.838456 
3697.000000	96.830636 
3696.000000	96.824868 
3695.000000	96.821859 
3694.000000	96.818981 
3693.000000	96.813618 
3692.000000	96.806511 
3691.000000	96.800240 
3690.000000	96.795275 
3689.000000	96.791194 
3688.000000	96.788411 
3687.000000	96.786848 
3686.000000	96.784949 
3685.000000	96.780559 
3684.000000	96.773749 
3683.000000	96.767549 
3682.000000	96.763774 
3681.000000	96.759403 
3680.000000	96.751089 
3679.000000	96.740281 
3678.000000	96.731024 
3677.000000	96.722623 
3676.000000	96.712528 
3675.000000	96.703878 
3674.000000	96.699466 
3673.000000	96.697318 
3672.000000	96.693573 
3671.000000	96.686329 
3670.000000	96.678978 
3669.000000	96.675475 
3668.000000	96.673406 
3667.000000	96.668902 
3666.000000	96.662587 
3665.000000	96.657197 
3664.000000	96.653741 
3663.000000	96.650733 
3662.000000	96.645746 
3661.000000	96.637825 
3660.000000	96.628717 
3659.000000	96.620484 
3658.000000	96.613045 
3657.000000	96.603881 
3656.000000	96.592767 
3655.000000	96.582706 
3654.000000	96.575500 
3653.000000	96.569496 
3652.000000	96.560443 
3651.000000	96.546111 
3650.000000	96.530903 
3649.000000	96.520816 
3648.000000	96.516112 
3647.000000	96.514887 
3646.000000	96.516781 
3645.000000	96.520755 
3644.000000	96.524036 
3643.000000	96.524813 
3642.000000	96.523587 
3641.000000	96.521785 
3640.000000	96.518801 
3639.000000	96.512542 
3638.000000	96.503736 
3637.000000	96.495751 
3636.000000	96.489615 
3635.000000	96.481428 
3634.000000	96.468624 
3633.000000	96.454959 
3632.000000	96.445715 
3631.000000	96.439031 
3630.000000	96.427425 
3629.000000	96.413528 
3628.000000	96.407724 
3627.000000	96.408886 
3626.000000	96.409029 
3625.000000	96.406421 
3624.000000	96.404899 
3623.000000	96.407544 
3622.000000	96.411696 
3621.000000	96.410482 
3620.000000	96.400696 
3619.000000	96.386934 
3618.000000	96.375268 
3617.000000	96.368051 
3616.000000	96.365824 
3615.000000	96.367323 
3614.000000	96.370379 
3613.000000	96.374488 
3612.000000	96.379654 
3611.000000	96.383459 
3610.000000	96.382791 
3609.000000	96.378387 
3608.000000	96.375107 
3607.000000	96.376214 
3606.000000	96.380073 
3605.000000	96.384592 
3604.000000	96.390400 
3603.000000	96.398213 
3602.000000	96.405981 
3601.000000	96.409801 
3600.000000	96.408582 
3599.000000	96.404263 
3598.000000	96.399235 
3597.000000	96.395112 
3596.000000	96.393169 
3595.000000	96.392535 
3594.000000	96.391342 
3593.000000	96.389016 
3592.000000	96.386899 
3591.000000	96.386475 
3590.000000	96.386301 
3589.000000	96.382642 
3588.000000	96.375092 
3587.000000	96.368825 
3586.000000	96.368068 
3585.000000	96.372110 
3584.000000	96.378452 
3583.000000	96.385202 
3582.000000	96.391058 
3581.000000	96.394342 
3580.000000	96.393809 
3579.000000	96.389628 
3578.000000	96.383413 
3577.000000	96.377248 
3576.000000	96.372395 
3575.000000	96.368884 
3574.000000	96.365861 
3573.000000	96.362741 
3572.000000	96.359422 
3571.000000	96.356063 
3570.000000	96.351956 
3569.000000	96.345321 
3568.000000	96.336148 
3567.000000	96.328436 
3566.000000	96.325857 
3565.000000	96.327489 
3564.000000	96.329775 
3563.000000	96.329992 
3562.000000	96.327531 
3561.000000	96.323437 
3560.000000	96.319272 
3559.000000	96.316197 
3558.000000	96.314574 
3557.000000	96.314308 
3556.000000	96.315100 
3555.000000	96.316344 
3554.000000	96.316947 
3553.000000	96.315996 
3552.000000	96.313573 
3551.000000	96.310351 
3550.000000	96.306741 
3549.000000	96.302884 
3548.000000	96.299132 
3547.000000	96.295826 
3546.000000	96.292628 
3545.000000	96.289010 
3544.000000	96.285662 
3543.000000	96.284242 
3542.000000	96.285329 
3541.000000	96.287796 
3540.000000	96.289984 
3539.000000	96.290821 
3538.000000	96.289927 
3537.000000	96.287537 
3536.000000	96.284711 
3535.000000	96.282538 
3534.000000	96.281202 
3533.000000	96.279998 
3532.000000	96.278531 
3531.000000	96.277123 
3530.000000	96.275801 
3529.000000	96.273682 
3528.000000	96.270055 
3527.000000	96.265627 
3526.000000	96.261824 
3525.000000	96.259318 
3524.000000	96.258077 
3523.000000	96.258337 
3522.000000	96.260334 
3521.000000	96.263501 
3520.000000	96.266529 
3519.000000	96.268322 
3518.000000	96.268657 
3517.000000	96.267624 
3516.000000	96.265081 
3515.000000	96.261041 
3514.000000	96.256533 
3513.000000	96.253143 
3512.000000	96.251396 
3511.000000	96.250162 
3510.000000	96.248034 
3509.000000	96.245104 
3508.000000	96.242938 
3507.000000	96.242808 
3506.000000	96.244286 
3505.000000	96.245535 
3504.000000	96.245039 
3503.000000	96.242916 
3502.000000	96.240557 
3501.000000	96.239258 
3500.000000	96.239298 
3499.000000	96.240001 
3498.000000	96.240428 
3497.000000	96.240181 
3496.000000	96.239503 
3495.000000	96.238710 
3494.000000	96.237787 
3493.000000	96.236561 
3492.000000	96.234914 
3491.000000	96.232770 
3490.000000	96.230242 
3489.000000	96.227659 
3488.000000	96.225162 
3487.000000	96.222338 
3486.000000	96.218772 
3485.000000	96.215036 
3484.000000	96.212503 
3483.000000	96.211767 
3482.000000	96.211759 
3481.000000	96.210843 
3480.000000	96.208416 
3479.000000	96.204940 
3478.000000	96.200796 
3477.000000	96.195967 
3476.000000	96.190840 
3475.000000	96.186592 
3474.000000	96.184233 
3473.000000	96.183670 
3472.000000	96.183847 
3471.000000	96.183593 
3470.000000	96.182295 
3469.000000	96.180020 
3468.000000	96.177320 
3467.000000	96.174993 
3466.000000	96.173626 
3465.000000	96.172918 
3464.000000	96.171568 
3463.000000	96.168216 
3462.000000	96.162617 
3461.000000	96.155814 
3460.000000	96.149175 
3459.000000	96.143229 
3458.000000	96.137541 
3457.000000	96.131497 
3456.000000	96.125316 
3455.000000	96.120337 
3454.000000	96.118114 
3453.000000	96.118825 
3452.000000	96.120896 
3451.000000	96.122192 
3450.000000	96.121543 
3449.000000	96.119083 
3448.000000	96.115596 
3447.000000	96.111957 
3446.000000	96.108606 
3445.000000	96.105271 
3444.000000	96.101319 
3443.000000	96.096610 
3442.000000	96.092002 
3441.000000	96.088711 
3440.000000	96.087141 
3439.000000	96.086475 
3438.000000	96.085438 
3437.000000	96.083330 
3436.000000	96.080552 
3435.000000	96.078231 
3434.000000	96.077329 
3433.000000	96.077787 
3432.000000	96.078682 
3431.000000	96.079183 
3430.000000	96.079104 
3429.000000	96.078679 
3428.000000	96.077904 
3427.000000	96.076390 
3426.000000	96.073983 
3425.000000	96.071395 
3424.000000	96.069655 
3423.000000	96.068775 
3422.000000	96.067463 
3421.000000	96.064644 
3420.000000	96.060911 
3419.000000	96.057933 
3418.000000	96.056569 
3417.000000	96.056299 
3416.000000	96.056337 
3415.000000	96.056536 
3414.000000	96.056899 
3413.000000	96.056906 
3412.000000	96.055963 
3411.000000	96.054251 
3410.000000	96.052649 
3409.000000	96.051881 
3408.000000	96.051994 
3407.000000	96.052574 
3406.000000	96.053154 
3405.000000	96.053388 
3404.000000	96.053110 
3403.000000	96.052389 
3402.000000	96.051514 
3401.000000	96.050758 
3400.000000	96.050162 
3399.000000	96.049597 
3398.000000	96.049021 
3397.000000	96.048564 
3396.000000	96.048365 
3395.000000	96.048481 
3394.000000	96.048964 
3393.000000	96.049818 
3392.000000	96.050719 
3391.000000	96.051045 
3390.000000	96.050494 
3389.000000	96.049602 
3388.000000	96.049391 
3387.000000	96.050360 
3386.000000	96.052062 
3385.000000	96.053507 
3384.000000	96.053918 
3383.000000	96.053149 
3382.000000	96.051896 
3381.000000	96.051471 
3380.000000	96.052722 
3379.000000	96.055133 
3378.000000	96.057211 
3377.000000	96.058308 
3376.000000	96.059357 
3375.000000	96.061418 
3374.000000	96.064170 
3373.000000	96.066413 
3372.000000	96.067710 
3371.000000	96.068805 
3370.000000	96.070455 
3369.000000	96.072521 
3368.000000	96.074440 
3367.000000	96.075987 
3366.000000	96.077235 
3365.000000	96.078163 
3364.000000	96.078764 
3363.000000	96.079300 
3362.000000	96.080084 
3361.000000	96.081134 
3360.000000	96.082328 
3359.000000	96.083743 
3358.000000	96.085478 
3357.000000	96.087254 
3356.000000	96.088656 
3355.000000	96.089854 
3354.000000	96.091711 
3353.000000	96.094985 
3352.000000	96.099586 
3351.000000	96.104605 
3350.000000	96.108916 
3349.000000	96.111791 
3348.000000	96.113269 
3347.000000	96.114295 
3346.000000	96.116203 
3345.000000	96.119506 
3344.000000	96.123219 
3343.000000	96.125739 
3342.000000	96.126481 
3341.000000	96.126435 
3340.000000	96.127028 
3339.000000	96.128587 
3338.000000	96.130312 
3337.000000	96.131401 
3336.000000	96.131847 
3335.000000	96.132359 
3334.000000	96.133801 
3333.000000	96.136616 
3332.000000	96.140490 
3331.000000	96.144438 
3330.000000	96.147576 
3329.000000	96.149834 
3328.000000	96.151822 
3327.000000	96.154085 
3326.000000	96.156680 
3325.000000	96.159306 
3324.000000	96.161496 
3323.000000	96.162734 
3322.000000	96.162873 
3321.000000	96.162598 
3320.000000	96.163075 
3319.000000	96.164897 
3318.000000	96.167654 
3317.000000	96.170636 
3316.000000	96.173665 
3315.000000	96.176984 
3314.000000	96.180610 
3313.000000	96.184232 
3312.000000	96.187583 
3311.000000	96.190576 
3310.000000	96.193143 
3309.000000	96.195277 
3308.000000	96.197150 
3307.000000	96.198861 
3306.000000	96.200128 
3305.000000	96.200634 
3304.000000	96.200728 
3303.000000	96.201388 
3302.000000	96.203267 
3301.000000	96.206026 
3300.000000	96.208734 
3299.000000	96.210719 
3298.000000	96.211895 
3297.000000	96.212484 
3296.000000	96.212846 
3295.000000	96.213537 
3294.000000	96.215146 
3293.000000	96.217890 
3292.000000	96.221430 
3291.000000	96.225111 
3290.000000	96.228326 
3289.000000	96.230713 
3288.000000	96.232277 
3287.000000	96.233477 
3286.000000	96.234947 
3285.000000	96.236849 
3284.000000	96.238726 
3283.000000	96.240159 
3282.000000	96.241367 
3281.000000	96.242894 
3280.000000	96.244849 
3279.000000	96.246853 
3278.000000	96.248684 
3277.000000	96.250546 
3276.000000	96.252598 
3275.000000	96.254677 
3274.000000	96.256657 
3273.000000	96.258740 
3272.000000	96.261132 
3271.000000	96.263699 
3270.000000	96.266121 
3269.000000	96.268246 
3268.000000	96.270161 
3267.000000	96.272027 
3266.000000	96.273987 
3265.000000	96.276126 
3264.000000	96.278431 
3263.000000	96.280770 
3262.000000	96.282979 
3261.000000	96.285024 
3260.000000	96.286996 
3259.000000	96.288977 
3258.000000	96.290979 
3257.000000	96.293014 
3256.000000	96.295121 
3255.000000	96.297294 
3254.000000	96.299466 
3253.000000	96.301579 
3252.000000	96.303650 
3251.000000	96.305730 
3250.000000	96.307843 
3249.000000	96.309960 
3248.000000	96.312046 
3247.000000	96.314098 
3246.000000	96.316149 
3245.000000	96.318231 
3244.000000	96.320347 
3243.000000	96.322471 
3242.000000	96.324575 
3241.000000	96.326653 
3240.000000	96.328725 
3239.000000	96.330828 
3238.000000	96.332983 
3237.000000	96.335182 
3236.000000	96.337386 
3235.000000	96.339546 
3234.000000	96.341632 
3233.000000	96.343637 
3232.000000	96.345574 
3231.000000	96.347475 
3230.000000	96.349388 
3229.000000	96.351366 
3228.000000	96.353430 
3227.000000	96.355552 
3226.000000	96.357720 
3225.000000	96.359941 
3224.000000	96.362168 
3223.000000	96.364287 
3222.000000	96.366245 
3221.000000	96.368125 
3220.000000	96.370071 
3219.000000	96.372122 
3218.000000	96.374213 
3217.000000	96.376275 
3216.000000	96.378299 
3215.000000	96.380309 
3214.000000	96.382327 
3213.000000	96.384367 
3212.000000	96.386426 
3211.000000	96.388471 
3210.000000	96.390470 
3209.000000	96.392434 
3208.000000	96.394407 
3207.000000	96.396421 
3206.000000	96.398465 
3205.000000	96.400523 
3204.000000	96.402599 
3203.000000	96.404705 
3202.000000	96.406835 
3201.000000	96.408965 
3200.000000	96.411079 
3199.000000	96.413189 
3198.000000	96.415318 
3197.000000	96.417476 
3196.000000	96.419655 
3195.000000	96.421848 
3194.000000	96.424054 
3193.000000	96.426285 
3192.000000	96.428547 
3191.000000	96.430836 
3190.000000	96.433140 
3189.000000	96.435447 
3188.000000	96.437753 
3187.000000	96.440061 
3186.000000	96.442380 
3185.000000	96.444713 
3184.000000	96.447056 
3183.000000	96.449399 
3182.000000	96.451732 
3181.000000	96.454054 
3180.000000	96.456372 
3179.000000	96.458696 
3178.000000	96.461032 
3177.000000	96.463381 
3176.000000	96.465740 
3175.000000	96.468101 
3174.000000	96.470455 
3173.000000	96.472796 
3172.000000	96.475122 
3171.000000	96.477429 
3170.000000	96.479717 
3169.000000	96.481990 
3168.000000	96.484256 
3167.000000	96.486522 
3166.000000	96.488792 
3165.000000	96.491063 
3164.000000	96.493329 
3163.000000	96.495581 
3162.000000	96.497814 
3161.000000	96.500026 
3160.000000	96.502223 
3159.000000	96.504413 
3158.000000	96.506603 
3157.000000	96.508794 
3156.000000	96.510981 
3155.000000	96.513147 
3154.000000	96.515273 
3153.000000	96.517350 
3152.000000	96.519390 
3151.000000	96.521404 
3150.000000	96.523390 
3149.000000	96.525347 
3148.000000	96.527282 
3147.000000	96.529205 
3146.000000	96.531124 
3145.000000	96.533044 
3144.000000	96.534959 
3143.000000	96.536857 
3142.000000	96.538727 
3141.000000	96.540567 
3140.000000	96.542384 
3139.000000	96.544191 
3138.000000	96.545997 
3137.000000	96.547802 
3136.000000	96.549599 
3135.000000	96.551379 
3134.000000	96.553139 
3133.000000	96.554887 
3132.000000	96.556634 
3131.000000	96.558389 
3130.000000	96.560154 
3129.000000	96.561925 
3128.000000	96.563701 
3127.000000	96.565481 
3126.000000	96.567266 
3125.000000	96.569053 
3124.000000	96.570832 
3123.000000	96.572596 
3122.000000	96.574338 
3121.000000	96.576061 
3120.000000	96.577770 
3119.000000	96.579474 
3118.000000	96.581174 
3117.000000	96.582869 
3116.000000	96.584556 
3115.000000	96.586230 
3114.000000	96.587888 
3113.000000	96.589533 
3112.000000	96.591176 
3111.000000	96.592826 
3110.000000	96.594484 
3109.000000	96.596144 
3108.000000	96.597801 
3107.000000	96.599454 
3106.000000	96.601102 
3105.000000	96.602750 
3104.000000	96.604398 
3103.000000	96.606020 
3102.000000	96.607558 
3101.000000	96.608968 
3100.000000	96.610268 
3099.000000	96.611552 
3098.000000	96.612934 
3097.000000	96.614499 
3096.000000	96.616278 
3095.000000	96.618168 
3094.000000	96.619951 
3093.000000	96.621450 
3092.000000	96.622719 
3091.000000	96.623986 
3090.000000	96.625378 
3089.000000	96.626789 
3088.000000	96.628019 
3087.000000	96.629022 
3086.000000	96.630063 
3085.000000	96.631506 
3084.000000	96.633368 
3083.000000	96.635194 
3082.000000	96.636493 
3081.000000	96.637254 
3080.000000	96.637907 
3079.000000	96.638773 
3078.000000	96.639897 
3077.000000	96.641484 
3076.000000	96.643817 
3075.000000	96.646425 
3074.000000	96.648075 
3073.000000	96.648179 
3072.000000	96.647686 
3071.000000	96.647964 
3070.000000	96.649298 
3069.000000	96.651065 
3068.000000	96.652724 
3067.000000	96.653943 
3066.000000	96.654276 
3065.000000	96.653594 
3064.000000	96.652461 
3063.000000	96.651411 
3062.000000	96.650241 
3061.000000	96.648587 
3060.000000	96.646732 
3059.000000	96.645376 
3058.000000	96.645245 
3057.000000	96.647189 
3056.000000	96.651400 
3055.000000	96.655650 
3054.000000	96.655934 
3053.000000	96.650648 
3052.000000	96.643466 
3051.000000	96.640250 
3050.000000	96.642901 
3049.000000	96.648001 
3048.000000	96.651198 
3047.000000	96.651064 
3046.000000	96.648318 
3045.000000	96.643892 
3044.000000	96.639287 
3043.000000	96.637092 
3042.000000	96.638886 
3041.000000	96.642776 
3040.000000	96.644575 
3039.000000	96.641820 
3038.000000	96.635801 
3037.000000	96.629637 
3036.000000	96.624995 
3035.000000	96.620853 
3034.000000	96.615125 
3033.000000	96.607106 
3032.000000	96.598487 
3031.000000	96.592237 
3030.000000	96.590136 
3029.000000	96.590822 
3028.000000	96.590150 
3027.000000	96.584081 
3026.000000	96.571947 
3025.000000	96.557210 
3024.000000	96.544746 
3023.000000	96.536923 
3022.000000	96.532406 
3021.000000	96.528409 
3020.000000	96.523447 
3019.000000	96.517826 
3018.000000	96.512133 
3017.000000	96.505905 
3016.000000	96.497753 
3015.000000	96.486729 
3014.000000	96.473805 
3013.000000	96.461775 
3012.000000	96.452949 
3011.000000	96.446799 
3010.000000	96.440503 
3009.000000	96.431686 
3008.000000	96.419810 
3007.000000	96.405313 
3006.000000	96.389051 
3005.000000	96.373004 
3004.000000	96.359861 
3003.000000	96.350735 
3002.000000	96.344399 
3001.000000	96.339495 
3000.000000	96.336020 
2999.000000	96.333325 
2998.000000	96.328439 
2997.000000	96.318712 
2996.000000	96.305292 
2995.000000	96.291723 
2994.000000	96.279179 
2993.000000	96.265240 
2992.000000	96.247703 
2991.000000	96.227958 
2990.000000	96.210087 
2989.000000	96.197904 
2988.000000	96.193112 
2987.000000	96.194681 
2986.000000	96.199312 
2985.000000	96.203911 
2984.000000	96.208354 
2983.000000	96.214802 
2982.000000	96.223835 
2981.000000	96.232348 
2980.000000	96.236056 
2979.000000	96.233374 
2978.000000	96.226161 
2977.000000	96.217693 
2976.000000	96.210886 
2975.000000	96.207481 
2974.000000	96.207357 
2973.000000	96.208639 
2972.000000	96.209645 
2971.000000	96.210993 
2970.000000	96.214944 
2969.000000	96.222388 
2968.000000	96.231150 
2967.000000	96.237759 
2966.000000	96.240719 
2965.000000	96.241654 
2964.000000	96.243564 
2963.000000	96.248459 
2962.000000	96.256430 
2961.000000	96.266079 
2960.000000	96.275335 
2959.000000	96.282526 
2958.000000	96.287713 
2957.000000	96.292997 
2956.000000	96.300521 
2955.000000	96.309658 
2954.000000	96.317066 
2953.000000	96.320546 
2952.000000	96.322240 
2951.000000	96.326822 
2950.000000	96.336244 
2949.000000	96.347203 
2948.000000	96.354339 
2947.000000	96.355070 
2946.000000	96.351001 
2945.000000	96.345660 
2944.000000	96.341845 
2943.000000	96.340597 
2942.000000	96.341152 
2941.000000	96.341328 
2940.000000	96.338915 
2939.000000	96.333639 
2938.000000	96.327577 
2937.000000	96.323130 
2936.000000	96.320617 
2935.000000	96.318114 
2934.000000	96.313426 
2933.000000	96.305787 
2932.000000	96.296017 
2931.000000	96.285889 
2930.000000	96.277555 
2929.000000	96.272697 
2928.000000	96.271201 
2927.000000	96.270603 
2926.000000	96.267707 
2925.000000	96.261642 
2924.000000	96.255261 
2923.000000	96.252908 
2922.000000	96.256373 
2921.000000	96.263248 
2920.000000	96.269684 
2919.000000	96.274609 
2918.000000	96.280283 
2917.000000	96.288376 
2916.000000	96.296785 
2915.000000	96.301715 
2914.000000	96.302495 
2913.000000	96.302651 
2912.000000	96.305797 
2911.000000	96.311814 
2910.000000	96.317949 
2909.000000	96.322662 
2908.000000	96.326910 
2907.000000	96.331765 
2906.000000	96.336065 
2905.000000	96.337213 
2904.000000	96.333806 
2903.000000	96.328081 
2902.000000	96.325265 
2901.000000	96.329755 
2900.000000	96.341861 
2899.000000	96.357357 
2898.000000	96.371253 
2897.000000	96.381797 
2896.000000	96.390296 
2895.000000	96.397875 
2894.000000	96.404155 
2893.000000	96.409054 
2892.000000	96.414017 
2891.000000	96.420411 
2890.000000	96.427767 
2889.000000	96.434716 
2888.000000	96.440821 
2887.000000	96.446244 
2886.000000	96.450328 
2885.000000	96.452353 
2884.000000	96.453784 
2883.000000	96.457943 
2882.000000	96.466463 
2881.000000	96.477164 
2880.000000	96.486423 
2879.000000	96.493293 
2878.000000	96.500002 
2877.000000	96.508623 
2876.000000	96.518471 
2875.000000	96.527244 
2874.000000	96.533671 
2873.000000	96.538097 
2872.000000	96.541190 
2871.000000	96.543280 
2870.000000	96.544933 
2869.000000	96.547112 
2868.000000	96.550462 
2867.000000	96.555017 
2866.000000	96.560715 
2865.000000	96.567450 
2864.000000	96.574474 
2863.000000	96.580764 
2862.000000	96.586433 
2861.000000	96.592723 
2860.000000	96.599876 
2859.000000	96.606129 
2858.000000	96.609991 
2857.000000	96.612781 
2856.000000	96.617425 
2855.000000	96.624978 
2854.000000	96.633489 
2853.000000	96.640224 
2852.000000	96.644151 
2851.000000	96.646420 
2850.000000	96.649646 
2849.000000	96.656735 
2848.000000	96.668951 
2847.000000	96.684233 
2846.000000	96.698140 
2845.000000	96.707604 
2844.000000	96.713506 
2843.000000	96.719389 
2842.000000	96.728032 
2841.000000	96.739228 
2840.000000	96.750185 
2839.000000	96.757740 
2838.000000	96.760824 
2837.000000	96.761476 
2836.000000	96.763364 
2835.000000	96.768569 
2834.000000	96.775974 
2833.000000	96.782993 
2832.000000	96.788334 
2831.000000	96.792595 
2830.000000	96.796745 
2829.000000	96.800910 
2828.000000	96.804727 
2827.000000	96.808216 
2826.000000	96.811902 
2825.000000	96.816317 
2824.000000	96.821529 
2823.000000	96.826942 
2822.000000	96.831407 
2821.000000	96.833789 
2820.000000	96.833787 
2819.000000	96.832282 
2818.000000	96.830731 
2817.000000	96.830224 
2816.000000	96.831264 
2815.000000	96.834220 
2814.000000	96.839159 
2813.000000	96.844838 
2812.000000	96.848659 
2811.000000	96.848771 
2810.000000	96.846185 
2809.000000	96.844102 
2808.000000	96.844869 
2807.000000	96.848294 
2806.000000	96.852802 
2805.000000	96.856975 
2804.000000	96.859749 
2803.000000	96.860502 
2802.000000	96.860064 
2801.000000	96.860740 
2800.000000	96.863998 
2799.000000	96.868640 
2798.000000	96.872163 
2797.000000	96.873629 
2796.000000	96.874122 
2795.000000	96.874900 
2794.000000	96.876170 
2793.000000	96.877605 
2792.000000	96.878984 
2791.000000	96.880114 
2790.000000	96.880903 
2789.000000	96.881685 
2788.000000	96.882901 
2787.000000	96.884465 
2786.000000	96.885881 
2785.000000	96.886947 
2784.000000	96.887898 
2783.000000	96.888964 
2782.000000	96.890136 
2781.000000	96.891333 
2780.000000	96.892532 
2779.000000	96.893726 
2778.000000	96.894910 
2777.000000	96.896085 
2776.000000	96.897249 
2775.000000	96.898395 
2774.000000	96.899518 
2773.000000	96.900615 
2772.000000	96.901687 
2771.000000	96.902740 
2770.000000	96.903784 
2769.000000	96.904826 
2768.000000	96.905867 
2767.000000	96.906898 
2766.000000	96.907907 
2765.000000	96.908883 
2764.000000	96.909817 
2763.000000	96.910709 
2762.000000	96.911562 
2761.000000	96.912383 
2760.000000	96.913182 
2759.000000	96.913962 
2758.000000	96.914719 
2757.000000	96.915450 
2756.000000	96.916151 
2755.000000	96.916829 
2754.000000	96.917494 
2753.000000	96.918155 
2752.000000	96.918808 
2751.000000	96.919443 
2750.000000	96.920050 
2749.000000	96.920634 
2748.000000	96.921204 
2747.000000	96.921764 
2746.000000	96.922313 
2745.000000	96.922848 
2744.000000	96.923373 
2743.000000	96.923896 
2742.000000	96.924422 
2741.000000	96.924955 
2740.000000	96.925496 
2739.000000	96.926043 
2738.000000	96.926592 
2737.000000	96.927137 
2736.000000	96.927676 
2735.000000	96.928210 
2734.000000	96.928739 
2733.000000	96.929260 
2732.000000	96.929769 
2731.000000	96.930265 
2730.000000	96.930747 
2729.000000	96.931217 
2728.000000	96.931676 
2727.000000	96.932124 
2726.000000	96.932559 
2725.000000	96.932983 
2724.000000	96.933404 
2723.000000	96.933829 
2722.000000	96.934266 
2721.000000	96.934721 
2720.000000	96.935198 
2719.000000	96.935698 
2718.000000	96.936213 
2717.000000	96.936733 
2716.000000	96.937251 
2715.000000	96.937767 
2714.000000	96.938289 
2713.000000	96.938825 
2712.000000	96.939376 
2711.000000	96.939939 
2710.000000	96.940506 
2709.000000	96.941082 
2708.000000	96.941676 
2707.000000	96.942293 
2706.000000	96.942929 
2705.000000	96.943568 
2704.000000	96.944197 
2703.000000	96.944808 
2702.000000	96.945405 
2701.000000	96.946000 
2700.000000	96.946604 
2699.000000	96.947218 
2698.000000	96.947827 
2697.000000	96.948413 
2696.000000	96.948964 
2695.000000	96.949483 
2694.000000	96.949981 
2693.000000	96.950468 
2692.000000	96.950948 
2691.000000	96.951423 
2690.000000	96.951897 
2689.000000	96.952371 
2688.000000	96.952847 
2687.000000	96.953321 
2686.000000	96.953785 
2685.000000	96.954229 
2684.000000	96.954647 
2683.000000	96.955041 
2682.000000	96.955411 
2681.000000	96.955759 
2680.000000	96.956085 
2679.000000	96.956389 
2678.000000	96.956668 
2677.000000	96.956921 
2676.000000	96.957150 
2675.000000	96.957353 
2674.000000	96.957530 
2673.000000	96.957695 
2672.000000	96.957874 
2671.000000	96.958085 
2670.000000	96.958292 
2669.000000	96.958432 
2668.000000	96.958487 
2667.000000	96.958502 
2666.000000	96.958519 
2665.000000	96.958520 
2664.000000	96.958457 
2663.000000	96.958290 
2662.000000	96.958045 
2661.000000	96.957839 
2660.000000	96.957805 
2659.000000	96.957964 
2658.000000	96.958119 
2657.000000	96.958001 
2656.000000	96.957549 
2655.000000	96.956960 
2654.000000	96.956499 
2653.000000	96.956250 
2652.000000	96.956132 
2651.000000	96.956002 
2650.000000	96.955760 
2649.000000	96.955399 
2648.000000	96.955001 
2647.000000	96.954625 
2646.000000	96.954178 
2645.000000	96.953496 
2644.000000	96.952631 
2643.000000	96.951935 
2642.000000	96.951688 
2641.000000	96.951776 
2640.000000	96.951877 
2639.000000	96.951895 
2638.000000	96.951971 
2637.000000	96.952152 
2636.000000	96.952308 
2635.000000	96.952351 
2634.000000	96.952344 
2633.000000	96.952357 
2632.000000	96.952357 
2631.000000	96.952271 
2630.000000	96.952118 
2629.000000	96.951962 
2628.000000	96.951852 
2627.000000	96.951798 
2626.000000	96.951769 
2625.000000	96.951764 
2624.000000	96.951782 
2623.000000	96.951804 
2622.000000	96.951823 
2621.000000	96.951847 
2620.000000	96.951891 
2619.000000	96.951963 
2618.000000	96.952063 
2617.000000	96.952185 
2616.000000	96.952329 
2615.000000	96.952502 
2614.000000	96.952711 
2613.000000	96.952957 
2612.000000	96.953228 
2611.000000	96.953504 
2610.000000	96.953775 
2609.000000	96.954046 
2608.000000	96.954329 
2607.000000	96.954626 
2606.000000	96.954930 
2605.000000	96.955233 
2604.000000	96.955534 
2603.000000	96.955836 
2602.000000	96.956139 
2601.000000	96.956436 
2600.000000	96.956727 
2599.000000	96.957010 
2598.000000	96.957285 
2597.000000	96.957551 
2596.000000	96.957806 
2595.000000	96.958052 
2594.000000	96.958289 
2593.000000	96.958529 
2592.000000	96.958793 
2591.000000	96.959096 
2590.000000	96.959434 
2589.000000	96.959787 
2588.000000	96.960142 
2587.000000	96.960504 
2586.000000	96.960896 
2585.000000	96.961329 
2584.000000	96.961799 
2583.000000	96.962284 
2582.000000	96.962767 
2581.000000	96.963249 
2580.000000	96.963748 
2579.000000	96.964277 
2578.000000	96.964830 
2577.000000	96.965386 
2576.000000	96.965927 
2575.000000	96.966447 
2574.000000	96.966958 
2573.000000	96.967471 
2572.000000	96.967988 
2571.000000	96.968504 
2570.000000	96.969014 
2569.000000	96.969524 
2568.000000	96.970053 
2567.000000	96.970615 
2566.000000	96.971210 
2565.000000	96.971823 
2564.000000	96.972441 
2563.000000	96.973065 
2562.000000	96.973703 
2561.000000	96.974368 
2560.000000	96.975068 
2559.000000	96.975801 
2558.000000	96.976555 
2557.000000	96.977310 
2556.000000	96.978050 
2555.000000	96.978765 
2554.000000	96.979461 
2553.000000	96.980148 
2552.000000	96.980838 
2551.000000	96.981536 
2550.000000	96.982240 
2549.000000	96.982939 
2548.000000	96.983617 
2547.000000	96.984271 
2546.000000	96.984915 
2545.000000	96.985568 
2544.000000	96.986232 
2543.000000	96.986893 
2542.000000	96.987528 
2541.000000	96.988134 
2540.000000	96.988729 
2539.000000	96.989335 
2538.000000	96.989955 
2537.000000	96.990572 
2536.000000	96.991170 
2535.000000	96.991744 
2534.000000	96.992304 
2533.000000	96.992863 
2532.000000	96.993430 
2531.000000	96.994008 
2530.000000	96.994594 
2529.000000	96.995182 
2528.000000	96.995770 
2527.000000	96.996365 
2526.000000	96.996969 
2525.000000	96.997582 
2524.000000	96.998195 
2523.000000	96.998800 
2522.000000	96.999400 
2521.000000	97.000002 
2520.000000	97.000612 
2519.000000	97.001227 
2518.000000	97.001839 
2517.000000	97.002435 
2516.000000	97.003015 
2515.000000	97.003591 
2514.000000	97.004180 
2513.000000	97.004799 
2512.000000	97.005454 
2511.000000	97.006136 
2510.000000	97.006832 
2509.000000	97.007526 
2508.000000	97.008211 
2507.000000	97.008882 
2506.000000	97.009541 
2505.000000	97.010193 
2504.000000	97.010846 
2503.000000	97.011494 
2502.000000	97.012126 
2501.000000	97.012733 
2500.000000	97.013322 
2499.000000	97.013909 
2498.000000	97.014505 
2497.000000	97.015107 
2496.000000	97.015703 
2495.000000	97.016283 
2494.000000	97.016851 
2493.000000	97.017412 
2492.000000	97.017970 
2491.000000	97.018526 
2490.000000	97.019076 
2489.000000	97.019607 
2488.000000	97.020109 
2487.000000	97.020580 
2486.000000	97.021033 
2485.000000	97.021481 
2484.000000	97.021925 
2483.000000	97.022353 
2482.000000	97.022750 
2481.000000	97.023109 
2480.000000	97.023440 
2479.000000	97.023758 
2478.000000	97.024073 
2477.000000	97.024386 
2476.000000	97.024686 
2475.000000	97.024962 
2474.000000	97.025212 
2473.000000	97.025439 
2472.000000	97.025655 
2471.000000	97.025866 
2470.000000	97.026074 
2469.000000	97.026280 
2468.000000	97.026487 
2467.000000	97.026701 
2466.000000	97.026924 
2465.000000	97.027143 
2464.000000	97.027346 
2463.000000	97.027536 
2462.000000	97.027726 
2461.000000	97.027943 
2460.000000	97.028218 
2459.000000	97.028558 
2458.000000	97.028927 
2457.000000	97.029259 
2456.000000	97.029506 
2455.000000	97.029633 
2454.000000	97.029622 
2453.000000	97.029511 
2452.000000	97.029426 
2451.000000	97.029506 
2450.000000	97.029791 
2449.000000	97.030202 
2448.000000	97.030606 
2447.000000	97.030916 
2446.000000	97.031135 
2445.000000	97.031370 
2444.000000	97.031743 
2443.000000	97.032248 
2442.000000	97.032731 
2441.000000	97.033064 
2440.000000	97.033310 
2439.000000	97.033651 
2438.000000	97.034193 
2437.000000	97.034899 
2436.000000	97.035634 
2435.000000	97.036230 
2434.000000	97.036602 
2433.000000	97.036811 
2432.000000	97.037038 
2431.000000	97.037417 
2430.000000	97.037946 
2429.000000	97.038528 
2428.000000	97.039032 
2427.000000	97.039401 
2426.000000	97.039666 
2425.000000	97.039900 
2424.000000	97.040135 
2423.000000	97.040354 
2422.000000	97.040542 
2421.000000	97.040731 
2420.000000	97.040975 
2419.000000	97.041289 
2418.000000	97.041649 
2417.000000	97.042027 
2416.000000	97.042402 
2415.000000	97.042748 
2414.000000	97.043044 
2413.000000	97.043326 
2412.000000	97.043673 
2411.000000	97.044094 
2410.000000	97.044489 
2409.000000	97.044754 
2408.000000	97.044904 
2407.000000	97.044982 
2406.000000	97.045014 
2405.000000	97.045019 
2404.000000	97.045011 
2403.000000	97.044991 
2402.000000	97.044943 
2401.000000	97.044858 
2400.000000	97.044754 
2399.000000	97.044654 
2398.000000	97.044569 
2397.000000	97.044491 
2396.000000	97.044389 
2395.000000	97.044216 
2394.000000	97.043932 
2393.000000	97.043557 
2392.000000	97.043138 
2391.000000	97.042703 
2390.000000	97.042233 
2389.000000	97.041685 
2388.000000	97.041028 
2387.000000	97.040259 
2386.000000	97.039402 
2385.000000	97.038489 
2384.000000	97.037548 
2383.000000	97.036587 
2382.000000	97.035603 
2381.000000	97.034585 
2380.000000	97.033522 
2379.000000	97.032413 
2378.000000	97.031254 
2377.000000	97.030028 
2376.000000	97.028706 
2375.000000	97.027268 
2374.000000	97.025717 
2373.000000	97.024075 
2372.000000	97.022374 
2371.000000	97.020644 
2370.000000	97.018899 
2369.000000	97.017125 
2368.000000	97.015287 
2367.000000	97.013362 
2366.000000	97.011362 
2365.000000	97.009333 
2364.000000	97.007322 
2363.000000	97.005362 
2362.000000	97.003448 
2361.000000	97.001552 
2360.000000	96.999654 
2359.000000	96.997760 
2358.000000	96.995887 
2357.000000	96.994037 
2356.000000	96.992168 
2355.000000	96.990212 
2354.000000	96.988142 
2353.000000	96.986021 
2352.000000	96.983977 
2351.000000	96.982098 
2350.000000	96.980333 
2349.000000	96.978500 
2348.000000	96.976439 
2347.000000	96.974188 
2346.000000	96.972108 
2345.000000	96.970527 
2344.000000	96.969469 
2343.000000	96.968668 
2342.000000	96.967846 
2341.000000	96.966952 
2340.000000	96.965984 
2339.000000	96.964929 
2338.000000	96.963763 
2337.000000	96.962627 
2336.000000	96.961746 
2335.000000	96.961076 
2334.000000	96.960190 
2333.000000	96.958828 
2332.000000	96.957425 
2331.000000	96.956766 
2330.000000	96.956928 
2329.000000	96.957037 
2328.000000	96.956297 
2327.000000	96.954436 
2326.000000	96.951876 
2325.000000	96.949408 
2324.000000	96.948460 
2323.000000	96.949855 
2322.000000	96.952709 
2321.000000	96.954859 
2320.000000	96.955101 
2319.000000	96.954299 
2318.000000	96.953773 
2317.000000	96.954039 
2316.000000	96.954957 
2315.000000	96.956411 
2314.000000	96.957949 
2313.000000	96.958489 
2312.000000	96.957640 
2311.000000	96.956505 
2310.000000	96.956635 
2309.000000	96.957817 
2308.000000	96.958639 
2307.000000	96.958156 
2306.000000	96.956752 
2305.000000	96.955160 
2304.000000	96.954002 
2303.000000	96.953599 
2302.000000	96.953890 
2301.000000	96.954040 
2300.000000	96.953017 
2299.000000	96.950541 
2298.000000	96.947469 
2297.000000	96.944889 
2296.000000	96.943343 
2295.000000	96.942557 
2294.000000	96.941817 
2293.000000	96.940435 
2292.000000	96.938488 
2291.000000	96.936786 
2290.000000	96.936101 
2289.000000	96.936324 
2288.000000	96.936627 
2287.000000	96.936224 
2286.000000	96.935012 
2285.000000	96.933514 
2284.000000	96.932405 
2283.000000	96.931956 
2282.000000	96.931904 
2281.000000	96.931738 
2280.000000	96.931082 
2279.000000	96.929923 
2278.000000	96.928538 
2277.000000	96.927337 
2276.000000	96.926542 
2275.000000	96.926045 
2274.000000	96.925555 
2273.000000	96.924881 
2272.000000	96.924067 
2271.000000	96.923231 
2270.000000	96.922431 
2269.000000	96.921655 
2268.000000	96.920878 
2267.000000	96.920086 
2266.000000	96.919278 
2265.000000	96.918447 
2264.000000	96.917599 
2263.000000	96.916753 
2262.000000	96.915914 
2261.000000	96.915073 
2260.000000	96.914214 
2259.000000	96.913327 
2258.000000	96.912426 
2257.000000	96.911537 
2256.000000	96.910682 
2255.000000	96.909857 
2254.000000	96.909018 
2253.000000	96.908106 
2252.000000	96.907086 
2251.000000	96.905969 
2250.000000	96.904801 
2249.000000	96.903619 
2248.000000	96.902435 
2247.000000	96.901243 
2246.000000	96.900029 
2245.000000	96.898793 
2244.000000	96.897544 
2243.000000	96.896304 
2242.000000	96.895088 
2241.000000	96.893894 
2240.000000	96.892699 
2239.000000	96.891478 
2238.000000	96.890221 
2237.000000	96.888936 
2236.000000	96.887636 
2235.000000	96.886318 
2234.000000	96.884965 
2233.000000	96.883554 
2232.000000	96.882084 
2231.000000	96.880577 
2230.000000	96.879065 
2229.000000	96.877569 
2228.000000	96.876083 
2227.000000	96.874584 
2226.000000	96.873043 
2225.000000	96.871440 
2224.000000	96.869788 
2223.000000	96.868128 
2222.000000	96.866506 
2221.000000	96.864934 
2220.000000	96.863381 
2219.000000	96.861804 
2218.000000	96.860186 
2217.000000	96.858546 
2216.000000	96.856923 
2215.000000	96.855332 
2214.000000	96.853753 
2213.000000	96.852150 
2212.000000	96.850511 
2211.000000	96.848868 
2210.000000	96.847273 
2209.000000	96.845755 
2208.000000	96.844290 
2207.000000	96.842821 
2206.000000	96.841286 
2205.000000	96.839651 
2204.000000	96.837922 
2203.000000	96.836132 
2202.000000	96.834317 
2201.000000	96.832485 
2200.000000	96.830617 
2199.000000	96.828693 
2198.000000	96.826735 
2197.000000	96.824806 
2196.000000	96.822983 
2195.000000	96.821307 
2194.000000	96.819762 
2193.000000	96.818302 
2192.000000	96.816887 
2191.000000	96.815506 
2190.000000	96.814176 
2189.000000	96.812918 
2188.000000	96.811740 
2187.000000	96.810634 
2186.000000	96.809578 
2185.000000	96.808573 
2184.000000	96.807661 
2183.000000	96.806917 
2182.000000	96.806396 
2181.000000	96.806078 
2180.000000	96.805887 
2179.000000	96.805750 
2178.000000	96.805662 
2177.000000	96.805678 
2176.000000	96.805869 
2175.000000	96.806227 
2174.000000	96.806799 
2173.000000	96.807589 
2172.000000	96.808449 
2171.000000	96.809230 
2170.000000	96.809972 
2169.000000	96.810874 
2168.000000	96.812089 
2167.000000	96.813576 
2166.000000	96.814942 
2165.000000	96.815405 
2164.000000	96.814368 
2163.000000	96.812589 
2162.000000	96.812389 
2161.000000	96.815786 
2160.000000	96.822633 
2159.000000	96.830370 
2158.000000	96.836330 
2157.000000	96.840133 
2156.000000	96.843493 
2155.000000	96.848184 
2154.000000	96.854088 
2153.000000	96.859257 
2152.000000	96.861890 
2151.000000	96.861919 
2150.000000	96.860962 
2149.000000	96.861287 
2148.000000	96.864421 
2147.000000	96.870144 
2146.000000	96.876281 
2145.000000	96.880323 
2144.000000	96.882063 
2143.000000	96.884115 
2142.000000	96.889114 
2141.000000	96.896582 
2140.000000	96.903269 
2139.000000	96.906617 
2138.000000	96.907261 
2137.000000	96.908008 
2136.000000	96.911075 
2135.000000	96.916258 
2134.000000	96.921148 
2133.000000	96.923110 
2132.000000	96.921564 
2131.000000	96.918494 
2130.000000	96.916752 
2129.000000	96.917939 
2128.000000	96.921741 
2127.000000	96.926490 
2126.000000	96.930052 
2125.000000	96.930901 
2124.000000	96.929145 
2123.000000	96.926582 
2122.000000	96.925247 
2121.000000	96.925688 
2120.000000	96.926673 
2119.000000	96.926301 
2118.000000	96.923473 
2117.000000	96.918836 
2116.000000	96.914554 
2115.000000	96.912640 
2114.000000	96.913050 
2113.000000	96.913814 
2112.000000	96.913180 
2111.000000	96.911113 
2110.000000	96.908762 
2109.000000	96.907282 
2108.000000	96.907289 
2107.000000	96.908579 
2106.000000	96.909798 
2105.000000	96.909313 
2104.000000	96.907005 
2103.000000	96.904448 
2102.000000	96.902976 
2101.000000	96.902175 
2100.000000	96.900795 
2099.000000	96.898417 
2098.000000	96.895717 
2097.000000	96.893511 
2096.000000	96.892124 
2095.000000	96.891390 
2094.000000	96.890786 
2093.000000	96.889577 
2092.000000	96.887376 
2091.000000	96.884413 
2090.000000	96.881243 
2089.000000	96.878319 
2088.000000	96.875679 
2087.000000	96.873059 
2086.000000	96.870161 
2085.000000	96.866950 
2084.000000	96.863596 
2083.000000	96.860245 
2082.000000	96.856932 
2081.000000	96.853633 
2080.000000	96.850334 
2079.000000	96.847015 
2078.000000	96.843651 
2077.000000	96.840223 
2076.000000	96.836739 
2075.000000	96.833236 
2074.000000	96.829753 
2073.000000	96.826305 
2072.000000	96.822880 
2071.000000	96.819459 
2070.000000	96.816040 
2069.000000	96.812646 
2068.000000	96.809300 
2067.000000	96.806004 
2066.000000	96.802730 
2065.000000	96.799438 
2064.000000	96.796116 
2063.000000	96.792810 
2062.000000	96.789608 
2061.000000	96.786583 
2060.000000	96.783745 
2059.000000	96.781029 
2058.000000	96.778344 
2057.000000	96.775626 
2056.000000	96.772870 
2055.000000	96.770109 
2054.000000	96.767374 
2053.000000	96.764668 
2052.000000	96.761980 
2051.000000	96.759320 
2050.000000	96.756739 
2049.000000	96.754315 
2048.000000	96.752118 
2047.000000	96.750176 
2046.000000	96.748467 
2045.000000	96.746941 
2044.000000	96.745574 
2043.000000	96.744390 
2042.000000	96.743447 
2041.000000	96.742785 
2040.000000	96.742394 
2039.000000	96.742207 
2038.000000	96.742139 
2037.000000	96.742128 
2036.000000	96.742165 
2035.000000	96.742289 
2034.000000	96.742550 
2033.000000	96.742954 
2032.000000	96.743448 
2031.000000	96.743944 
2030.000000	96.744380 
2029.000000	96.744747 
2028.000000	96.745086 
2027.000000	96.745439 
2026.000000	96.745815 
2025.000000	96.746183 
2024.000000	96.746519 
2023.000000	96.746831 
2022.000000	96.747159 
2021.000000	96.747541 
2020.000000	96.747956 
2019.000000	96.748279 
2018.000000	96.748374 
2017.000000	96.748176 
2016.000000	96.747765 
2015.000000	96.747356 
2014.000000	96.747134 
2013.000000	96.747132 
2012.000000	96.747179 
2011.000000	96.747118 
2010.000000	96.746971 
2009.000000	96.746870 
2008.000000	96.746917 
2007.000000	96.747170 
2006.000000	96.747634 
2005.000000	96.748117 
2004.000000	96.748260 
2003.000000	96.747892 
2002.000000	96.747282 
2001.000000	96.746837 
2000.000000	96.746543 
1999.000000	96.745979 
1998.000000	96.744797 
1997.000000	96.743032 
1996.000000	96.741024 
1995.000000	96.739211 
1994.000000	96.737875 
1993.000000	96.736983 
1992.000000	96.736198 
1991.000000	96.735132 
1990.000000	96.733720 
1989.000000	96.732239 
1988.000000	96.731034 
1987.000000	96.730212 
1986.000000	96.729627 
1985.000000	96.729036 
1984.000000	96.728303 
1983.000000	96.727491 
1982.000000	96.726865 
1981.000000	96.726690 
1980.000000	96.726981 
1979.000000	96.727495 
1978.000000	96.727926 
1977.000000	96.728210 
1976.000000	96.728494 
1975.000000	96.729003 
1974.000000	96.729861 
1973.000000	96.731007 
1972.000000	96.732291 
1971.000000	96.733568 
1970.000000	96.734802 
1969.000000	96.736023 
1968.000000	96.737288 
1967.000000	96.738656 
1966.000000	96.740159 
1965.000000	96.741792 
1964.000000	96.743530 
1963.000000	96.745354 
1962.000000	96.747277 
1961.000000	96.749323 
1960.000000	96.751495 
1959.000000	96.753761 
1958.000000	96.756075 
1957.000000	96.758419 
1956.000000	96.760815 
1955.000000	96.763303 
1954.000000	96.765906 
1953.000000	96.768608 
1952.000000	96.771364 
1951.000000	96.774121 
1950.000000	96.776845 
1949.000000	96.779542 
1948.000000	96.782239 
1947.000000	96.784954 
1946.000000	96.787662 
1945.000000	96.790309 
1944.000000	96.792844 
1943.000000	96.795256 
1942.000000	96.797576 
1941.000000	96.799851 
1940.000000	96.802116 
1939.000000	96.804374 
1938.000000	96.806595 
1937.000000	96.808744 
1936.000000	96.810809 
1935.000000	96.812811 
1934.000000	96.814784 
1933.000000	96.816737 
1932.000000	96.818643 
1931.000000	96.820449 
1930.000000	96.822112 
1929.000000	96.823629 
1928.000000	96.825047 
1927.000000	96.826430 
1926.000000	96.827799 
1925.000000	96.829120 
1924.000000	96.830326 
1923.000000	96.831380 
1922.000000	96.832291 
1921.000000	96.833101 
1920.000000	96.833848 
1919.000000	96.834542 
1918.000000	96.835173 
1917.000000	96.835729 
1916.000000	96.836219 
1915.000000	96.836679 
1914.000000	96.837147 
1913.000000	96.837631 
1912.000000	96.838105 
1911.000000	96.838526 
1910.000000	96.838862 
1909.000000	96.839114 
1908.000000	96.839316 
1907.000000	96.839512 
1906.000000	96.839719 
1905.000000	96.839920 
1904.000000	96.840085 
1903.000000	96.840208 
1902.000000	96.840312 
1901.000000	96.840437 
1900.000000	96.840612 
1899.000000	96.840841 
1898.000000	96.841102 
1897.000000	96.841358 
1896.000000	96.841584 
1895.000000	96.841791 
1894.000000	96.842019 
1893.000000	96.842305 
1892.000000	96.842666 
1891.000000	96.843091 
1890.000000	96.843557 
1889.000000	96.844055 
1888.000000	96.844596 
1887.000000	96.845212 
1886.000000	96.845925 
1885.000000	96.846724 
1884.000000	96.847577 
1883.000000	96.848468 
1882.000000	96.849414 
1881.000000	96.850454 
1880.000000	96.851626 
1879.000000	96.852942 
1878.000000	96.854385 
1877.000000	96.855927 
1876.000000	96.857547 
1875.000000	96.859245 
1874.000000	96.861039 
1873.000000	96.862934 
1872.000000	96.864915 
1871.000000	96.866949 
1870.000000	96.869006 
1869.000000	96.871086 
1868.000000	96.873217 
1867.000000	96.875437 
1866.000000	96.877765 
1865.000000	96.880183 
1864.000000	96.882654 
1863.000000	96.885160 
1862.000000	96.887713 
1861.000000	96.890345 
1860.000000	96.893080 
1859.000000	96.895921 
1858.000000	96.898847 
1857.000000	96.901821 
1856.000000	96.904803 
1855.000000	96.907781 
1854.000000	96.910767 
1853.000000	96.913781 
1852.000000	96.916828 
1851.000000	96.919891 
1850.000000	96.922942 
1849.000000	96.925953 
1848.000000	96.928920 
1847.000000	96.931867 
1846.000000	96.934830 
1845.000000	96.937821 
1844.000000	96.940824 
1843.000000	96.943809 
1842.000000	96.946755 
1841.000000	96.949660 
1840.000000	96.952529 
1839.000000	96.955365 
1838.000000	96.958147 
1837.000000	96.960834 
1836.000000	96.963389 
1835.000000	96.965805 
1834.000000	96.968104 
1833.000000	96.970316 
1832.000000	96.972459 
1831.000000	96.974535 
1830.000000	96.976537 
1829.000000	96.978462 
1828.000000	96.980316 
1827.000000	96.982119 
1826.000000	96.983894 
1825.000000	96.985645 
1824.000000	96.987355 
1823.000000	96.988997 
1822.000000	96.990556 
1821.000000	96.992041 
1820.000000	96.993473 
1819.000000	96.994865 
1818.000000	96.996216 
1817.000000	96.997505 
1816.000000	96.998707 
1815.000000	96.999811 
1814.000000	97.000832 
1813.000000	97.001803 
1812.000000	97.002743 
1811.000000	97.003639 
1810.000000	97.004471 
1809.000000	97.005226 
1808.000000	97.005911 
1807.000000	97.006548 
1806.000000	97.007166 
1805.000000	97.007775 
1804.000000	97.008354 
1803.000000	97.008875 
1802.000000	97.009327 
1801.000000	97.009732 
1800.000000	97.010125 
1799.000000	97.010537 
1798.000000	97.010981 
1797.000000	97.011454 
1796.000000	97.011942 
1795.000000	97.012432 
1794.000000	97.012931 
1793.000000	97.013456 
1792.000000	97.014026 
1791.000000	97.014649 
1790.000000	97.015316 
1789.000000	97.016005 
1788.000000	97.016697 
1787.000000	97.017385 
1786.000000	97.018081 
1785.000000	97.018802 
1784.000000	97.019543 
1783.000000	97.020284 
1782.000000	97.021002 
1781.000000	97.021696 
1780.000000	97.022393 
1779.000000	97.023118 
1778.000000	97.023874 
1777.000000	97.024633 
1776.000000	97.025352 
1775.000000	97.026004 
1774.000000	97.026593 
1773.000000	97.027153 
1772.000000	97.027723 
1771.000000	97.028314 
1770.000000	97.028910 
1769.000000	97.029502 
1768.000000	97.030097 
1767.000000	97.030713 
1766.000000	97.031365 
1765.000000	97.032052 
1764.000000	97.032760 
1763.000000	97.033469 
1762.000000	97.034163 
1761.000000	97.034844 
1760.000000	97.035521 
1759.000000	97.036201 
1758.000000	97.036879 
1757.000000	97.037537 
1756.000000	97.038157 
1755.000000	97.038723 
1754.000000	97.039228 
1753.000000	97.039685 
1752.000000	97.040130 
1751.000000	97.040598 
1750.000000	97.041099 
1749.000000	97.041605 
1748.000000	97.042082 
1747.000000	97.042515 
1746.000000	97.042909 
1745.000000	97.043275 
1744.000000	97.043616 
1743.000000	97.043918 
1742.000000	97.044167 
1741.000000	97.044353 
1740.000000	97.044482 
1739.000000	97.044563 
1738.000000	97.044616 
1737.000000	97.044677 
1736.000000	97.044739 
1735.000000	97.044622 
1734.000000	97.044121 
1733.000000	97.043462 
1732.000000	97.043018 
1731.000000	97.043104 
1730.000000	97.043930 
1729.000000	97.045104 
1728.000000	97.045872 
1727.000000	97.045855 
1726.000000	97.045198 
1725.000000	97.044623 
1724.000000	97.044641 
1723.000000	97.044979 
1722.000000	97.045032 
1721.000000	97.044356 
1720.000000	97.042918 
1719.000000	97.040772 
1718.000000	97.038763 
1717.000000	97.038432 
1716.000000	97.038207 
1715.000000	97.036041 
1714.000000	97.033159 
1713.000000	97.031008 
1712.000000	97.029212 
1711.000000	97.027690 
1710.000000	97.027100 
1709.000000	97.026960 
1708.000000	97.025596 
1707.000000	97.022062 
1706.000000	97.017359 
1705.000000	97.013076 
1704.000000	97.008855 
1703.000000	97.004078 
1702.000000	96.999285 
1701.000000	96.995465 
1700.000000	96.992878 
1699.000000	96.989623 
1698.000000	96.986135 
1697.000000	96.983956 
1696.000000	96.982665 
1695.000000	96.980814 
1694.000000	96.977216 
1693.000000	96.972407 
1692.000000	96.967602 
1691.000000	96.963314 
1690.000000	96.959372 
1689.000000	96.955354 
1688.000000	96.951107 
1687.000000	96.946641 
1686.000000	96.942047 
1685.000000	96.937500 
1684.000000	96.933292 
1683.000000	96.929388 
1682.000000	96.925385 
1681.000000	96.921209 
1680.000000	96.917026 
1679.000000	96.912911 
1678.000000	96.908859 
1677.000000	96.904855 
1676.000000	96.900896 
1675.000000	96.896984 
1674.000000	96.893092 
1673.000000	96.889208 
1672.000000	96.885348 
1671.000000	96.881538 
1670.000000	96.877796 
1669.000000	96.874115 
1668.000000	96.870479 
1667.000000	96.866872 
1666.000000	96.863293 
1665.000000	96.859757 
1664.000000	96.856286 
1663.000000	96.852883 
1662.000000	96.849524 
1661.000000	96.846179 
1660.000000	96.842835 
1659.000000	96.839504 
1658.000000	96.836201 
1657.000000	96.832939 
1656.000000	96.829718 
1655.000000	96.826524 
1654.000000	96.823335 
1653.000000	96.820160 
1652.000000	96.817028 
1651.000000	96.813952 
1650.000000	96.810944 
1649.000000	96.808007 
1648.000000	96.805133 
1647.000000	96.802312 
1646.000000	96.799557 
1645.000000	96.796887 
1644.000000	96.794311 
1643.000000	96.791828 
1642.000000	96.789418 
1641.000000	96.787055 
1640.000000	96.784727 
1639.000000	96.782446 
1638.000000	96.780240 
1637.000000	96.778127 
1636.000000	96.776114 
1635.000000	96.774184 
1634.000000	96.772309 
1633.000000	96.770472 
1632.000000	96.768658 
1631.000000	96.766852 
1630.000000	96.765169 
1629.000000	96.763721 
1628.000000	96.762393 
1627.000000	96.760991 
1626.000000	96.759428 
1625.000000	96.757762 
1624.000000	96.756353 
1623.000000	96.755840 
1622.000000	96.756227 
1621.000000	96.756307 
1620.000000	96.755408 
1619.000000	96.754150 
1618.000000	96.753606 
1617.000000	96.754206 
1616.000000	96.755659 
1615.000000	96.756994 
1614.000000	96.757155 
1613.000000	96.755739 
1612.000000	96.753393 
1611.000000	96.752137 
1610.000000	96.753506 
1609.000000	96.756778 
1608.000000	96.760107 
1607.000000	96.762473 
1606.000000	96.763202 
1605.000000	96.762511 
1604.000000	96.762883 
1603.000000	96.766479 
1602.000000	96.772126 
1601.000000	96.776355 
1600.000000	96.777706 
1599.000000	96.777920 
1598.000000	96.779220 
1597.000000	96.782666 
1596.000000	96.788292 
1595.000000	96.795088 
1594.000000	96.800554 
1593.000000	96.802379 
1592.000000	96.801678 
1591.000000	96.802780 
1590.000000	96.808536 
1589.000000	96.817458 
1588.000000	96.826270 
1587.000000	96.833013 
1586.000000	96.837180 
1585.000000	96.838874 
1584.000000	96.841127 
1583.000000	96.847987 
1582.000000	96.858860 
1581.000000	96.868825 
1580.000000	96.875278 
1579.000000	96.880259 
1578.000000	96.886656 
1577.000000	96.895667 
1576.000000	96.907069 
1575.000000	96.918017 
1574.000000	96.923653 
1573.000000	96.924158 
1572.000000	96.923948 
1571.000000	96.926710 
1570.000000	96.932898 
1569.000000	96.939729 
1568.000000	96.945624 
1567.000000	96.950118 
1566.000000	96.952375 
1565.000000	96.952464 
1564.000000	96.953808 
1563.000000	96.958433 
1562.000000	96.966207 
1561.000000	96.973112 
1560.000000	96.977322 
1559.000000	96.974681 
1558.000000	96.972210 
1557.000000	96.972965 
1556.000000	96.974711 
1555.000000	96.977725 
1554.000000	96.979618 
1553.000000	96.977984 
1552.000000	96.973184 
1551.000000	96.967215 
1550.000000	96.963286 
1549.000000	96.963479 
1548.000000	96.966196 
1547.000000	96.967620 
1546.000000	96.964785 
1545.000000	96.957817 
1544.000000	96.950835 
1543.000000	96.948266 
1542.000000	96.951154 
1541.000000	96.955475 
1540.000000	96.953976 
1539.000000	96.946504 
1538.000000	96.936850 
1537.000000	96.927238 
1536.000000	96.919310 
1535.000000	96.913737 
1534.000000	96.908967 
1533.000000	96.903182 
1532.000000	96.895973 
1531.000000	96.888052 
1530.000000	96.880700 
1529.000000	96.874331 
1528.000000	96.867894 
1527.000000	96.860272 
1526.000000	96.851453 
1525.000000	96.842410 
1524.000000	96.834077 
1523.000000	96.826630 
1522.000000	96.819365 
1521.000000	96.811288 
1520.000000	96.801814 
1519.000000	96.791224 
1518.000000	96.780362 
1517.000000	96.769978 
1516.000000	96.760401 
1515.000000	96.751335 
1514.000000	96.742185 
1513.000000	96.732622 
1512.000000	96.722614 
1511.000000	96.712280 
1510.000000	96.701864 
1509.000000	96.691530 
1508.000000	96.681255 
1507.000000	96.670846 
1506.000000	96.660337 
1505.000000	96.649687 
1504.000000	96.638861 
1503.000000	96.627957 
1502.000000	96.617052 
1501.000000	96.606146 
1500.000000	96.595189 
1499.000000	96.584134 
1498.000000	96.573001 
1497.000000	96.561869 
1496.000000	96.550840 
1495.000000	96.540022 
1494.000000	96.529425 
1493.000000	96.518903 
1492.000000	96.508195 
1491.000000	96.497022 
1490.000000	96.485527 
1489.000000	96.474557 
1488.000000	96.464381 
1487.000000	96.454134 
1486.000000	96.443199 
1485.000000	96.431317 
1484.000000	96.418897 
1483.000000	96.407084 
1482.000000	96.396803 
1481.000000	96.387897 
1480.000000	96.378744 
1479.000000	96.367795 
1478.000000	96.354951 
1477.000000	96.341710 
1476.000000	96.329749 
1475.000000	96.319885 
1474.000000	96.311451 
1473.000000	96.302621 
1472.000000	96.292664 
1471.000000	96.282179 
1470.000000	96.272222 
1469.000000	96.263798 
1468.000000	96.256721 
1467.000000	96.249550 
1466.000000	96.240832 
1465.000000	96.230489 
1464.000000	96.220800 
1463.000000	96.213078 
1462.000000	96.206989 
1461.000000	96.202243 
1460.000000	96.198125 
1459.000000	96.191723 
1458.000000	96.178433 
1457.000000	96.162030 
1456.000000	96.153734 
1455.000000	96.152914 
1454.000000	96.152156 
1453.000000	96.149285 
1452.000000	96.144816 
1451.000000	96.139653 
1450.000000	96.135373 
1449.000000	96.134359 
1448.000000	96.136794 
1447.000000	96.139684 
1446.000000	96.139273 
1445.000000	96.135034 
1444.000000	96.129781 
1443.000000	96.126058 
1442.000000	96.124897 
1441.000000	96.125624 
1440.000000	96.126361 
1439.000000	96.124322 
1438.000000	96.117886 
1437.000000	96.110059 
1436.000000	96.107623 
1435.000000	96.111418 
1434.000000	96.116562 
1433.000000	96.120076 
1432.000000	96.121117 
1431.000000	96.119509 
1430.000000	96.116694 
1429.000000	96.116233 
1428.000000	96.119847 
1427.000000	96.125452 
1426.000000	96.129187 
1425.000000	96.129046 
1424.000000	96.127270 
1423.000000	96.127038 
1422.000000	96.129761 
1421.000000	96.135795 
1420.000000	96.144068 
1419.000000	96.148941 
1418.000000	96.146255 
1417.000000	96.141316 
1416.000000	96.142423 
1415.000000	96.151557 
1414.000000	96.163917 
1413.000000	96.173469 
1412.000000	96.178084 
1411.000000	96.179037 
1410.000000	96.179191 
1409.000000	96.182621 
1408.000000	96.191640 
1407.000000	96.204535 
1406.000000	96.216541 
1405.000000	96.224947 
1404.000000	96.232592 
1403.000000	96.242584 
1402.000000	96.255353 
1401.000000	96.271137 
1400.000000	96.289626 
1399.000000	96.307009 
1398.000000	96.318030 
1397.000000	96.322161 
1396.000000	96.324669 
1395.000000	96.332520 
1394.000000	96.348027 
1393.000000	96.367743 
1392.000000	96.387026 
1391.000000	96.403204 
1390.000000	96.415960 
1389.000000	96.427095 
1388.000000	96.439233 
1387.000000	96.453406 
1386.000000	96.467917 
1385.000000	96.480679 
1384.000000	96.491930 
1383.000000	96.503347 
1382.000000	96.516422 
1381.000000	96.531587 
1380.000000	96.547816 
1379.000000	96.563276 
1378.000000	96.576625 
1377.000000	96.588104 
1376.000000	96.599373 
1375.000000	96.612330 
1374.000000	96.627678 
1373.000000	96.644598 
1372.000000	96.661085 
1371.000000	96.675542 
1370.000000	96.687805 
1369.000000	96.699347 
1368.000000	96.712714 
1367.000000	96.728694 
1366.000000	96.745072 
1365.000000	96.758775 
1364.000000	96.768214 
1363.000000	96.774593 
1362.000000	96.781961 
1361.000000	96.793770 
1360.000000	96.809759 
1359.000000	96.826789 
1358.000000	96.841307 
1357.000000	96.851675 
1356.000000	96.859451 
1355.000000	96.868310 
1354.000000	96.880891 
1353.000000	96.896654 
1352.000000	96.911675 
1351.000000	96.922378 
1350.000000	96.928726 
1349.000000	96.933892 
1348.000000	96.941963 
1347.000000	96.954309 
1346.000000	96.968257 
1345.000000	96.979218 
1344.000000	96.984550 
1343.000000	96.985711 
1342.000000	96.987025 
1341.000000	96.991888 
1340.000000	96.999782 
1339.000000	97.006993 
1338.000000	97.010322 
1337.000000	97.010224 
1336.000000	97.010293 
1335.000000	97.013936 
1334.000000	97.021723 
1333.000000	97.031190 
1332.000000	97.038439 
1331.000000	97.040818 
1330.000000	97.038928 
1329.000000	97.036522 
1328.000000	97.037501 
1327.000000	97.042631 
1326.000000	97.048713 
1325.000000	97.051332 
1324.000000	97.048962 
1323.000000	97.043896 
1322.000000	97.040122 
1321.000000	97.040297 
1320.000000	97.044083 
1319.000000	97.048396 
1318.000000	97.049807 
1317.000000	97.047594 
1316.000000	97.044096 
1315.000000	97.042221 
1314.000000	97.043032 
1313.000000	97.045599 
1312.000000	97.048085 
1311.000000	97.048826 
1310.000000	97.047263 
1309.000000	97.044664 
1308.000000	97.043398 
1307.000000	97.044881 
1306.000000	97.048091 
1305.000000	97.050431 
1304.000000	97.050221 
1303.000000	97.047887 
1302.000000	97.045261 
1301.000000	97.044145 
1300.000000	97.045174 
1299.000000	97.047389 
1298.000000	97.048818 
1297.000000	97.048105 
1296.000000	97.045783 
1295.000000	97.043912 
1294.000000	97.044170 
1293.000000	97.046446 
1292.000000	97.048988 
1291.000000	97.049780 
1290.000000	97.048169 
1289.000000	97.045474 
1288.000000	97.043923 
1287.000000	97.044631 
1286.000000	97.046746 
1285.000000	97.048308 
1284.000000	97.047956 
1283.000000	97.045865 
1282.000000	97.043509 
1281.000000	97.042569 
1280.000000	97.043884 
1279.000000	97.046733 
1278.000000	97.048840 
1277.000000	97.047997 
1276.000000	97.044374 
1275.000000	97.041092 
1274.000000	97.041827 
1273.000000	97.047537 
1272.000000	97.054921 
1271.000000	97.058050 
1270.000000	97.052913 
1269.000000	97.041678 
1268.000000	97.032057 
1267.000000	97.030550 
1266.000000	97.035987 
1265.000000	97.040679 
1264.000000	97.038094 
1263.000000	97.028528 
1262.000000	97.018302 
1261.000000	97.014924 
1260.000000	97.022196 
1259.000000	97.036720 
1258.000000	97.048391 
1257.000000	97.047432 
1256.000000	97.033074 
1255.000000	97.015457 
1254.000000	97.007658 
1253.000000	97.014103 
1252.000000	97.025837 
1251.000000	97.027437 
1250.000000	97.010658 
1249.000000	96.982966 
1248.000000	96.962185 
1247.000000	96.960717 
1246.000000	96.974409 
1245.000000	96.986930 
1244.000000	96.984107 
1243.000000	96.964548 
1242.000000	96.939870 
1241.000000	96.926052 
1240.000000	96.931126 
1239.000000	96.947397 
1238.000000	96.956287 
1237.000000	96.943941 
1236.000000	96.912808 
1235.000000	96.878272 
1234.000000	96.855235 
1233.000000	96.847644 
1232.000000	96.847326 
1231.000000	96.839695 
1230.000000	96.813728 
1229.000000	96.771835 
1228.000000	96.730027 
1227.000000	96.704193 
1226.000000	96.694337 
1225.000000	96.684002 
1224.000000	96.655372 
1223.000000	96.603666 
1222.000000	96.539136 
1221.000000	96.478402 
1220.000000	96.432473 
1219.000000	96.398588 
1218.000000	96.361764 
1217.000000	96.306753 
1216.000000	96.230645 
1215.000000	96.144773 
1214.000000	96.065284 
1213.000000	96.001513 
1212.000000	95.950143 
1211.000000	95.896964 
1210.000000	95.826445 
1209.000000	95.735175 
1208.000000	95.637381 
1207.000000	95.553521 
1206.000000	95.490665 
1205.000000	95.435435 
1204.000000	95.366961 
1203.000000	95.275707 
1202.000000	95.171040 
1201.000000	95.073248 
1200.000000	94.997392 
1199.000000	94.940839 
1198.000000	94.884795 
1197.000000	94.810593 
1196.000000	94.715754 
1195.000000	94.614633 
1194.000000	94.524959 
1193.000000	94.454001 
1192.000000	94.394707 
1191.000000	94.330936 
1190.000000	94.247968 
1189.000000	94.143622 
1188.000000	94.031275 
1187.000000	93.929264 
1186.000000	93.845004 
1185.000000	93.769660 
1184.000000	93.686884 
1183.000000	93.585219 
1182.000000	93.465651 
1181.000000	93.341800 
1180.000000	93.230679 
1179.000000	93.137288 
1178.000000	93.047512 
1177.000000	92.940371 
1176.000000	92.808043 
1175.000000	92.662013 
1174.000000	92.521462 
1173.000000	92.398721 
1172.000000	92.292971 
1171.000000	92.190648 
1170.000000	92.072833 
1169.000000	91.931264 
1168.000000	91.780129 
1167.000000	91.646672 
1166.000000	91.548003 
1165.000000	91.481025 
1164.000000	91.433933 
1163.000000	91.401040 
1162.000000	91.385746 
1161.000000	91.395076 
1160.000000	91.431931 
1159.000000	91.485444 
1158.000000	91.527418 
1157.000000	91.526517 
1156.000000	91.470330 
1155.000000	91.372619 
1154.000000	91.260904 
1153.000000	91.158063 
1152.000000	91.071471 
1151.000000	90.991659 
1150.000000	90.900112 
1149.000000	90.786053 
1148.000000	90.659578 
1147.000000	90.544145 
1146.000000	90.453120 
1145.000000	90.377005 
1144.000000	90.294437 
1143.000000	90.191098 
1142.000000	90.068484 
1141.000000	89.941519 
1140.000000	89.829037 
1139.000000	89.739565 
1138.000000	89.662492 
1137.000000	89.576706 
1136.000000	89.470071 
1135.000000	89.348600 
1134.000000	89.228426 
1133.000000	89.122664 
1132.000000	89.033686 
1131.000000	88.950801 
1130.000000	88.855315 
1129.000000	88.735744 
1128.000000	88.600812 
1127.000000	88.473090 
1126.000000	88.367549 
1125.000000	88.279407 
1124.000000	88.191766 
1123.000000	88.089673 
1122.000000	87.968541 
1121.000000	87.836995 
1120.000000	87.713033 
1119.000000	87.610345 
1118.000000	87.524803 
1117.000000	87.437564 
1116.000000	87.333317 
1115.000000	87.213068 
1114.000000	87.090743 
1113.000000	86.982219 
1112.000000	86.895800 
1111.000000	86.824943 
1110.000000	86.748727 
1109.000000	86.648360 
1108.000000	86.526476 
1107.000000	86.405234 
1106.000000	86.304150 
1105.000000	86.224185 
1104.000000	86.150870 
1103.000000	86.065137 
1102.000000	85.953772 
1101.000000	85.822220 
1100.000000	85.697108 
1099.000000	85.605036 
1098.000000	85.545587 
1097.000000	85.491149 
1096.000000	85.415282 
1095.000000	85.313865 
1094.000000	85.201292 
1093.000000	85.097871 
1092.000000	85.020239 
1091.000000	84.969306 
1090.000000	84.923513 
1089.000000	84.856375 
1088.000000	84.765450 
1087.000000	84.675548 
1086.000000	84.611581 
1085.000000	84.576493 
1084.000000	84.554570 
1083.000000	84.524446 
1082.000000	84.469809 
1081.000000	84.392538 
1080.000000	84.319258 
1079.000000	84.281465 
1078.000000	84.282085 
1077.000000	84.290050 
1076.000000	84.271019 
1075.000000	84.215280 
1074.000000	84.137444 
1073.000000	84.061410 
1072.000000	84.004255 
1071.000000	83.959033 
1070.000000	83.889996 
1069.000000	83.759544 
1068.000000	83.566804 
1067.000000	83.353141 
1066.000000	83.165788 
1065.000000	83.021172 
1064.000000	82.902695 
1063.000000	82.779158 
1062.000000	82.622894 
1061.000000	82.427734 
1060.000000	82.219384 
1059.000000	82.037895 
1058.000000	81.900413 
1057.000000	81.786142 
1056.000000	81.659568 
1055.000000	81.501160 
1054.000000	81.318008 
1053.000000	81.137557 
1052.000000	80.991059 
1051.000000	80.886916 
1050.000000	80.795090 
1049.000000	80.671988 
1048.000000	80.505305 
1047.000000	80.323474 
1046.000000	80.162545 
1045.000000	80.036183 
1044.000000	79.933342 
1043.000000	79.827402 
1042.000000	79.689611 
1041.000000	79.512973 
1040.000000	79.327392 
1039.000000	79.177206 
1038.000000	79.078653 
1037.000000	79.008150 
1036.000000	78.930806 
1035.000000	78.829656 
1034.000000	78.711763 
1033.000000	78.602388 
1032.000000	78.531161 
1031.000000	78.504737 
1030.000000	78.490475 
1029.000000	78.444784 
1028.000000	78.361577 
1027.000000	78.278339 
1026.000000	78.234093 
1025.000000	78.236093 
1024.000000	78.264341 
1023.000000	78.287794 
1022.000000	78.276454 
1021.000000	78.220946 
1020.000000	78.147838 
1019.000000	78.099664 
1018.000000	78.092274 
1017.000000	78.102233 
1016.000000	78.096364 
1015.000000	78.060210 
1014.000000	78.000467 
1013.000000	77.939068 
1012.000000	77.905897 
1011.000000	77.916175 
1010.000000	77.948188 
1009.000000	77.959460 
1008.000000	77.931316 
1007.000000	77.886118 
1006.000000	77.860538 
1005.000000	77.875789 
1004.000000	77.931219 
1003.000000	78.005772 
1002.000000	78.063577 
1001.000000	78.080346 
1000.000000	78.072742 
999.000000	 78.086730 
998.000000	 78.150046 
997.000000	 78.247091 
996.000000	 78.340744 
995.000000	 78.405113 
994.000000	 78.438462 
993.000000	 78.462675 
992.000000	 78.513257 
991.000000	 78.611624 
990.000000	 78.739372 
989.000000	 78.852121 
988.000000	 78.924383 
987.000000	 78.972050 
986.000000	 79.032275 
985.000000	 79.134147 
984.000000	 79.285022 
983.000000	 79.464267 
982.000000	 79.628569 
981.000000	 79.745688 
980.000000	 79.830723 
979.000000	 79.934603 
978.000000	 80.091477 
977.000000	 80.288667 
976.000000	 80.487694 
975.000000	 80.660338 
974.000000	 80.803928 
973.000000	 80.939122 
972.000000	 81.098680 
971.000000	 81.302979 
970.000000	 81.537004 
969.000000	 81.760346 
968.000000	 81.945692 
967.000000	 82.101539 
966.000000	 82.258663 
965.000000	 82.443782 
964.000000	 82.663327 
963.000000	 82.898145 
962.000000	 83.112908 
961.000000	 83.284693 
960.000000	 83.426749 
959.000000	 83.576616 
958.000000	 83.759040 
957.000000	 83.966807 
956.000000	 84.174457 
955.000000	 84.359156 
954.000000	 84.511401 
953.000000	 84.641234 
952.000000	 84.776520 
951.000000	 84.941323 
950.000000	 85.130218 
949.000000	 85.311953 
948.000000	 85.460016 
947.000000	 85.572974 
946.000000	 85.669353 
945.000000	 85.773577 
944.000000	 85.903603 
943.000000	 86.057662 
942.000000	 86.209685 
941.000000	 86.329789 
940.000000	 86.415330 
939.000000	 86.496548 
938.000000	 86.608097 
937.000000	 86.757883 
936.000000	 86.923542 
935.000000	 87.071934 
934.000000	 87.183017 
933.000000	 87.264946 
932.000000	 87.350740 
931.000000	 87.471618 
930.000000	 87.627796 
929.000000	 87.787850 
928.000000	 87.918474 
927.000000	 88.012893 
926.000000	 88.093006 
925.000000	 88.189116 
924.000000	 88.314924 
923.000000	 88.456326 
922.000000	 88.582544 
921.000000	 88.673201 
920.000000	 88.736815 
919.000000	 88.802767 
918.000000	 88.894886 
917.000000	 89.013969 
916.000000	 89.141414 
915.000000	 89.254547 
914.000000	 89.342729 
913.000000	 89.416098 
912.000000	 89.499316 
911.000000	 89.611526 
910.000000	 89.750444 
909.000000	 89.896290 
908.000000	 90.030081 
907.000000	 90.146332 
906.000000	 90.253336 
905.000000	 90.367511 
904.000000	 90.503373 
903.000000	 90.660844 
902.000000	 90.821930 
901.000000	 90.965718 
900.000000	 91.087305 
899.000000	 91.200059 
898.000000	 91.322349 
897.000000	 91.464135 
896.000000	 91.621349 
895.000000	 91.776073 
894.000000	 91.906200 
893.000000	 92.004317 
892.000000	 92.088681 
891.000000	 92.189625 
890.000000	 92.320764 
889.000000	 92.466513 
888.000000	 92.596806 
887.000000	 92.691055 
886.000000	 92.751656 
885.000000	 92.803696 
884.000000	 92.878543 
883.000000	 92.987527 
882.000000	 93.109426 
881.000000	 93.208997 
880.000000	 93.272169 
879.000000	 93.320366 
878.000000	 93.389754 
877.000000	 93.499091 
876.000000	 93.637873 
875.000000	 93.775311 
874.000000	 93.881772 
873.000000	 93.952997 
872.000000	 94.018854 
871.000000	 94.120780 
870.000000	 94.273461 
869.000000	 94.449680 
868.000000	 94.603709 
867.000000	 94.709646 
866.000000	 94.778856 
865.000000	 94.849053 
864.000000	 94.956319 
863.000000	 95.108385 
862.000000	 95.276933 
861.000000	 95.419066 
860.000000	 95.512391 
859.000000	 95.572211 
858.000000	 95.637570 
857.000000	 95.739923 
856.000000	 95.879044 
855.000000	 96.020969 
854.000000	 96.121834 
853.000000	 96.164137 
852.000000	 96.174424 
851.000000	 96.202614 
850.000000	 96.280720 
849.000000	 96.400250 
848.000000	 96.522002 
847.000000	 96.601923 
846.000000	 96.620279 
845.000000	 96.603446 
844.000000	 96.613250 
843.000000	 96.694833 
842.000000	 96.828761 
841.000000	 96.944008 
840.000000	 96.980413 
839.000000	 96.935582 
838.000000	 96.861091 
837.000000	 96.824052 
836.000000	 96.862171 
835.000000	 96.952507 
834.000000	 97.020056 
833.000000	 96.999040 
832.000000	 96.899989 
831.000000	 96.809671 
830.000000	 96.812884 
829.000000	 96.913954 
828.000000	 97.035803 
827.000000	 97.087927 
826.000000	 97.039196 
825.000000	 96.944120 
824.000000	 96.903358 
823.000000	 96.975820 
822.000000	 97.116258 
821.000000	 97.213002 
820.000000	 97.191950 
819.000000	 97.076524 
818.000000	 96.955713 
817.000000	 96.903453 
816.000000	 96.921125 
815.000000	 96.940178 
814.000000	 96.875193 
813.000000	 96.687702 
812.000000	 96.412380 
811.000000	 96.123334 
810.000000	 95.865977 
809.000000	 95.616543 
808.000000	 95.305482 
807.000000	 94.876264 
806.000000	 94.329416 
805.000000	 93.726443 
804.000000	 93.155362 
803.000000	 92.677077 
802.000000	 92.289428 
801.000000	 91.943829 
800.000000	 91.600581 
799.000000	 91.268854 
798.000000	 91.002072 
797.000000	 90.863095 
796.000000	 90.881595 
795.000000	 91.020557 
794.000000	 91.183425 
793.000000	 91.278713 
792.000000	 91.290082 
791.000000	 91.278114 
790.000000	 91.313081 
789.000000	 91.409773 
788.000000	 91.516646 
787.000000	 91.550075 
786.000000	 91.448363 
785.000000	 91.221501 
784.000000	 90.956845 
783.000000	 90.755558 
782.000000	 90.648870 
781.000000	 90.582489 
780.000000	 90.483233 
779.000000	 90.334267 
778.000000	 90.192568 
777.000000	 90.147949 
776.000000	 90.259942 
775.000000	 90.507624 
774.000000	 90.789541 
773.000000	 90.996611 
772.000000	 91.103267 
771.000000	 91.182042 
770.000000	 91.326020 
769.000000	 91.560499 
768.000000	 91.823198 
767.000000	 92.016749 
766.000000	 92.086640 
765.000000	 92.067366 
764.000000	 92.060024 
763.000000	 92.150740 
762.000000	 92.339229 
761.000000	 92.546619 
760.000000	 92.691102 
759.000000	 92.752874 
758.000000	 92.777761 
757.000000	 92.835395 
756.000000	 92.968601 
755.000000	 93.162062 
754.000000	 93.351933 
753.000000	 93.477056 
752.000000	 93.527317 
751.000000	 93.545597 
750.000000	 93.588656 
749.000000	 93.685621 
748.000000	 93.823210 
747.000000	 93.957689 
746.000000	 94.046260 
745.000000	 94.082923 
744.000000	 94.108371 
743.000000	 94.175526 
742.000000	 94.300215 
741.000000	 94.450325 
740.000000	 94.579332 
739.000000	 94.663524 
738.000000	 94.712116 
737.000000	 94.755184 
736.000000	 94.822156 
735.000000	 94.921822 
734.000000	 95.035553 
733.000000	 95.129914 
732.000000	 95.182583 
731.000000	 95.200626 
730.000000	 95.217056 
729.000000	 95.265103 
728.000000	 95.351386 
727.000000	 95.448714 
726.000000	 95.515563 
725.000000	 95.532536 
724.000000	 95.526950 
723.000000	 95.556099 
722.000000	 95.655577 
721.000000	 95.802057 
720.000000	 95.926795 
719.000000	 95.974817 
718.000000	 95.951854 
717.000000	 95.919431 
716.000000	 95.944720 
715.000000	 96.045828 
714.000000	 96.175906 
713.000000	 96.263732 
712.000000	 96.276624 
711.000000	 96.245007 
710.000000	 96.235632 
709.000000	 96.290998 
708.000000	 96.394898 
707.000000	 96.487275 
706.000000	 96.513051 
705.000000	 96.465347 
704.000000	 96.389721 
703.000000	 96.342544 
702.000000	 96.339599 
701.000000	 96.347080 
700.000000	 96.315245 
699.000000	 96.216824 
698.000000	 96.065542 
697.000000	 95.912945 
696.000000	 95.820562 
695.000000	 95.820601 
694.000000	 95.894124 
693.000000	 95.989141 
692.000000	 96.063808 
691.000000	 96.111617 
690.000000	 96.153876 
689.000000	 96.216986 
688.000000	 96.309771 
687.000000	 96.411523 
686.000000	 96.485729 
685.000000	 96.511865 
684.000000	 96.504851 
683.000000	 96.502677 
682.000000	 96.533159 
681.000000	 96.593532 
680.000000	 96.657760 
679.000000	 96.698846 
678.000000	 96.707649 
677.000000	 96.698811 
676.000000	 96.699971 
675.000000	 96.727542 
674.000000	 96.772560 
673.000000	 96.811653 
672.000000	 96.828517 
671.000000	 96.825241 
670.000000	 96.815751 
669.000000	 96.820192 
668.000000	 96.851792 
667.000000	 96.894589 
666.000000	 96.922079 
665.000000	 96.931456 
664.000000	 96.930955 
663.000000	 96.932036 
662.000000	 96.944677 
661.000000	 96.970582 
660.000000	 97.001373 
659.000000	 97.022362 
658.000000	 97.025541 
657.000000	 97.016384 
656.000000	 97.010871 
655.000000	 97.018887 
654.000000	 97.035797 
653.000000	 97.047415 
652.000000	 97.045595 
651.000000	 97.033693 
650.000000	 97.019866 

