4000.000000	97.935551 
3999.000000	97.935066 
3998.000000	97.932670 
3997.000000	97.929133 
3996.000000	97.925788 
3995.000000	97.923699 
3994.000000	97.923311 
3993.000000	97.924426 
3992.000000	97.926310 
3991.000000	97.927915 
3990.000000	97.928354 
3989.000000	97.927387 
3988.000000	97.925570 
3987.000000	97.923973 
3986.000000	97.923528 
3985.000000	97.924370 
3984.000000	97.925680 
3983.000000	97.926444 
3982.000000	97.926581 
3981.000000	97.927038 
3980.000000	97.928544 
3979.000000	97.930594 
3978.000000	97.931958 
3977.000000	97.931916 
3976.000000	97.930623 
3975.000000	97.928531 
3974.000000	97.925957 
3973.000000	97.923186 
3972.000000	97.920600 
3971.000000	97.918583 
3970.000000	97.917386 
3969.000000	97.917168 
3968.000000	97.918018 
3967.000000	97.919713 
3966.000000	97.921584 
3965.000000	97.922759 
3964.000000	97.922546 
3963.000000	97.920781 
3962.000000	97.918066 
3961.000000	97.915497 
3960.000000	97.913913 
3959.000000	97.913475 
3958.000000	97.913757 
3957.000000	97.914068 
3956.000000	97.913698 
3955.000000	97.912115 
3954.000000	97.909377 
3953.000000	97.906229 
3952.000000	97.903619 
3951.000000	97.901947 
3950.000000	97.900764 
3949.000000	97.899388 
3948.000000	97.897660 
3947.000000	97.896115 
3946.000000	97.895477 
3945.000000	97.895999 
3944.000000	97.897178 
3943.000000	97.898001 
3942.000000	97.897968 
3941.000000	97.897602 
3940.000000	97.897665 
3939.000000	97.898233 
3938.000000	97.898599 
3937.000000	97.898005 
3936.000000	97.896312 
3935.000000	97.893948 
3934.000000	97.891603 
3933.000000	97.889801 
3932.000000	97.888668 
3931.000000	97.887907 
3930.000000	97.887198 
3929.000000	97.886696 
3928.000000	97.886790 
3927.000000	97.887540 
3926.000000	97.888484 
3925.000000	97.888887 
3924.000000	97.888307 
3923.000000	97.886826 
3922.000000	97.884874 
3921.000000	97.883107 
3920.000000	97.882147 
3919.000000	97.882203 
3918.000000	97.882814 
3917.000000	97.883122 
3916.000000	97.882699 
3915.000000	97.881863 
3914.000000	97.881260 
3913.000000	97.881210 
3912.000000	97.881508 
3911.000000	97.881774 
3910.000000	97.881744 
3909.000000	97.881398 
3908.000000	97.880916 
3907.000000	97.880386 
3906.000000	97.879699 
3905.000000	97.878540 
3904.000000	97.876684 
3903.000000	97.874409 
3902.000000	97.872422 
3901.000000	97.871319 
3900.000000	97.871187 
3899.000000	97.871551 
3898.000000	97.871834 
3897.000000	97.871784 
3896.000000	97.871434 
3895.000000	97.870983 
3894.000000	97.870631 
3893.000000	97.870410 
3892.000000	97.870081 
3891.000000	97.869323 
3890.000000	97.868097 
3889.000000	97.866629 
3888.000000	97.865257 
3887.000000	97.864289 
3886.000000	97.863806 
3885.000000	97.863500 
3884.000000	97.862906 
3883.000000	97.861829 
3882.000000	97.860577 
3881.000000	97.859710 
3880.000000	97.859457 
3879.000000	97.859455 
3878.000000	97.859293 
3877.000000	97.859039 
3876.000000	97.859104 
3875.000000	97.859586 
3874.000000	97.859903 
3873.000000	97.859362 
3872.000000	97.857916 
3871.000000	97.856183 
3870.000000	97.854907 
3869.000000	97.854412 
3868.000000	97.854415 
3867.000000	97.854335 
3866.000000	97.853966 
3865.000000	97.853575 
3864.000000	97.853456 
3863.000000	97.853495 
3862.000000	97.853337 
3861.000000	97.853168 
3860.000000	97.853550 
3859.000000	97.854474 
3858.000000	97.855076 
3857.000000	97.854505 
3856.000000	97.852860 
3855.000000	97.851004 
3854.000000	97.849066 
3853.000000	97.846689 
3852.000000	97.844699 
3851.000000	97.844113 
3850.000000	97.844712 
3849.000000	97.846007 
3848.000000	97.847769 
3847.000000	97.849840 
3846.000000	97.851633 
3845.000000	97.852412 
3844.000000	97.852069 
3843.000000	97.851099 
3842.000000	97.849987 
3841.000000	97.849167 
3840.000000	97.848870 
3839.000000	97.849012 
3838.000000	97.849295 
3837.000000	97.849366 
3836.000000	97.849180 
3835.000000	97.848839 
3834.000000	97.848397 
3833.000000	97.848005 
3832.000000	97.847819 
3831.000000	97.847842 
3830.000000	97.848000 
3829.000000	97.848238 
3828.000000	97.848860 
3827.000000	97.850275 
3826.000000	97.852070 
3825.000000	97.853063 
3824.000000	97.852362 
3823.000000	97.850379 
3822.000000	97.848597 
3821.000000	97.847832 
3820.000000	97.847470 
3819.000000	97.846495 
3818.000000	97.844797 
3817.000000	97.843685 
3816.000000	97.844475 
3815.000000	97.846647 
3814.000000	97.848408 
3813.000000	97.848951 
3812.000000	97.849208 
3811.000000	97.850631 
3810.000000	97.853254 
3809.000000	97.855442 
3808.000000	97.855762 
3807.000000	97.854365 
3806.000000	97.852157 
3805.000000	97.849117 
3804.000000	97.844613 
3803.000000	97.839958 
3802.000000	97.837894 
3801.000000	97.839056 
3800.000000	97.841248 
3799.000000	97.841951 
3798.000000	97.841052 
3797.000000	97.840917 
3796.000000	97.843332 
3795.000000	97.847156 
3794.000000	97.849822 
3793.000000	97.850494 
3792.000000	97.850657 
3791.000000	97.852097 
3790.000000	97.854629 
3789.000000	97.856494 
3788.000000	97.856754 
3787.000000	97.856203 
3786.000000	97.856173 
3785.000000	97.856955 
3784.000000	97.857607 
3783.000000	97.857073 
3782.000000	97.855110 
3781.000000	97.852599 
3780.000000	97.851080 
3779.000000	97.851494 
3778.000000	97.853078 
3777.000000	97.854115 
3776.000000	97.853647 
3775.000000	97.852205 
3774.000000	97.850700 
3773.000000	97.849228 
3772.000000	97.847868 
3771.000000	97.847341 
3770.000000	97.848020 
3769.000000	97.849051 
3768.000000	97.848716 
3767.000000	97.845845 
3766.000000	97.841485 
3765.000000	97.838031 
3764.000000	97.836894 
3763.000000	97.837165 
3762.000000	97.837115 
3761.000000	97.836130 
3760.000000	97.834374 
3759.000000	97.832656 
3758.000000	97.831379 
3757.000000	97.829840 
3756.000000	97.826837 
3755.000000	97.821285 
3754.000000	97.813604 
3753.000000	97.805762 
3752.000000	97.799100 
3751.000000	97.792482 
3750.000000	97.784657 
3749.000000	97.777441 
3748.000000	97.772395 
3747.000000	97.768758 
3746.000000	97.767111 
3745.000000	97.769106 
3744.000000	97.775613 
3743.000000	97.783768 
3742.000000	97.787531 
3741.000000	97.784172 
3740.000000	97.777542 
3739.000000	97.774485 
3738.000000	97.778101 
3737.000000	97.785421 
3736.000000	97.792825 
3735.000000	97.799186 
3734.000000	97.803405 
3733.000000	97.803188 
3732.000000	97.798819 
3731.000000	97.793937 
3730.000000	97.790311 
3729.000000	97.786746 
3728.000000	97.783343 
3727.000000	97.782337 
3726.000000	97.784577 
3725.000000	97.787748 
3724.000000	97.789920 
3723.000000	97.792006 
3722.000000	97.795610 
3721.000000	97.800425 
3720.000000	97.803602 
3719.000000	97.803707 
3718.000000	97.802227 
3717.000000	97.800507 
3716.000000	97.798179 
3715.000000	97.793590 
3714.000000	97.786309 
3713.000000	97.778337 
3712.000000	97.771857 
3711.000000	97.767485 
3710.000000	97.764572 
3709.000000	97.762482 
3708.000000	97.760826 
3707.000000	97.758451 
3706.000000	97.754443 
3705.000000	97.749350 
3704.000000	97.744781 
3703.000000	97.741205 
3702.000000	97.735923 
3701.000000	97.725583 
3700.000000	97.709966 
3699.000000	97.692704 
3698.000000	97.678917 
3697.000000	97.671425 
3696.000000	97.669121 
3695.000000	97.668561 
3694.000000	97.667263 
3693.000000	97.665690 
3692.000000	97.665513 
3691.000000	97.666310 
3690.000000	97.664243 
3689.000000	97.656767 
3688.000000	97.647461 
3687.000000	97.641206 
3686.000000	97.638328 
3685.000000	97.636622 
3684.000000	97.634968 
3683.000000	97.633581 
3682.000000	97.631746 
3681.000000	97.627056 
3680.000000	97.617479 
3679.000000	97.602535 
3678.000000	97.584493 
3677.000000	97.568086 
3676.000000	97.556201 
3675.000000	97.547760 
3674.000000	97.539572 
3673.000000	97.528926 
3672.000000	97.516151 
3671.000000	97.505857 
3670.000000	97.500372 
3669.000000	97.496066 
3668.000000	97.489252 
3667.000000	97.480103 
3666.000000	97.471314 
3665.000000	97.464745 
3664.000000	97.459074 
3663.000000	97.451929 
3662.000000	97.442296 
3661.000000	97.430319 
3660.000000	97.416299 
3659.000000	97.400121 
3658.000000	97.382644 
3657.000000	97.365681 
3656.000000	97.350903 
3655.000000	97.339046 
3654.000000	97.328638 
3653.000000	97.317243 
3652.000000	97.303403 
3651.000000	97.286439 
3650.000000	97.265383 
3649.000000	97.241615 
3648.000000	97.220974 
3647.000000	97.207783 
3646.000000	97.200863 
3645.000000	97.196956 
3644.000000	97.194507 
3643.000000	97.193734 
3642.000000	97.193847 
3641.000000	97.191768 
3640.000000	97.184988 
3639.000000	97.174219 
3638.000000	97.162470 
3637.000000	97.151343 
3636.000000	97.139589 
3635.000000	97.124997 
3634.000000	97.106642 
3633.000000	97.085139 
3632.000000	97.061581 
3631.000000	97.038066 
3630.000000	97.018105 
3629.000000	97.003669 
3628.000000	96.993627 
3627.000000	96.987180 
3626.000000	96.984504 
3625.000000	96.986675 
3624.000000	96.994532 
3623.000000	97.005859 
3622.000000	97.015212 
3621.000000	97.016827 
3620.000000	97.007503 
3619.000000	96.989313 
3618.000000	96.970093 
3617.000000	96.958330 
3616.000000	96.957965 
3615.000000	96.967495 
3614.000000	96.981176 
3613.000000	96.992465 
3612.000000	96.998303 
3611.000000	96.999593 
3610.000000	96.998819 
3609.000000	96.998037 
3608.000000	96.997862 
3607.000000	96.998837 
3606.000000	97.002679 
3605.000000	97.011440 
3604.000000	97.025467 
3603.000000	97.041705 
3602.000000	97.055014 
3601.000000	97.061832 
3600.000000	97.062058 
3599.000000	97.058223 
3598.000000	97.053485 
3597.000000	97.049885 
3596.000000	97.048505 
3595.000000	97.049399 
3594.000000	97.051542 
3593.000000	97.053877 
3592.000000	97.055555 
3591.000000	97.055649 
3590.000000	97.053918 
3589.000000	97.051242 
3588.000000	97.048720 
3587.000000	97.046876 
3586.000000	97.046413 
3585.000000	97.048439 
3584.000000	97.053667 
3583.000000	97.061192 
3582.000000	97.068640 
3581.000000	97.073236 
3580.000000	97.073569 
3579.000000	97.070515 
3578.000000	97.066442 
3577.000000	97.063469 
3576.000000	97.061974 
3575.000000	97.061066 
3574.000000	97.059675 
3573.000000	97.057297 
3572.000000	97.053552 
3571.000000	97.047523 
3570.000000	97.038376 
3569.000000	97.027057 
3568.000000	97.016824 
3567.000000	97.011178 
3566.000000	97.011290 
3565.000000	97.015761 
3564.000000	97.022216 
3563.000000	97.028777 
3562.000000	97.034275 
3561.000000	97.037954 
3560.000000	97.039380 
3559.000000	97.038491 
3558.000000	97.035807 
3557.000000	97.032426 
3556.000000	97.029483 
3555.000000	97.027580 
3554.000000	97.026739 
3553.000000	97.026446 
3552.000000	97.025807 
3551.000000	97.023925 
3550.000000	97.020623 
3549.000000	97.016899 
3548.000000	97.014290 
3547.000000	97.013277 
3546.000000	97.012758 
3545.000000	97.011399 
3544.000000	97.009341 
3543.000000	97.007987 
3542.000000	97.008437 
3541.000000	97.010644 
3540.000000	97.013711 
3539.000000	97.016416 
3538.000000	97.017686 
3537.000000	97.017053 
3536.000000	97.014949 
3535.000000	97.012360 
3534.000000	97.010188 
3533.000000	97.008890 
3532.000000	97.008563 
3531.000000	97.009074 
3530.000000	97.009969 
3529.000000	97.010574 
3528.000000	97.010461 
3527.000000	97.009814 
3526.000000	97.009237 
3525.000000	97.009177 
3524.000000	97.009598 
3523.000000	97.010143 
3522.000000	97.010505 
3521.000000	97.010637 
3520.000000	97.010686 
3519.000000	97.010740 
3518.000000	97.010669 
3517.000000	97.010262 
3516.000000	97.009524 
3515.000000	97.008775 
3514.000000	97.008391 
3513.000000	97.008471 
3512.000000	97.008771 
3511.000000	97.008889 
3510.000000	97.008613 
3509.000000	97.008053 
3508.000000	97.007505 
3507.000000	97.007171 
3506.000000	97.007032 
3505.000000	97.006928 
3504.000000	97.006731 
3503.000000	97.006425 
3502.000000	97.006079 
3501.000000	97.005759 
3500.000000	97.005506 
3499.000000	97.005361 
3498.000000	97.005333 
3497.000000	97.005277 
3496.000000	97.004868 
3495.000000	97.003862 
3494.000000	97.002390 
3493.000000	97.000892 
3492.000000	96.999699 
3491.000000	96.998815 
3490.000000	96.998101 
3489.000000	96.997476 
3488.000000	96.996826 
3487.000000	96.995847 
3486.000000	96.994269 
3485.000000	96.992215 
3484.000000	96.990215 
3483.000000	96.988721 
3482.000000	96.987740 
3481.000000	96.986949 
3480.000000	96.986030 
3479.000000	96.984882 
3478.000000	96.983514 
3477.000000	96.981937 
3476.000000	96.980162 
3475.000000	96.978248 
3474.000000	96.976303 
3473.000000	96.974469 
3472.000000	96.972860 
3471.000000	96.971474 
3470.000000	96.970143 
3469.000000	96.968640 
3468.000000	96.966848 
3467.000000	96.964841 
3466.000000	96.962838 
3465.000000	96.961050 
3464.000000	96.959517 
3463.000000	96.958028 
3462.000000	96.956247 
3461.000000	96.953999 
3460.000000	96.951405 
3459.000000	96.948804 
3458.000000	96.946490 
3457.000000	96.944528 
3456.000000	96.942802 
3455.000000	96.941158 
3454.000000	96.939526 
3453.000000	96.937910 
3452.000000	96.936325 
3451.000000	96.934758 
3450.000000	96.933169 
3449.000000	96.931496 
3448.000000	96.929675 
3447.000000	96.927685 
3446.000000	96.925613 
3445.000000	96.923646 
3444.000000	96.921958 
3443.000000	96.920569 
3442.000000	96.919315 
3441.000000	96.917972 
3440.000000	96.916435 
3439.000000	96.914741 
3438.000000	96.912979 
3437.000000	96.911211 
3436.000000	96.909512 
3435.000000	96.908006 
3434.000000	96.906794 
3433.000000	96.905837 
3432.000000	96.904955 
3431.000000	96.903960 
3430.000000	96.902766 
3429.000000	96.901385 
3428.000000	96.899851 
3427.000000	96.898198 
3426.000000	96.896524 
3425.000000	96.895023 
3424.000000	96.893867 
3423.000000	96.893050 
3422.000000	96.892344 
3421.000000	96.891499 
3420.000000	96.890474 
3419.000000	96.889399 
3418.000000	96.888406 
3417.000000	96.887531 
3416.000000	96.886780 
3415.000000	96.886150 
3414.000000	96.885568 
3413.000000	96.884882 
3412.000000	96.883989 
3411.000000	96.882957 
3410.000000	96.881988 
3409.000000	96.881243 
3408.000000	96.880711 
3407.000000	96.880249 
3406.000000	96.879728 
3405.000000	96.879122 
3404.000000	96.878499 
3403.000000	96.877931 
3402.000000	96.877427 
3401.000000	96.876942 
3400.000000	96.876442 
3399.000000	96.875941 
3398.000000	96.875436 
3397.000000	96.874886 
3396.000000	96.874359 
3395.000000	96.874120 
3394.000000	96.874378 
3393.000000	96.874889 
3392.000000	96.874952 
3391.000000	96.873990 
3390.000000	96.872141 
3389.000000	96.870255 
3388.000000	96.869237 
3387.000000	96.869391 
3386.000000	96.870276 
3385.000000	96.871015 
3384.000000	96.870967 
3383.000000	96.870365 
3382.000000	96.870311 
3381.000000	96.871771 
3380.000000	96.874387 
3379.000000	96.876543 
3378.000000	96.877030 
3377.000000	96.876485 
3376.000000	96.876718 
3375.000000	96.878543 
3374.000000	96.880838 
3373.000000	96.881996 
3372.000000	96.881903 
3371.000000	96.882002 
3370.000000	96.883538 
3369.000000	96.886169 
3368.000000	96.888347 
3367.000000	96.888727 
3366.000000	96.887080 
3365.000000	96.884249 
3364.000000	96.881460 
3363.000000	96.879560 
3362.000000	96.878723 
3361.000000	96.878702 
3360.000000	96.879344 
3359.000000	96.880777 
3358.000000	96.883114 
3357.000000	96.886121 
3356.000000	96.889291 
3355.000000	96.892228 
3354.000000	96.894985 
3353.000000	96.898060 
3352.000000	96.901923 
3351.000000	96.906382 
3350.000000	96.910428 
3349.000000	96.912917 
3348.000000	96.913598 
3347.000000	96.913384 
3346.000000	96.913461 
3345.000000	96.914130 
3344.000000	96.914713 
3343.000000	96.914586 
3342.000000	96.914063 
3341.000000	96.914179 
3340.000000	96.915629 
3339.000000	96.918129 
3338.000000	96.920788 
3337.000000	96.922902 
3336.000000	96.924338 
3335.000000	96.925295 
3334.000000	96.925994 
3333.000000	96.926662 
3332.000000	96.927586 
3331.000000	96.928931 
3330.000000	96.930517 
3329.000000	96.931959 
3328.000000	96.933120 
3327.000000	96.934299 
3326.000000	96.935835 
3325.000000	96.937645 
3324.000000	96.939296 
3323.000000	96.940536 
3322.000000	96.941557 
3321.000000	96.942742 
3320.000000	96.944255 
3319.000000	96.945968 
3318.000000	96.947680 
3317.000000	96.949266 
3316.000000	96.950706 
3315.000000	96.952038 
3314.000000	96.953314 
3313.000000	96.954595 
3312.000000	96.955922 
3311.000000	96.957298 
3310.000000	96.958704 
3309.000000	96.960140 
3308.000000	96.961627 
3307.000000	96.963156 
3306.000000	96.964657 
3305.000000	96.966041 
3304.000000	96.967282 
3303.000000	96.968464 
3302.000000	96.969743 
3301.000000	96.971214 
3300.000000	96.972812 
3299.000000	96.974324 
3298.000000	96.975576 
3297.000000	96.976594 
3296.000000	96.977603 
3295.000000	96.978852 
3294.000000	96.980453 
3293.000000	96.982351 
3292.000000	96.984361 
3291.000000	96.986254 
3290.000000	96.987886 
3289.000000	96.989302 
3288.000000	96.990706 
3287.000000	96.992274 
3286.000000	96.993977 
3285.000000	96.995575 
3284.000000	96.996830 
3283.000000	96.997753 
3282.000000	96.998648 
3281.000000	96.999814 
3280.000000	97.001220 
3279.000000	97.002554 
3278.000000	97.003738 
3277.000000	97.005197 
3276.000000	97.007383 
3275.000000	97.010192 
3274.000000	97.013024 
3273.000000	97.015368 
3272.000000	97.017210 
3271.000000	97.018875 
3270.000000	97.020615 
3269.000000	97.022379 
3268.000000	97.023956 
3267.000000	97.025277 
3266.000000	97.026559 
3265.000000	97.028121 
3264.000000	97.030065 
3263.000000	97.032192 
3262.000000	97.034202 
3261.000000	97.035949 
3260.000000	97.037454 
3259.000000	97.038778 
3258.000000	97.040022 
3257.000000	97.041393 
3256.000000	97.043107 
3255.000000	97.045173 
3254.000000	97.047345 
3253.000000	97.049337 
3252.000000	97.051100 
3251.000000	97.052787 
3250.000000	97.054531 
3249.000000	97.056297 
3248.000000	97.057953 
3247.000000	97.059454 
3246.000000	97.060908 
3245.000000	97.062485 
3244.000000	97.064271 
3243.000000	97.066210 
3242.000000	97.068164 
3241.000000	97.070041 
3240.000000	97.071858 
3239.000000	97.073682 
3238.000000	97.075571 
3237.000000	97.077530 
3236.000000	97.079520 
3235.000000	97.081473 
3234.000000	97.083328 
3233.000000	97.085065 
3232.000000	97.086718 
3231.000000	97.088381 
3230.000000	97.090143 
3229.000000	97.092022 
3228.000000	97.093963 
3227.000000	97.095894 
3226.000000	97.097806 
3225.000000	97.099753 
3224.000000	97.101775 
3223.000000	97.103853 
3222.000000	97.105916 
3221.000000	97.107900 
3220.000000	97.109794 
3219.000000	97.111627 
3218.000000	97.113445 
3217.000000	97.115291 
3216.000000	97.117186 
3215.000000	97.119116 
3214.000000	97.121053 
3213.000000	97.122971 
3212.000000	97.124873 
3211.000000	97.126799 
3210.000000	97.128798 
3209.000000	97.130884 
3208.000000	97.132999 
3207.000000	97.135067 
3206.000000	97.137067 
3205.000000	97.139071 
3204.000000	97.141175 
3203.000000	97.143409 
3202.000000	97.145713 
3201.000000	97.147983 
3200.000000	97.150141 
3199.000000	97.152180 
3198.000000	97.154186 
3197.000000	97.156282 
3196.000000	97.158507 
3195.000000	97.160767 
3194.000000	97.162936 
3193.000000	97.165002 
3192.000000	97.167087 
3191.000000	97.169298 
3190.000000	97.171588 
3189.000000	97.173805 
3188.000000	97.175875 
3187.000000	97.177919 
3186.000000	97.180169 
3185.000000	97.182740 
3184.000000	97.185466 
3183.000000	97.187988 
3182.000000	97.190074 
3181.000000	97.191755 
3180.000000	97.193228 
3179.000000	97.194723 
3178.000000	97.196501 
3177.000000	97.198801 
3176.000000	97.201669 
3175.000000	97.204904 
3174.000000	97.208301 
3173.000000	97.211806 
3172.000000	97.215252 
3171.000000	97.218174 
3170.000000	97.220184 
3169.000000	97.221426 
3168.000000	97.222458 
3167.000000	97.223745 
3166.000000	97.225453 
3165.000000	97.227594 
3164.000000	97.230012 
3163.000000	97.232329 
3162.000000	97.234267 
3161.000000	97.236018 
3160.000000	97.238017 
3159.000000	97.240387 
3158.000000	97.242903 
3157.000000	97.245443 
3156.000000	97.248125 
3155.000000	97.250949 
3154.000000	97.253682 
3153.000000	97.256193 
3152.000000	97.258577 
3151.000000	97.260797 
3150.000000	97.262542 
3149.000000	97.263611 
3148.000000	97.264273 
3147.000000	97.265151 
3146.000000	97.266790 
3145.000000	97.269381 
3144.000000	97.272712 
3143.000000	97.276239 
3142.000000	97.279410 
3141.000000	97.282060 
3140.000000	97.284417 
3139.000000	97.286754 
3138.000000	97.289078 
3137.000000	97.291162 
3136.000000	97.292759 
3135.000000	97.293824 
3134.000000	97.294674 
3133.000000	97.295874 
3132.000000	97.297768 
3131.000000	97.300163 
3130.000000	97.302653 
3129.000000	97.305141 
3128.000000	97.307773 
3127.000000	97.310435 
3126.000000	97.312747 
3125.000000	97.314580 
3124.000000	97.316266 
3123.000000	97.318188 
3122.000000	97.320447 
3121.000000	97.323021 
3120.000000	97.325925 
3119.000000	97.329005 
3118.000000	97.331801 
3117.000000	97.333862 
3116.000000	97.335073 
3115.000000	97.335638 
3114.000000	97.335971 
3113.000000	97.336687 
3112.000000	97.338454 
3111.000000	97.341597 
3110.000000	97.345793 
3109.000000	97.350194 
3108.000000	97.353934 
3107.000000	97.356561 
3106.000000	97.358012 
3105.000000	97.358283 
3104.000000	97.357308 
3103.000000	97.355405 
3102.000000	97.353634 
3101.000000	97.353148 
3100.000000	97.354100 
3099.000000	97.355690 
3098.000000	97.357473 
3097.000000	97.360073 
3096.000000	97.364068 
3095.000000	97.368756 
3094.000000	97.372690 
3093.000000	97.375149 
3092.000000	97.376453 
3091.000000	97.377089 
3090.000000	97.377339 
3089.000000	97.377628 
3088.000000	97.378457 
3087.000000	97.379919 
3086.000000	97.381755 
3085.000000	97.383866 
3084.000000	97.386255 
3083.000000	97.388554 
3082.000000	97.390240 
3081.000000	97.391374 
3080.000000	97.392542 
3079.000000	97.393922 
3078.000000	97.395011 
3077.000000	97.395493 
3076.000000	97.395826 
3075.000000	97.396595 
3074.000000	97.397796 
3073.000000	97.399205 
3072.000000	97.400940 
3071.000000	97.403077 
3070.000000	97.405055 
3069.000000	97.406127 
3068.000000	97.406232 
3067.000000	97.405907 
3066.000000	97.405522 
3065.000000	97.405148 
3064.000000	97.404937 
3063.000000	97.405021 
3062.000000	97.405157 
3061.000000	97.405007 
3060.000000	97.404824 
3059.000000	97.405454 
3058.000000	97.407564 
3057.000000	97.410997 
3056.000000	97.414649 
3055.000000	97.416848 
3054.000000	97.416400 
3053.000000	97.413842 
3052.000000	97.411563 
3051.000000	97.411873 
3050.000000	97.414809 
3049.000000	97.418182 
3048.000000	97.419803 
3047.000000	97.419236 
3046.000000	97.417416 
3045.000000	97.415444 
3044.000000	97.414224 
3043.000000	97.414723 
3042.000000	97.417576 
3041.000000	97.422014 
3040.000000	97.425680 
3039.000000	97.426379 
3038.000000	97.424032 
3037.000000	97.420536 
3036.000000	97.417568 
3035.000000	97.414905 
3034.000000	97.411466 
3033.000000	97.407317 
3032.000000	97.403715 
3031.000000	97.401493 
3030.000000	97.400409 
3029.000000	97.399956 
3028.000000	97.399655 
3027.000000	97.398365 
3026.000000	97.394659 
3025.000000	97.388618 
3024.000000	97.382405 
3023.000000	97.378113 
3022.000000	97.375756 
3021.000000	97.374277 
3020.000000	97.373603 
3019.000000	97.374276 
3018.000000	97.375428 
3017.000000	97.374725 
3016.000000	97.370750 
3015.000000	97.364515 
3014.000000	97.358426 
3013.000000	97.354296 
3012.000000	97.352344 
3011.000000	97.351286 
3010.000000	97.349142 
3009.000000	97.344603 
3008.000000	97.337963 
3007.000000	97.330574 
3006.000000	97.323413 
3005.000000	97.316588 
3004.000000	97.310153 
3003.000000	97.304871 
3002.000000	97.302017 
3001.000000	97.302440 
3000.000000	97.305379 
2999.000000	97.307938 
2998.000000	97.306550 
2997.000000	97.299938 
2996.000000	97.290553 
2995.000000	97.282388 
2994.000000	97.277162 
2993.000000	97.273228 
2992.000000	97.267932 
2991.000000	97.260409 
2990.000000	97.252164 
2989.000000	97.245683 
2988.000000	97.242593 
2987.000000	97.242594 
2986.000000	97.244036 
2985.000000	97.245866 
2984.000000	97.248750 
2983.000000	97.253681 
2982.000000	97.259838 
2981.000000	97.264617 
2980.000000	97.265755 
2979.000000	97.262876 
2978.000000	97.257296 
2977.000000	97.251276 
2976.000000	97.247293 
2975.000000	97.246895 
2974.000000	97.249794 
2973.000000	97.254491 
2972.000000	97.259866 
2971.000000	97.265510 
2970.000000	97.270645 
2969.000000	97.273981 
2968.000000	97.275167 
2967.000000	97.275533 
2966.000000	97.276787 
2965.000000	97.279482 
2964.000000	97.283061 
2963.000000	97.286708 
2962.000000	97.289687 
2961.000000	97.291595 
2960.000000	97.292972 
2959.000000	97.295268 
2958.000000	97.299476 
2957.000000	97.304909 
2956.000000	97.309719 
2955.000000	97.312446 
2954.000000	97.313023 
2953.000000	97.312826 
2952.000000	97.314090 
2951.000000	97.318516 
2950.000000	97.325479 
2949.000000	97.331902 
2948.000000	97.334820 
2947.000000	97.334003 
2946.000000	97.331645 
2945.000000	97.329768 
2944.000000	97.328686 
2943.000000	97.327989 
2942.000000	97.327783 
2941.000000	97.328341 
2940.000000	97.329383 
2939.000000	97.330499 
2938.000000	97.331755 
2937.000000	97.333051 
2936.000000	97.333224 
2935.000000	97.330761 
2934.000000	97.325512 
2933.000000	97.319094 
2932.000000	97.313468 
2931.000000	97.309652 
2930.000000	97.307808 
2929.000000	97.307715 
2928.000000	97.308590 
2927.000000	97.309093 
2926.000000	97.308336 
2925.000000	97.306878 
2924.000000	97.306234 
2923.000000	97.307426 
2922.000000	97.310246 
2921.000000	97.313850 
2920.000000	97.317815 
2919.000000	97.322516 
2918.000000	97.328414 
2917.000000	97.334807 
2916.000000	97.339526 
2915.000000	97.340621 
2914.000000	97.338649 
2913.000000	97.336663 
2912.000000	97.337311 
2911.000000	97.340218 
2910.000000	97.342898 
2909.000000	97.343941 
2908.000000	97.344477 
2907.000000	97.346350 
2906.000000	97.349653 
2905.000000	97.352506 
2904.000000	97.353027 
2903.000000	97.351146 
2902.000000	97.349119 
2901.000000	97.349610 
2900.000000	97.353608 
2899.000000	97.360028 
2898.000000	97.366985 
2897.000000	97.373436 
2896.000000	97.379067 
2895.000000	97.383325 
2894.000000	97.385805 
2893.000000	97.387588 
2892.000000	97.390817 
2891.000000	97.396196 
2890.000000	97.401818 
2889.000000	97.405393 
2888.000000	97.406919 
2887.000000	97.408132 
2886.000000	97.409913 
2885.000000	97.411636 
2884.000000	97.413161 
2883.000000	97.415823 
2882.000000	97.420618 
2881.000000	97.426432 
2880.000000	97.431230 
2879.000000	97.434730 
2878.000000	97.438748 
2877.000000	97.444791 
2876.000000	97.452196 
2875.000000	97.459007 
2874.000000	97.463950 
2873.000000	97.466965 
2872.000000	97.468505 
2871.000000	97.469206 
2870.000000	97.469914 
2869.000000	97.471165 
2868.000000	97.472537 
2867.000000	97.473138 
2866.000000	97.472943 
2865.000000	97.473064 
2864.000000	97.474514 
2863.000000	97.477297 
2862.000000	97.480975 
2861.000000	97.485321 
2860.000000	97.489820 
2859.000000	97.493340 
2858.000000	97.495345 
2857.000000	97.497089 
2856.000000	97.500549 
2855.000000	97.506119 
2854.000000	97.512102 
2853.000000	97.516679 
2852.000000	97.519850 
2851.000000	97.523125 
2850.000000	97.527854 
2849.000000	97.534185 
2848.000000	97.541184 
2847.000000	97.547559 
2846.000000	97.552551 
2845.000000	97.556480 
2844.000000	97.560389 
2843.000000	97.565057 
2842.000000	97.570393 
2841.000000	97.575626 
2840.000000	97.579800 
2839.000000	97.582339 
2838.000000	97.583628 
2837.000000	97.584982 
2836.000000	97.587520 
2835.000000	97.590958 
2834.000000	97.594050 
2833.000000	97.596299 
2832.000000	97.598541 
2831.000000	97.601615 
2830.000000	97.605071 
2829.000000	97.607776 
2828.000000	97.609464 
2827.000000	97.611093 
2826.000000	97.613762 
2825.000000	97.617613 
2824.000000	97.621803 
2823.000000	97.625211 
2822.000000	97.627160 
2821.000000	97.627740 
2820.000000	97.627604 
2819.000000	97.627403 
2818.000000	97.627445 
2817.000000	97.627868 
2816.000000	97.628927 
2815.000000	97.630854 
2814.000000	97.633439 
2813.000000	97.635877 
2812.000000	97.637264 
2811.000000	97.637359 
2810.000000	97.636918 
2809.000000	97.637178 
2808.000000	97.638860 
2807.000000	97.641691 
2806.000000	97.644783 
2805.000000	97.647358 
2804.000000	97.649128 
2803.000000	97.650207 
2802.000000	97.650972 
2801.000000	97.651951 
2800.000000	97.653517 
2799.000000	97.655543 
2798.000000	97.657463 
2797.000000	97.658776 
2796.000000	97.659461 
2795.000000	97.659874 
2794.000000	97.660435 
2793.000000	97.661358 
2792.000000	97.662609 
2791.000000	97.664020 
2790.000000	97.665400 
2789.000000	97.666643 
2788.000000	97.667770 
2787.000000	97.668877 
2786.000000	97.670038 
2785.000000	97.671245 
2784.000000	97.672438 
2783.000000	97.673578 
2782.000000	97.674671 
2781.000000	97.675751 
2780.000000	97.676837 
2779.000000	97.677933 
2778.000000	97.679035 
2777.000000	97.680135 
2776.000000	97.681221 
2775.000000	97.682276 
2774.000000	97.683292 
2773.000000	97.684274 
2772.000000	97.685229 
2771.000000	97.686158 
2770.000000	97.687082 
2769.000000	97.688056 
2768.000000	97.689117 
2767.000000	97.690241 
2766.000000	97.691362 
2765.000000	97.692430 
2764.000000	97.693444 
2763.000000	97.694412 
2762.000000	97.695326 
2761.000000	97.696174 
2760.000000	97.696983 
2759.000000	97.697809 
2758.000000	97.698691 
2757.000000	97.699609 
2756.000000	97.700492 
2755.000000	97.701285 
2754.000000	97.702009 
2753.000000	97.702734 
2752.000000	97.703505 
2751.000000	97.704304 
2750.000000	97.705095 
2749.000000	97.705874 
2748.000000	97.706637 
2747.000000	97.707344 
2746.000000	97.707968 
2745.000000	97.708543 
2744.000000	97.709146 
2743.000000	97.709804 
2742.000000	97.710484 
2741.000000	97.711134 
2740.000000	97.711745 
2739.000000	97.712348 
2738.000000	97.712968 
2737.000000	97.713604 
2736.000000	97.714247 
2735.000000	97.714899 
2734.000000	97.715565 
2733.000000	97.716246 
2732.000000	97.716940 
2731.000000	97.717640 
2730.000000	97.718335 
2729.000000	97.719013 
2728.000000	97.719660 
2727.000000	97.720272 
2726.000000	97.720853 
2725.000000	97.721416 
2724.000000	97.721974 
2723.000000	97.722534 
2722.000000	97.723096 
2721.000000	97.723661 
2720.000000	97.724228 
2719.000000	97.724802 
2718.000000	97.725383 
2717.000000	97.725970 
2716.000000	97.726558 
2715.000000	97.727146 
2714.000000	97.727734 
2713.000000	97.728326 
2712.000000	97.728921 
2711.000000	97.729517 
2710.000000	97.730105 
2709.000000	97.730685 
2708.000000	97.731258 
2707.000000	97.731831 
2706.000000	97.732405 
2705.000000	97.732982 
2704.000000	97.733558 
2703.000000	97.734117 
2702.000000	97.734634 
2701.000000	97.735107 
2700.000000	97.735585 
2699.000000	97.736123 
2698.000000	97.736730 
2697.000000	97.737327 
2696.000000	97.737807 
2695.000000	97.738130 
2694.000000	97.738362 
2693.000000	97.738603 
2692.000000	97.738873 
2691.000000	97.739115 
2690.000000	97.739263 
2689.000000	97.739323 
2688.000000	97.739373 
2687.000000	97.739491 
2686.000000	97.739703 
2685.000000	97.740003 
2684.000000	97.740355 
2683.000000	97.740658 
2682.000000	97.740778 
2681.000000	97.740672 
2680.000000	97.740462 
2679.000000	97.740339 
2678.000000	97.740397 
2677.000000	97.740611 
2676.000000	97.740898 
2675.000000	97.741116 
2674.000000	97.741086 
2673.000000	97.740744 
2672.000000	97.740241 
2671.000000	97.739769 
2670.000000	97.739340 
2669.000000	97.738894 
2668.000000	97.738496 
2667.000000	97.738247 
2666.000000	97.738037 
2665.000000	97.737606 
2664.000000	97.736909 
2663.000000	97.736238 
2662.000000	97.735892 
2661.000000	97.735800 
2660.000000	97.735591 
2659.000000	97.735002 
2658.000000	97.734128 
2657.000000	97.733303 
2656.000000	97.732797 
2655.000000	97.732598 
2654.000000	97.732427 
2653.000000	97.731965 
2652.000000	97.731143 
2651.000000	97.730228 
2650.000000	97.729594 
2649.000000	97.729356 
2648.000000	97.729274 
2647.000000	97.728999 
2646.000000	97.728379 
2645.000000	97.727523 
2644.000000	97.726679 
2643.000000	97.726089 
2642.000000	97.725865 
2641.000000	97.725898 
2640.000000	97.725939 
2639.000000	97.725823 
2638.000000	97.725588 
2637.000000	97.725343 
2636.000000	97.725143 
2635.000000	97.725045 
2634.000000	97.725182 
2633.000000	97.725602 
2632.000000	97.726070 
2631.000000	97.726203 
2630.000000	97.725864 
2629.000000	97.725285 
2628.000000	97.724805 
2627.000000	97.724524 
2626.000000	97.724346 
2625.000000	97.724239 
2624.000000	97.724283 
2623.000000	97.724498 
2622.000000	97.724749 
2621.000000	97.724836 
2620.000000	97.724619 
2619.000000	97.724060 
2618.000000	97.723271 
2617.000000	97.722563 
2616.000000	97.722293 
2615.000000	97.722575 
2614.000000	97.723217 
2613.000000	97.723885 
2612.000000	97.724352 
2611.000000	97.724587 
2610.000000	97.724689 
2609.000000	97.724782 
2608.000000	97.724911 
2607.000000	97.725029 
2606.000000	97.725129 
2605.000000	97.725333 
2604.000000	97.725715 
2603.000000	97.726071 
2602.000000	97.726103 
2601.000000	97.725847 
2600.000000	97.725719 
2599.000000	97.725985 
2598.000000	97.726394 
2597.000000	97.726501 
2596.000000	97.726181 
2595.000000	97.725641 
2594.000000	97.725123 
2593.000000	97.724839 
2592.000000	97.725046 
2591.000000	97.725800 
2590.000000	97.726671 
2589.000000	97.727074 
2588.000000	97.727010 
2587.000000	97.727153 
2586.000000	97.728050 
2585.000000	97.729499 
2584.000000	97.730810 
2583.000000	97.731517 
2582.000000	97.731654 
2581.000000	97.731496 
2580.000000	97.731304 
2579.000000	97.731366 
2578.000000	97.732018 
2577.000000	97.733332 
2576.000000	97.734783 
2575.000000	97.735492 
2574.000000	97.735001 
2573.000000	97.733697 
2572.000000	97.732424 
2571.000000	97.731608 
2570.000000	97.731040 
2569.000000	97.730491 
2568.000000	97.730187 
2567.000000	97.730483 
2566.000000	97.731335 
2565.000000	97.732404 
2564.000000	97.733448 
2563.000000	97.734305 
2562.000000	97.734711 
2561.000000	97.734575 
2560.000000	97.734487 
2559.000000	97.735451 
2558.000000	97.737833 
2557.000000	97.740798 
2556.000000	97.742961 
2555.000000	97.743748 
2554.000000	97.743697 
2553.000000	97.743626 
2552.000000	97.743747 
2551.000000	97.743872 
2550.000000	97.744098 
2549.000000	97.744690 
2548.000000	97.745342 
2547.000000	97.745289 
2546.000000	97.744389 
2545.000000	97.743566 
2544.000000	97.743715 
2543.000000	97.744544 
2542.000000	97.745065 
2541.000000	97.745078 
2540.000000	97.745450 
2539.000000	97.746820 
2538.000000	97.748686 
2537.000000	97.749997 
2536.000000	97.750391 
2535.000000	97.750446 
2534.000000	97.750890 
2533.000000	97.751806 
2532.000000	97.752688 
2531.000000	97.753061 
2530.000000	97.752862 
2529.000000	97.752267 
2528.000000	97.751369 
2527.000000	97.750260 
2526.000000	97.749395 
2525.000000	97.749465 
2524.000000	97.750716 
2523.000000	97.752545 
2522.000000	97.753990 
2521.000000	97.754679 
2520.000000	97.755000 
2519.000000	97.755394 
2518.000000	97.755769 
2517.000000	97.755674 
2516.000000	97.754795 
2515.000000	97.753251 
2514.000000	97.751657 
2513.000000	97.750862 
2512.000000	97.751328 
2511.000000	97.752743 
2510.000000	97.754418 
2509.000000	97.755967 
2508.000000	97.757353 
2507.000000	97.758438 
2506.000000	97.759096 
2505.000000	97.759674 
2504.000000	97.760754 
2503.000000	97.762304 
2502.000000	97.763518 
2501.000000	97.763745 
2500.000000	97.763195 
2499.000000	97.762593 
2498.000000	97.762414 
2497.000000	97.762674 
2496.000000	97.763278 
2495.000000	97.764199 
2494.000000	97.765300 
2493.000000	97.766277 
2492.000000	97.766945 
2491.000000	97.767499 
2490.000000	97.768317 
2489.000000	97.769447 
2488.000000	97.770393 
2487.000000	97.770666 
2486.000000	97.770430 
2485.000000	97.770432 
2484.000000	97.771170 
2483.000000	97.772310 
2482.000000	97.773082 
2481.000000	97.773180 
2480.000000	97.773003 
2479.000000	97.773040 
2478.000000	97.773368 
2477.000000	97.773813 
2476.000000	97.774277 
2475.000000	97.774747 
2474.000000	97.775196 
2473.000000	97.775543 
2472.000000	97.775569 
2471.000000	97.774964 
2470.000000	97.773751 
2469.000000	97.772646 
2468.000000	97.772535 
2467.000000	97.773485 
2466.000000	97.774570 
2465.000000	97.774879 
2464.000000	97.774538 
2463.000000	97.774449 
2462.000000	97.775258 
2461.000000	97.776882 
2460.000000	97.778791 
2459.000000	97.780422 
2458.000000	97.781361 
2457.000000	97.781378 
2456.000000	97.780452 
2455.000000	97.778801 
2454.000000	97.776915 
2453.000000	97.775350 
2452.000000	97.774349 
2451.000000	97.773799 
2450.000000	97.773702 
2449.000000	97.774403 
2448.000000	97.775964 
2447.000000	97.777576 
2446.000000	97.778131 
2445.000000	97.777371 
2444.000000	97.776094 
2443.000000	97.775316 
2442.000000	97.775501 
2441.000000	97.776554 
2440.000000	97.778036 
2439.000000	97.779397 
2438.000000	97.780470 
2437.000000	97.781698 
2436.000000	97.783498 
2435.000000	97.785458 
2434.000000	97.786641 
2433.000000	97.786708 
2432.000000	97.786228 
2431.000000	97.786027 
2430.000000	97.786460 
2429.000000	97.787407 
2428.000000	97.788572 
2427.000000	97.789596 
2426.000000	97.790214 
2425.000000	97.790434 
2424.000000	97.790492 
2423.000000	97.790620 
2422.000000	97.790898 
2421.000000	97.791369 
2420.000000	97.792144 
2419.000000	97.793205 
2418.000000	97.794244 
2417.000000	97.794977 
2416.000000	97.795473 
2415.000000	97.795967 
2414.000000	97.796353 
2413.000000	97.796551 
2412.000000	97.797100 
2411.000000	97.798418 
2410.000000	97.799862 
2409.000000	97.800513 
2408.000000	97.800645 
2407.000000	97.801391 
2406.000000	97.803105 
2405.000000	97.804888 
2404.000000	97.805682 
2403.000000	97.805175 
2402.000000	97.803831 
2401.000000	97.802622 
2400.000000	97.802511 
2399.000000	97.803613 
2398.000000	97.805020 
2397.000000	97.805930 
2396.000000	97.806554 
2395.000000	97.807347 
2394.000000	97.807931 
2393.000000	97.807701 
2392.000000	97.807119 
2391.000000	97.807300 
2390.000000	97.808336 
2389.000000	97.808990 
2388.000000	97.808102 
2387.000000	97.805522 
2386.000000	97.801700 
2385.000000	97.797260 
2384.000000	97.793137 
2383.000000	97.790349 
2382.000000	97.789561 
2381.000000	97.791463 
2380.000000	97.797195 
2379.000000	97.807247 
2378.000000	97.819276 
2377.000000	97.828222 
2376.000000	97.830283 
2375.000000	97.825865 
2374.000000	97.818452 
2373.000000	97.810833 
2372.000000	97.803746 
2371.000000	97.798115 
2370.000000	97.795864 
2369.000000	97.797502 
2368.000000	97.800126 
2367.000000	97.799336 
2366.000000	97.793514 
2365.000000	97.785769 
2364.000000	97.780840 
2363.000000	97.779808 
2362.000000	97.780491 
2361.000000	97.781368 
2360.000000	97.781374 
2359.000000	97.779748 
2358.000000	97.776084 
2357.000000	97.772484 
2356.000000	97.771214 
2355.000000	97.770615 
2354.000000	97.768920 
2353.000000	97.765185 
2352.000000	97.761457 
2351.000000	97.759241 
2350.000000	97.755761 
2349.000000	97.749691 
2348.000000	97.742531 
2347.000000	97.739296 
2346.000000	97.738185 
2345.000000	97.733584 
2344.000000	97.725781 
2343.000000	97.718004 
2342.000000	97.717526 
2341.000000	97.727383 
2340.000000	97.744204 
2339.000000	97.757856 
2338.000000	97.761236 
2337.000000	97.755792 
2336.000000	97.748282 
2335.000000	97.741433 
2334.000000	97.734150 
2333.000000	97.722938 
2332.000000	97.708293 
2331.000000	97.692800 
2330.000000	97.675794 
2329.000000	97.655903 
2328.000000	97.629572 
2327.000000	97.601225 
2326.000000	97.576601 
2325.000000	97.560222 
2324.000000	97.554742 
2323.000000	97.558120 
2322.000000	97.566738 
2321.000000	97.571947 
2320.000000	97.571284 
2319.000000	97.569360 
2318.000000	97.573823 
2317.000000	97.586206 
2316.000000	97.601931 
2315.000000	97.615546 
2314.000000	97.623326 
2313.000000	97.624816 
2312.000000	97.621626 
2311.000000	97.617321 
2310.000000	97.613059 
2309.000000	97.607663 
2308.000000	97.601074 
2307.000000	97.597288 
2306.000000	97.599765 
2305.000000	97.606047 
2304.000000	97.610960 
2303.000000	97.613134 
2302.000000	97.616171 
2301.000000	97.622359 
2300.000000	97.629101 
2299.000000	97.632455 
2298.000000	97.631380 
2297.000000	97.628692 
2296.000000	97.627270 
2295.000000	97.628695 
2294.000000	97.632256 
2293.000000	97.636302 
2292.000000	97.639184 
2291.000000	97.641016 
2290.000000	97.643477 
2289.000000	97.647995 
2288.000000	97.654066 
2287.000000	97.659698 
2286.000000	97.663603 
2285.000000	97.666381 
2284.000000	97.669735 
2283.000000	97.674319 
2282.000000	97.679146 
2281.000000	97.682698 
2280.000000	97.684417 
2279.000000	97.684719 
2278.000000	97.684533 
2277.000000	97.684832 
2276.000000	97.686199 
2275.000000	97.688564 
2274.000000	97.691438 
2273.000000	97.694591 
2272.000000	97.698112 
2271.000000	97.701707 
2270.000000	97.704415 
2269.000000	97.705676 
2268.000000	97.706303 
2267.000000	97.707757 
2266.000000	97.710504 
2265.000000	97.713680 
2264.000000	97.716164 
2263.000000	97.717449 
2262.000000	97.717500 
2261.000000	97.716555 
2260.000000	97.715215 
2259.000000	97.714127 
2258.000000	97.713537 
2257.000000	97.713456 
2256.000000	97.714181 
2255.000000	97.716035 
2254.000000	97.718621 
2253.000000	97.720738 
2252.000000	97.721463 
2251.000000	97.720865 
2250.000000	97.719556 
2249.000000	97.718068 
2248.000000	97.716820 
2247.000000	97.716275 
2246.000000	97.716599 
2245.000000	97.717394 
2244.000000	97.717934 
2243.000000	97.717867 
2242.000000	97.717387 
2241.000000	97.716925 
2240.000000	97.716766 
2239.000000	97.716906 
2238.000000	97.717145 
2237.000000	97.717237 
2236.000000	97.717050 
2235.000000	97.716625 
2234.000000	97.716090 
2233.000000	97.715527 
2232.000000	97.714959 
2231.000000	97.714440 
2230.000000	97.714021 
2229.000000	97.713623 
2228.000000	97.713108 
2227.000000	97.712477 
2226.000000	97.711888 
2225.000000	97.711422 
2224.000000	97.710951 
2223.000000	97.710325 
2222.000000	97.709609 
2221.000000	97.709002 
2220.000000	97.708561 
2219.000000	97.708168 
2218.000000	97.707731 
2217.000000	97.707345 
2216.000000	97.707180 
2215.000000	97.707256 
2214.000000	97.707396 
2213.000000	97.707378 
2212.000000	97.707117 
2211.000000	97.706708 
2210.000000	97.706303 
2209.000000	97.705959 
2208.000000	97.705636 
2207.000000	97.705338 
2206.000000	97.705187 
2205.000000	97.705315 
2204.000000	97.705796 
2203.000000	97.706578 
2202.000000	97.707434 
2201.000000	97.707979 
2200.000000	97.707694 
2199.000000	97.706293 
2198.000000	97.704093 
2197.000000	97.702034 
2196.000000	97.701046 
2195.000000	97.701297 
2194.000000	97.702124 
2193.000000	97.702967 
2192.000000	97.704040 
2191.000000	97.705642 
2190.000000	97.707323 
2189.000000	97.708335 
2188.000000	97.708662 
2187.000000	97.708784 
2186.000000	97.708517 
2185.000000	97.707141 
2184.000000	97.705133 
2183.000000	97.704738 
2182.000000	97.707726 
2181.000000	97.713067 
2180.000000	97.717476 
2179.000000	97.718829 
2178.000000	97.718063 
2177.000000	97.717782 
2176.000000	97.719303 
2175.000000	97.721460 
2174.000000	97.722225 
2173.000000	97.721184 
2172.000000	97.720230 
2171.000000	97.721685 
2170.000000	97.725822 
2169.000000	97.730429 
2168.000000	97.733150 
2167.000000	97.733972 
2166.000000	97.734503 
2165.000000	97.734929 
2164.000000	97.733159 
2163.000000	97.728213 
2162.000000	97.723742 
2161.000000	97.725940 
2160.000000	97.737737 
2159.000000	97.756220 
2158.000000	97.774909 
2157.000000	97.788728 
2156.000000	97.795885 
2155.000000	97.796820 
2154.000000	97.794047 
2153.000000	97.791965 
2152.000000	97.793759 
2151.000000	97.797955 
2150.000000	97.799929 
2149.000000	97.797478 
2148.000000	97.793442 
2147.000000	97.791876 
2146.000000	97.793097 
2145.000000	97.794489 
2144.000000	97.795121 
2143.000000	97.797059 
2142.000000	97.801838 
2141.000000	97.807937 
2140.000000	97.812992 
2139.000000	97.817120 
2138.000000	97.822373 
2137.000000	97.829101 
2136.000000	97.834328 
2135.000000	97.834314 
2134.000000	97.828093 
2133.000000	97.818662 
2132.000000	97.810921 
2131.000000	97.807973 
2130.000000	97.809387 
2129.000000	97.812569 
2128.000000	97.815435 
2127.000000	97.817742 
2126.000000	97.820169 
2125.000000	97.822750 
2124.000000	97.824385 
2123.000000	97.823517 
2122.000000	97.819258 
2121.000000	97.812328 
2120.000000	97.804896 
2119.000000	97.798977 
2118.000000	97.795111 
2117.000000	97.792663 
2116.000000	97.790818 
2115.000000	97.788705 
2114.000000	97.785018 
2113.000000	97.779172 
2112.000000	97.773088 
2111.000000	97.770221 
2110.000000	97.772114 
2109.000000	97.776756 
2108.000000	97.780856 
2107.000000	97.782867 
2106.000000	97.783092 
2105.000000	97.782408 
2104.000000	97.781957 
2103.000000	97.782767 
2102.000000	97.784258 
2101.000000	97.783860 
2100.000000	97.779755 
2099.000000	97.773890 
2098.000000	97.770905 
2097.000000	97.773634 
2096.000000	97.780719 
2095.000000	97.788319 
2094.000000	97.793403 
2093.000000	97.795111 
2092.000000	97.793929 
2091.000000	97.791004 
2090.000000	97.788002 
2089.000000	97.786410 
2088.000000	97.786293 
2087.000000	97.785939 
2086.000000	97.783293 
2085.000000	97.777991 
2084.000000	97.771964 
2083.000000	97.767868 
2082.000000	97.766839 
2081.000000	97.767946 
2080.000000	97.769511 
2079.000000	97.770598 
2078.000000	97.771078 
2077.000000	97.770931 
2076.000000	97.770285 
2075.000000	97.769932 
2074.000000	97.770691 
2073.000000	97.771760 
2072.000000	97.770674 
2071.000000	97.765739 
2070.000000	97.758147 
2069.000000	97.751359 
2068.000000	97.748271 
2067.000000	97.749232 
2066.000000	97.752346 
2065.000000	97.754950 
2064.000000	97.755269 
2063.000000	97.753289 
2062.000000	97.750571 
2061.000000	97.749029 
2060.000000	97.749392 
2059.000000	97.750905 
2058.000000	97.752450 
2057.000000	97.753543 
2056.000000	97.754033 
2055.000000	97.753350 
2054.000000	97.750959 
2053.000000	97.747635 
2052.000000	97.745341 
2051.000000	97.745240 
2050.000000	97.746603 
2049.000000	97.747880 
2048.000000	97.748422 
2047.000000	97.748662 
2046.000000	97.749114 
2045.000000	97.750125 
2044.000000	97.752287 
2043.000000	97.756041 
2042.000000	97.760743 
2041.000000	97.764994 
2040.000000	97.768322 
2039.000000	97.771769 
2038.000000	97.776131 
2037.000000	97.780143 
2036.000000	97.781392 
2035.000000	97.779057 
2034.000000	97.775233 
2033.000000	97.773380 
2032.000000	97.775219 
2031.000000	97.779281 
2030.000000	97.782164 
2029.000000	97.781402 
2028.000000	97.777293 
2027.000000	97.772242 
2026.000000	97.768659 
2025.000000	97.767794 
2024.000000	97.770071 
2023.000000	97.775494 
2022.000000	97.783196 
2021.000000	97.790901 
2020.000000	97.795737 
2019.000000	97.795809 
2018.000000	97.791088 
2017.000000	97.783548 
2016.000000	97.776492 
2015.000000	97.772429 
2014.000000	97.771054 
2013.000000	97.769702 
2012.000000	97.766833 
2011.000000	97.764929 
2010.000000	97.768255 
2009.000000	97.777673 
2008.000000	97.788625 
2007.000000	97.795283 
2006.000000	97.795901 
2005.000000	97.792711 
2004.000000	97.788532 
2003.000000	97.784903 
2002.000000	97.782654 
2001.000000	97.781705 
2000.000000	97.780117 
1999.000000	97.775326 
1998.000000	97.766994 
1997.000000	97.757823 
1996.000000	97.751076 
1995.000000	97.747885 
1994.000000	97.747219 
1993.000000	97.747391 
1992.000000	97.747183 
1991.000000	97.746674 
1990.000000	97.747580 
1989.000000	97.751520 
1988.000000	97.757146 
1987.000000	97.760016 
1986.000000	97.756708 
1985.000000	97.748585 
1984.000000	97.740091 
1983.000000	97.733662 
1982.000000	97.728429 
1981.000000	97.724068 
1980.000000	97.723206 
1979.000000	97.727937 
1978.000000	97.735473 
1977.000000	97.740045 
1976.000000	97.739665 
1975.000000	97.738308 
1974.000000	97.740933 
1973.000000	97.748574 
1972.000000	97.758260 
1971.000000	97.765974 
1970.000000	97.769194 
1969.000000	97.767490 
1968.000000	97.762221 
1967.000000	97.756015 
1966.000000	97.751866 
1965.000000	97.751740 
1964.000000	97.755808 
1963.000000	97.762615 
1962.000000	97.769911 
1961.000000	97.775470 
1960.000000	97.777553 
1959.000000	97.775521 
1958.000000	97.770766 
1957.000000	97.766504 
1956.000000	97.765179 
1955.000000	97.766246 
1954.000000	97.767444 
1953.000000	97.767828 
1952.000000	97.768213 
1951.000000	97.768816 
1950.000000	97.768543 
1949.000000	97.767170 
1948.000000	97.766480 
1947.000000	97.768125 
1946.000000	97.771396 
1945.000000	97.774186 
1944.000000	97.775361 
1943.000000	97.775088 
1942.000000	97.773597 
1941.000000	97.770945 
1940.000000	97.767729 
1939.000000	97.764879 
1938.000000	97.762951 
1937.000000	97.762260 
1936.000000	97.763018 
1935.000000	97.764643 
1934.000000	97.765546 
1933.000000	97.764743 
1932.000000	97.763314 
1931.000000	97.763096 
1930.000000	97.764307 
1929.000000	97.765583 
1928.000000	97.766288 
1927.000000	97.767233 
1926.000000	97.768848 
1925.000000	97.770099 
1924.000000	97.769762 
1923.000000	97.767790 
1922.000000	97.764893 
1921.000000	97.761640 
1920.000000	97.758666 
1919.000000	97.756629 
1918.000000	97.755168 
1917.000000	97.752893 
1916.000000	97.749361 
1915.000000	97.745999 
1914.000000	97.744219 
1913.000000	97.743661 
1912.000000	97.742828 
1911.000000	97.740996 
1910.000000	97.738802 
1909.000000	97.737211 
1908.000000	97.736634 
1907.000000	97.736771 
1906.000000	97.736593 
1905.000000	97.734733 
1904.000000	97.730709 
1903.000000	97.725871 
1902.000000	97.722354 
1901.000000	97.720795 
1900.000000	97.719989 
1899.000000	97.718631 
1898.000000	97.716822 
1897.000000	97.715422 
1896.000000	97.714460 
1895.000000	97.712963 
1894.000000	97.710272 
1893.000000	97.706868 
1892.000000	97.703913 
1891.000000	97.702329 
1890.000000	97.702239 
1889.000000	97.702923 
1888.000000	97.703544 
1887.000000	97.703905 
1886.000000	97.704021 
1885.000000	97.703347 
1884.000000	97.701216 
1883.000000	97.698105 
1882.000000	97.695838 
1881.000000	97.695849 
1880.000000	97.697685 
1879.000000	97.699264 
1878.000000	97.698868 
1877.000000	97.696957 
1876.000000	97.695771 
1875.000000	97.696993 
1874.000000	97.700240 
1873.000000	97.703580 
1872.000000	97.705343 
1871.000000	97.705242 
1870.000000	97.704125 
1869.000000	97.703357 
1868.000000	97.703978 
1867.000000	97.706156 
1866.000000	97.708953 
1865.000000	97.710513 
1864.000000	97.709825 
1863.000000	97.708255 
1862.000000	97.708259 
1861.000000	97.710680 
1860.000000	97.714299 
1859.000000	97.717940 
1858.000000	97.721632 
1857.000000	97.725573 
1856.000000	97.729624 
1855.000000	97.733836 
1854.000000	97.737723 
1853.000000	97.739777 
1852.000000	97.740005 
1851.000000	97.741548 
1850.000000	97.747315 
1849.000000	97.756067 
1848.000000	97.763569 
1847.000000	97.767802 
1846.000000	97.770634 
1845.000000	97.774369 
1844.000000	97.778565 
1843.000000	97.781873 
1842.000000	97.784692 
1841.000000	97.787740 
1840.000000	97.791346 
1839.000000	97.795889 
1838.000000	97.800549 
1837.000000	97.802644 
1836.000000	97.800591 
1835.000000	97.797364 
1834.000000	97.797705 
1833.000000	97.802419 
1832.000000	97.808270 
1831.000000	97.811869 
1830.000000	97.812654 
1829.000000	97.812604 
1828.000000	97.813512 
1827.000000	97.815196 
1826.000000	97.816560 
1825.000000	97.817135 
1824.000000	97.817183 
1823.000000	97.817394 
1822.000000	97.818517 
1821.000000	97.820192 
1820.000000	97.820777 
1819.000000	97.819210 
1818.000000	97.816931 
1817.000000	97.816205 
1816.000000	97.816789 
1815.000000	97.817209 
1814.000000	97.817904 
1813.000000	97.820587 
1812.000000	97.824591 
1811.000000	97.826083 
1810.000000	97.823325 
1809.000000	97.819299 
1808.000000	97.817145 
1807.000000	97.816943 
1806.000000	97.817860 
1805.000000	97.819512 
1804.000000	97.820576 
1803.000000	97.818731 
1802.000000	97.813269 
1801.000000	97.807067 
1800.000000	97.803390 
1799.000000	97.802637 
1798.000000	97.804328 
1797.000000	97.807833 
1796.000000	97.811117 
1795.000000	97.812240 
1794.000000	97.811444 
1793.000000	97.810569 
1792.000000	97.809730 
1791.000000	97.807265 
1790.000000	97.804260 
1789.000000	97.803938 
1788.000000	97.807412 
1787.000000	97.812772 
1786.000000	97.817425 
1785.000000	97.820144 
1784.000000	97.821040 
1783.000000	97.821309 
1782.000000	97.822462 
1781.000000	97.825490 
1780.000000	97.829927 
1779.000000	97.834348 
1778.000000	97.838657 
1777.000000	97.843467 
1776.000000	97.848121 
1775.000000	97.851143 
1774.000000	97.851745 
1773.000000	97.851148 
1772.000000	97.851237 
1771.000000	97.852123 
1770.000000	97.853261 
1769.000000	97.855078 
1768.000000	97.858188 
1767.000000	97.861589 
1766.000000	97.863684 
1765.000000	97.864869 
1764.000000	97.866927 
1763.000000	97.870439 
1762.000000	97.873818 
1761.000000	97.875854 
1760.000000	97.877345 
1759.000000	97.878923 
1758.000000	97.879842 
1757.000000	97.879594 
1756.000000	97.879358 
1755.000000	97.879847 
1754.000000	97.879540 
1753.000000	97.876922 
1752.000000	97.873442 
1751.000000	97.872933 
1750.000000	97.876680 
1749.000000	97.881775 
1748.000000	97.885084 
1747.000000	97.886374 
1746.000000	97.886804 
1745.000000	97.887512 
1744.000000	97.889168 
1743.000000	97.891061 
1742.000000	97.891438 
1741.000000	97.890001 
1740.000000	97.888884 
1739.000000	97.890007 
1738.000000	97.892130 
1737.000000	97.892884 
1736.000000	97.891540 
1735.000000	97.889845 
1734.000000	97.889179 
1733.000000	97.888559 
1732.000000	97.888752 
1731.000000	97.891673 
1730.000000	97.896873 
1729.000000	97.901255 
1728.000000	97.902685 
1727.000000	97.902146 
1726.000000	97.901837 
1725.000000	97.902670 
1724.000000	97.903991 
1723.000000	97.904750 
1722.000000	97.904510 
1721.000000	97.902770 
1720.000000	97.899088 
1719.000000	97.893904 
1718.000000	97.889020 
1717.000000	97.886389 
1716.000000	97.884731 
1715.000000	97.881953 
1714.000000	97.879216 
1713.000000	97.877692 
1712.000000	97.876409 
1711.000000	97.874999 
1710.000000	97.874146 
1709.000000	97.873525 
1708.000000	97.871896 
1707.000000	97.869077 
1706.000000	97.866496 
1705.000000	97.864301 
1704.000000	97.859490 
1703.000000	97.850537 
1702.000000	97.839611 
1701.000000	97.832961 
1700.000000	97.831475 
1699.000000	97.828113 
1698.000000	97.822669 
1697.000000	97.819151 
1696.000000	97.817640 
1695.000000	97.815259 
1694.000000	97.811324 
1693.000000	97.807137 
1692.000000	97.802450 
1691.000000	97.797140 
1690.000000	97.791772 
1689.000000	97.786521 
1688.000000	97.780840 
1687.000000	97.774488 
1686.000000	97.768560 
1685.000000	97.765268 
1684.000000	97.763471 
1683.000000	97.759937 
1682.000000	97.755058 
1681.000000	97.749909 
1680.000000	97.745252 
1679.000000	97.741414 
1678.000000	97.738037 
1677.000000	97.734765 
1676.000000	97.731851 
1675.000000	97.728978 
1674.000000	97.724637 
1673.000000	97.718597 
1672.000000	97.712328 
1671.000000	97.707505 
1670.000000	97.704440 
1669.000000	97.701224 
1668.000000	97.697230 
1667.000000	97.693802 
1666.000000	97.690842 
1665.000000	97.687640 
1664.000000	97.685023 
1663.000000	97.683963 
1662.000000	97.682327 
1661.000000	97.676996 
1660.000000	97.668962 
1659.000000	97.661965 
1658.000000	97.658405 
1657.000000	97.656141 
1656.000000	97.652102 
1655.000000	97.645166 
1654.000000	97.639956 
1653.000000	97.634519 
1652.000000	97.623674 
1651.000000	97.616617 
1650.000000	97.614248 
1649.000000	97.611824 
1648.000000	97.609130 
1647.000000	97.606683 
1646.000000	97.602221 
1645.000000	97.596132 
1644.000000	97.591360 
1643.000000	97.588953 
1642.000000	97.588200 
1641.000000	97.588460 
1640.000000	97.588857 
1639.000000	97.588115 
1638.000000	97.585511 
1637.000000	97.582223 
1636.000000	97.579335 
1635.000000	97.576555 
1634.000000	97.575292 
1633.000000	97.575563 
1632.000000	97.574656 
1631.000000	97.572757 
1630.000000	97.572806 
1629.000000	97.575754 
1628.000000	97.580203 
1627.000000	97.584951 
1626.000000	97.588995 
1625.000000	97.590964 
1624.000000	97.591563 
1623.000000	97.593755 
1622.000000	97.598142 
1621.000000	97.601084 
1620.000000	97.599780 
1619.000000	97.595537 
1618.000000	97.592718 
1617.000000	97.592320 
1616.000000	97.590893 
1615.000000	97.589864 
1614.000000	97.591436 
1613.000000	97.592650 
1612.000000	97.591836 
1611.000000	97.591500 
1610.000000	97.593857 
1609.000000	97.598038 
1608.000000	97.603402 
1607.000000	97.611069 
1606.000000	97.619566 
1605.000000	97.625760 
1604.000000	97.630272 
1603.000000	97.636578 
1602.000000	97.645489 
1601.000000	97.654195 
1600.000000	97.661138 
1599.000000	97.667844 
1598.000000	97.675247 
1597.000000	97.682360 
1596.000000	97.688594 
1595.000000	97.694787 
1594.000000	97.701191 
1593.000000	97.706436 
1592.000000	97.710027 
1591.000000	97.713731 
1590.000000	97.718990 
1589.000000	97.725203 
1588.000000	97.732230 
1587.000000	97.741784 
1586.000000	97.753522 
1585.000000	97.763367 
1584.000000	97.769079 
1583.000000	97.772937 
1582.000000	97.777482 
1581.000000	97.782506 
1580.000000	97.786971 
1579.000000	97.791162 
1578.000000	97.796365 
1577.000000	97.803530 
1576.000000	97.810993 
1575.000000	97.818244 
1574.000000	97.826616 
1573.000000	97.834799 
1572.000000	97.842354 
1571.000000	97.851534 
1570.000000	97.860602 
1569.000000	97.862354 
1568.000000	97.858061 
1567.000000	97.855838 
1566.000000	97.858107 
1565.000000	97.861605 
1564.000000	97.865229 
1563.000000	97.867481 
1562.000000	97.867636 
1561.000000	97.864278 
1560.000000	97.866508 
1559.000000	97.877191 
1558.000000	97.877450 
1557.000000	97.869394 
1556.000000	97.863727 
1555.000000	97.862111 
1554.000000	97.861177 
1553.000000	97.860606 
1552.000000	97.860524 
1551.000000	97.859755 
1550.000000	97.855668 
1549.000000	97.848842 
1548.000000	97.843035 
1547.000000	97.840785 
1546.000000	97.839684 
1545.000000	97.836349 
1544.000000	97.830475 
1543.000000	97.824215 
1542.000000	97.820501 
1541.000000	97.820949 
1540.000000	97.815797 
1539.000000	97.797471 
1538.000000	97.776461 
1537.000000	97.760331 
1536.000000	97.747493 
1535.000000	97.737862 
1534.000000	97.733304 
1533.000000	97.730888 
1532.000000	97.724914 
1531.000000	97.714099 
1530.000000	97.701979 
1529.000000	97.691668 
1528.000000	97.682850 
1527.000000	97.673363 
1526.000000	97.661906 
1525.000000	97.649759 
1524.000000	97.639326 
1523.000000	97.631659 
1522.000000	97.625350 
1521.000000	97.615505 
1520.000000	97.599668 
1519.000000	97.581361 
1518.000000	97.563997 
1517.000000	97.548717 
1516.000000	97.534992 
1515.000000	97.522405 
1514.000000	97.511204 
1513.000000	97.501192 
1512.000000	97.491466 
1511.000000	97.480277 
1510.000000	97.467175 
1509.000000	97.453646 
1508.000000	97.443048 
1507.000000	97.433623 
1506.000000	97.417947 
1505.000000	97.397676 
1504.000000	97.378982 
1503.000000	97.362367 
1502.000000	97.346508 
1501.000000	97.332240 
1500.000000	97.320721 
1499.000000	97.310924 
1498.000000	97.298927 
1497.000000	97.282989 
1496.000000	97.265459 
1495.000000	97.249448 
1494.000000	97.236238 
1493.000000	97.225894 
1492.000000	97.218251 
1491.000000	97.212302 
1490.000000	97.205076 
1489.000000	97.194344 
1488.000000	97.179789 
1487.000000	97.162088 
1486.000000	97.143502 
1485.000000	97.124801 
1484.000000	97.106416 
1483.000000	97.090445 
1482.000000	97.078170 
1481.000000	97.068435 
1480.000000	97.058493 
1479.000000	97.047176 
1478.000000	97.035629 
1477.000000	97.025208 
1476.000000	97.014616 
1475.000000	97.000522 
1474.000000	96.982340 
1473.000000	96.964556 
1472.000000	96.951222 
1471.000000	96.940699 
1470.000000	96.930625 
1469.000000	96.920617 
1468.000000	96.909790 
1467.000000	96.896453 
1466.000000	96.881303 
1465.000000	96.868694 
1464.000000	96.860864 
1463.000000	96.853633 
1462.000000	96.843279 
1461.000000	96.832505 
1460.000000	96.827070 
1459.000000	96.828948 
1458.000000	96.830060 
1457.000000	96.818657 
1456.000000	96.797794 
1455.000000	96.778837 
1454.000000	96.763144 
1453.000000	96.750335 
1452.000000	96.743351 
1451.000000	96.743413 
1450.000000	96.747212 
1449.000000	96.752286 
1448.000000	96.758467 
1447.000000	96.764284 
1446.000000	96.767055 
1445.000000	96.767607 
1444.000000	96.769080 
1443.000000	96.771316 
1442.000000	96.771955 
1441.000000	96.770521 
1440.000000	96.769219 
1439.000000	96.769410 
1438.000000	96.769950 
1437.000000	96.770679 
1436.000000	96.773191 
1435.000000	96.776268 
1434.000000	96.777622 
1433.000000	96.778620 
1432.000000	96.782058 
1431.000000	96.789340 
1430.000000	96.798587 
1429.000000	96.807349 
1428.000000	96.815112 
1427.000000	96.822904 
1426.000000	96.832112 
1425.000000	96.843784 
1424.000000	96.858445 
1423.000000	96.872494 
1422.000000	96.881635 
1421.000000	96.888487 
1420.000000	96.901081 
1419.000000	96.919362 
1418.000000	96.931432 
1417.000000	96.934801 
1416.000000	96.939278 
1415.000000	96.949522 
1414.000000	96.960933 
1413.000000	96.968881 
1412.000000	96.975750 
1411.000000	96.985963 
1410.000000	96.998583 
1409.000000	97.011374 
1408.000000	97.025501 
1407.000000	97.042604 
1406.000000	97.061226 
1405.000000	97.079301 
1404.000000	97.097655 
1403.000000	97.115561 
1402.000000	97.130143 
1401.000000	97.142806 
1400.000000	97.159430 
1399.000000	97.182301 
1398.000000	97.205256 
1397.000000	97.222647 
1396.000000	97.236985 
1395.000000	97.254037 
1394.000000	97.274018 
1393.000000	97.293933 
1392.000000	97.315119 
1391.000000	97.339082 
1390.000000	97.363425 
1389.000000	97.384749 
1388.000000	97.401833 
1387.000000	97.415424 
1386.000000	97.426503 
1385.000000	97.437214 
1384.000000	97.450877 
1383.000000	97.468345 
1382.000000	97.486733 
1381.000000	97.503237 
1380.000000	97.517673 
1379.000000	97.531721 
1378.000000	97.546649 
1377.000000	97.562282 
1376.000000	97.577820 
1375.000000	97.592814 
1374.000000	97.606962 
1373.000000	97.620296 
1372.000000	97.633578 
1371.000000	97.648193 
1370.000000	97.664455 
1369.000000	97.679530 
1368.000000	97.691063 
1367.000000	97.700187 
1366.000000	97.710320 
1365.000000	97.724044 
1364.000000	97.739864 
1363.000000	97.752829 
1362.000000	97.760246 
1361.000000	97.765195 
1360.000000	97.772837 
1359.000000	97.785497 
1358.000000	97.801623 
1357.000000	97.817698 
1356.000000	97.830936 
1355.000000	97.840561 
1354.000000	97.847690 
1353.000000	97.854725 
1352.000000	97.862572 
1351.000000	97.870526 
1350.000000	97.878286 
1349.000000	97.884727 
1348.000000	97.889197 
1347.000000	97.893124 
1346.000000	97.899109 
1345.000000	97.907349 
1344.000000	97.914879 
1343.000000	97.919461 
1342.000000	97.922705 
1341.000000	97.927552 
1340.000000	97.933828 
1339.000000	97.938323 
1338.000000	97.938774 
1337.000000	97.936325 
1336.000000	97.933697 
1335.000000	97.932292 
1334.000000	97.932025 
1333.000000	97.932521 
1332.000000	97.933262 
1331.000000	97.933870 
1330.000000	97.934580 
1329.000000	97.935763 
1328.000000	97.937243 
1327.000000	97.938922 
1326.000000	97.941004 
1325.000000	97.942376 
1324.000000	97.941411 
1323.000000	97.937616 
1322.000000	97.932300 
1321.000000	97.927864 
1320.000000	97.926446 
1319.000000	97.928426 
1318.000000	97.931926 
1317.000000	97.934433 
1316.000000	97.934603 
1315.000000	97.932326 
1314.000000	97.928232 
1313.000000	97.924398 
1312.000000	97.923958 
1311.000000	97.928153 
1310.000000	97.934220 
1309.000000	97.938097 
1308.000000	97.938756 
1307.000000	97.938578 
1306.000000	97.939584 
1305.000000	97.940769 
1304.000000	97.940792 
1303.000000	97.940151 
1302.000000	97.939760 
1301.000000	97.939108 
1300.000000	97.937656 
1299.000000	97.936548 
1298.000000	97.937106 
1297.000000	97.938371 
1296.000000	97.937883 
1295.000000	97.935196 
1294.000000	97.932711 
1293.000000	97.932788 
1292.000000	97.935240 
1291.000000	97.938045 
1290.000000	97.939735 
1289.000000	97.940300 
1288.000000	97.939993 
1287.000000	97.938318 
1286.000000	97.934694 
1285.000000	97.929868 
1284.000000	97.925896 
1283.000000	97.924129 
1282.000000	97.923820 
1281.000000	97.923254 
1280.000000	97.921939 
1279.000000	97.921214 
1278.000000	97.922776 
1277.000000	97.927068 
1276.000000	97.932571 
1275.000000	97.936567 
1274.000000	97.937140 
1273.000000	97.935229 
1272.000000	97.934166 
1271.000000	97.936145 
1270.000000	97.939594 
1269.000000	97.941194 
1268.000000	97.939899 
1267.000000	97.937158 
1266.000000	97.933820 
1265.000000	97.929835 
1264.000000	97.926832 
1263.000000	97.927587 
1262.000000	97.931851 
1261.000000	97.935523 
1260.000000	97.935939 
1259.000000	97.935772 
1258.000000	97.938691 
1257.000000	97.942938 
1256.000000	97.942255 
1255.000000	97.933432 
1254.000000	97.920783 
1253.000000	97.911698 
1252.000000	97.908413 
1251.000000	97.905873 
1250.000000	97.898072 
1249.000000	97.885110 
1248.000000	97.872618 
1247.000000	97.864556 
1246.000000	97.858567 
1245.000000	97.849687 
1244.000000	97.836636 
1243.000000	97.822412 
1242.000000	97.810123 
1241.000000	97.800520 
1240.000000	97.792531 
1239.000000	97.783377 
1238.000000	97.768714 
1237.000000	97.745700 
1236.000000	97.716481 
1235.000000	97.686660 
1234.000000	97.659982 
1233.000000	97.636028 
1232.000000	97.612594 
1231.000000	97.587551 
1230.000000	97.558560 
1229.000000	97.523996 
1228.000000	97.484577 
1227.000000	97.441591 
1226.000000	97.393230 
1225.000000	97.335289 
1224.000000	97.265945 
1223.000000	97.187171 
1222.000000	97.100899 
1221.000000	97.006849 
1220.000000	96.905466 
1219.000000	96.800009 
1218.000000	96.693377 
1217.000000	96.584730 
1216.000000	96.470716 
1215.000000	96.348478 
1214.000000	96.217320 
1213.000000	96.080296 
1212.000000	95.944320 
1211.000000	95.814485 
1210.000000	95.687399 
1209.000000	95.554491 
1208.000000	95.412911 
1207.000000	95.268586 
1206.000000	95.127399 
1205.000000	94.988697 
1204.000000	94.849792 
1203.000000	94.711488 
1202.000000	94.575843 
1201.000000	94.442409 
1200.000000	94.309594 
1199.000000	94.176512 
1198.000000	94.041554 
1197.000000	93.903110 
1196.000000	93.763393 
1195.000000	93.627285 
1194.000000	93.495491 
1193.000000	93.362709 
1192.000000	93.224259 
1191.000000	93.080451 
1190.000000	92.933174 
1189.000000	92.782815 
1188.000000	92.630192 
1187.000000	92.476977 
1186.000000	92.322448 
1185.000000	92.164032 
1184.000000	92.001930 
1183.000000	91.838462 
1182.000000	91.672363 
1181.000000	91.499206 
1180.000000	91.318042 
1179.000000	91.131653 
1178.000000	90.939598 
1177.000000	90.737961 
1176.000000	90.527132 
1175.000000	90.312419 
1174.000000	90.095314 
1173.000000	89.872017 
1172.000000	89.642967 
1171.000000	89.415347 
1170.000000	89.192995 
1169.000000	88.972579 
1168.000000	88.753927 
1167.000000	88.546487 
1166.000000	88.362279 
1165.000000	88.211336 
1164.000000	88.107506 
1163.000000	88.067702 
1162.000000	88.097201 
1161.000000	88.180012 
1160.000000	88.286317 
1159.000000	88.384200 
1158.000000	88.445092 
1157.000000	88.449291 
1156.000000	88.392735 
1155.000000	88.284979 
1154.000000	88.139059 
1153.000000	87.967113 
1152.000000	87.783778 
1151.000000	87.603326 
1150.000000	87.429777 
1149.000000	87.257798 
1148.000000	87.085628 
1147.000000	86.918257 
1146.000000	86.755998 
1145.000000	86.590986 
1144.000000	86.419544 
1143.000000	86.248405 
1142.000000	86.083742 
1141.000000	85.922754 
1140.000000	85.760714 
1139.000000	85.597675 
1138.000000	85.433743 
1137.000000	85.266063 
1136.000000	85.094719 
1135.000000	84.923976 
1134.000000	84.754597 
1133.000000	84.583045 
1132.000000	84.410361 
1131.000000	84.242391 
1130.000000	84.078965 
1129.000000	83.912976 
1128.000000	83.742285 
1127.000000	83.571580 
1126.000000	83.400335 
1125.000000	83.221248 
1124.000000	83.034055 
1123.000000	82.848626 
1122.000000	82.670239 
1121.000000	82.493859 
1120.000000	82.316803 
1119.000000	82.143819 
1118.000000	81.975290 
1117.000000	81.804586 
1116.000000	81.632158 
1115.000000	81.468232 
1114.000000	81.316060 
1113.000000	81.166141 
1112.000000	81.011971 
1111.000000	80.857102 
1110.000000	80.702514 
1109.000000	80.542913 
1108.000000	80.379859 
1107.000000	80.222721 
1106.000000	80.072488 
1105.000000	79.919838 
1104.000000	79.762532 
1103.000000	79.608708 
1102.000000	79.459269 
1101.000000	79.305095 
1100.000000	79.145641 
1099.000000	78.992264 
1098.000000	78.850400 
1097.000000	78.713686 
1096.000000	78.580508 
1095.000000	78.457794 
1094.000000	78.344596 
1093.000000	78.230655 
1092.000000	78.116208 
1091.000000	78.014693 
1090.000000	77.930966 
1089.000000	77.855102 
1088.000000	77.781836 
1087.000000	77.717228 
1086.000000	77.662037 
1085.000000	77.608289 
1084.000000	77.556780 
1083.000000	77.518100 
1082.000000	77.491681 
1081.000000	77.463845 
1080.000000	77.431166 
1079.000000	77.405213 
1078.000000	77.388922 
1077.000000	77.368707 
1076.000000	77.335521 
1075.000000	77.293281 
1074.000000	77.241041 
1073.000000	77.167153 
1072.000000	77.066214 
1071.000000	76.941427 
1070.000000	76.785281 
1069.000000	76.579609 
1068.000000	76.322596 
1067.000000	76.037137 
1066.000000	75.745457 
1065.000000	75.452987 
1064.000000	75.162709 
1063.000000	74.883009 
1062.000000	74.612328 
1061.000000	74.337186 
1060.000000	74.055470 
1059.000000	73.783225 
1058.000000	73.530568 
1057.000000	73.289691 
1056.000000	73.053235 
1055.000000	72.824154 
1054.000000	72.600386 
1053.000000	72.370740 
1052.000000	72.134669 
1051.000000	71.905473 
1050.000000	71.685437 
1049.000000	71.460637 
1048.000000	71.227446 
1047.000000	70.998535 
1046.000000	70.776790 
1045.000000	70.549125 
1044.000000	70.311030 
1043.000000	70.073239 
1042.000000	69.839569 
1041.000000	69.601433 
1040.000000	69.359428 
1039.000000	69.127428 
1038.000000	68.910318 
1037.000000	68.700805 
1036.000000	68.502035 
1035.000000	68.328545 
1034.000000	68.180726 
1033.000000	68.043732 
1032.000000	67.915414 
1031.000000	67.808778 
1030.000000	67.723089 
1029.000000	67.641016 
1028.000000	67.559855 
1027.000000	67.496963 
1026.000000	67.457555 
1025.000000	67.424897 
1024.000000	67.388835 
1023.000000	67.356423 
1022.000000	67.327692 
1021.000000	67.289047 
1020.000000	67.237997 
1019.000000	67.187956 
1018.000000	67.142370 
1017.000000	67.090528 
1016.000000	67.033804 
1015.000000	66.987962 
1014.000000	66.953779 
1013.000000	66.913876 
1012.000000	66.864983 
1011.000000	66.824927 
1010.000000	66.800970 
1009.000000	66.780072 
1008.000000	66.757914 
1007.000000	66.749113 
1006.000000	66.760467 
1005.000000	66.781562 
1004.000000	66.809417 
1003.000000	66.854888 
1002.000000	66.916772 
1001.000000	66.977176 
1000.000000	67.031210 
999.000000	 67.094955 
998.000000	 67.175985 
997.000000	 67.262300 
996.000000	 67.347981 
995.000000	 67.443627 
994.000000	 67.553228 
993.000000	 67.666142 
992.000000	 67.779430 
991.000000	 67.903263 
990.000000	 68.037896 
989.000000	 68.171067 
988.000000	 68.304428 
987.000000	 68.456094 
986.000000	 68.630399 
985.000000	 68.811679 
984.000000	 68.994663 
983.000000	 69.193914 
982.000000	 69.415161 
981.000000	 69.644385 
980.000000	 69.874112 
979.000000	 70.114619 
978.000000	 70.369594 
977.000000	 70.626399 
976.000000	 70.880713 
975.000000	 71.146873 
974.000000	 71.433141 
973.000000	 71.728973 
972.000000	 72.026289 
971.000000	 72.332082 
970.000000	 72.650405 
969.000000	 72.971882 
968.000000	 73.289869 
967.000000	 73.608630 
966.000000	 73.928639 
965.000000	 74.242322 
964.000000	 74.550211 
963.000000	 74.862603 
962.000000	 75.179721 
961.000000	 75.488723 
960.000000	 75.785160 
959.000000	 76.078613 
958.000000	 76.372743 
957.000000	 76.659007 
956.000000	 76.934970 
955.000000	 77.209669 
954.000000	 77.485668 
953.000000	 77.754015 
952.000000	 78.011545 
951.000000	 78.264879 
950.000000	 78.513413 
949.000000	 78.747028 
948.000000	 78.965003 
947.000000	 79.178673 
946.000000	 79.391080 
945.000000	 79.592435 
944.000000	 79.780234 
943.000000	 79.965343 
942.000000	 80.153204 
941.000000	 80.337122 
940.000000	 80.515519 
939.000000	 80.697625 
938.000000	 80.886432 
937.000000	 81.073334 
936.000000	 81.255241 
935.000000	 81.440102 
934.000000	 81.630514 
933.000000	 81.818893 
932.000000	 82.003868 
931.000000	 82.194232 
930.000000	 82.391051 
929.000000	 82.582473 
928.000000	 82.762392 
927.000000	 82.938744 
926.000000	 83.117769 
925.000000	 83.294635 
924.000000	 83.464575 
923.000000	 83.628885 
922.000000	 83.785676 
921.000000	 83.929447 
920.000000	 84.064049 
919.000000	 84.201517 
918.000000	 84.343800 
917.000000	 84.479771 
916.000000	 84.604386 
915.000000	 84.727177 
914.000000	 84.858492 
913.000000	 85.001601 
912.000000	 85.161399 
911.000000	 85.345555 
910.000000	 85.552369 
909.000000	 85.771048 
908.000000	 85.997473 
907.000000	 86.236865 
906.000000	 86.489789 
905.000000	 86.750276 
904.000000	 87.018593 
903.000000	 87.299817 
902.000000	 87.587856 
901.000000	 87.867101 
900.000000	 88.133007 
899.000000	 88.396490 
898.000000	 88.665337 
897.000000	 88.934516 
896.000000	 89.196310 
895.000000	 89.446275 
894.000000	 89.678421 
893.000000	 89.888932 
892.000000	 90.086187 
891.000000	 90.283542 
890.000000	 90.480418 
889.000000	 90.663048 
888.000000	 90.823683 
887.000000	 90.965799 
886.000000	 91.092075 
885.000000	 91.202464 
884.000000	 91.303245 
883.000000	 91.401313 
882.000000	 91.490102 
881.000000	 91.560029 
880.000000	 91.623888 
879.000000	 91.711292 
878.000000	 91.834300 
877.000000	 91.979032 
876.000000	 92.134822 
875.000000	 92.309223 
874.000000	 92.508184 
873.000000	 92.724101 
872.000000	 92.951679 
871.000000	 93.194878 
870.000000	 93.449372 
869.000000	 93.696891 
868.000000	 93.925912 
867.000000	 94.142238 
866.000000	 94.352361 
865.000000	 94.552086 
864.000000	 94.739118 
863.000000	 94.921878 
862.000000	 95.106639 
861.000000	 95.287736 
860.000000	 95.458529 
859.000000	 95.621334 
858.000000	 95.779857 
857.000000	 95.932131 
856.000000	 96.076873 
855.000000	 96.216659 
854.000000	 96.349547 
853.000000	 96.467761 
852.000000	 96.569865 
851.000000	 96.664947 
850.000000	 96.761057 
849.000000	 96.858997 
848.000000	 96.959234 
847.000000	 97.062788 
846.000000	 97.162686 
845.000000	 97.247535 
844.000000	 97.317120 
843.000000	 97.381999 
842.000000	 97.444778 
841.000000	 97.495553 
840.000000	 97.529636 
839.000000	 97.554925 
838.000000	 97.576513 
837.000000	 97.589034 
836.000000	 97.591608 
835.000000	 97.596353 
834.000000	 97.612765 
833.000000	 97.635353 
832.000000	 97.655843 
831.000000	 97.676437 
830.000000	 97.701774 
829.000000	 97.728968 
828.000000	 97.756786 
827.000000	 97.794592 
826.000000	 97.849025 
825.000000	 97.909196 
824.000000	 97.957053 
823.000000	 97.985635 
822.000000	 97.997727 
821.000000	 97.995525 
820.000000	 97.981013 
819.000000	 97.957267 
818.000000	 97.919663 
817.000000	 97.851766 
816.000000	 97.736970 
815.000000	 97.570033 
814.000000	 97.352701 
813.000000	 97.082484 
812.000000	 96.748999 
811.000000	 96.335036 
810.000000	 95.817788 
809.000000	 95.177827 
808.000000	 94.414675 
807.000000	 93.549747 
806.000000	 92.610988 
805.000000	 91.623308 
804.000000	 90.619124 
803.000000	 89.644887 
802.000000	 88.745889 
801.000000	 87.954584 
800.000000	 87.300135 
799.000000	 86.811515 
798.000000	 86.498747 
797.000000	 86.344755 
796.000000	 86.323006 
795.000000	 86.407297 
794.000000	 86.561371 
793.000000	 86.741940 
792.000000	 86.920907 
791.000000	 87.087695 
790.000000	 87.225778 
789.000000	 87.306185 
788.000000	 87.308951 
787.000000	 87.232081 
786.000000	 87.074396 
785.000000	 86.828662 
784.000000	 86.499500 
783.000000	 86.112627 
782.000000	 85.701445 
781.000000	 85.301637 
780.000000	 84.961471 
779.000000	 84.732283 
778.000000	 84.636913 
777.000000	 84.664808 
776.000000	 84.802441 
775.000000	 85.045005 
774.000000	 85.372641 
773.000000	 85.742980 
772.000000	 86.119963 
771.000000	 86.490448 
770.000000	 86.845807 
769.000000	 87.170320 
768.000000	 87.456987 
767.000000	 87.713732 
766.000000	 87.944448 
765.000000	 88.143450 
764.000000	 88.317843 
763.000000	 88.495138 
762.000000	 88.696615 
761.000000	 88.918879 
760.000000	 89.150119 
759.000000	 89.386674 
758.000000	 89.624580 
757.000000	 89.853830 
756.000000	 90.073092 
755.000000	 90.294739 
754.000000	 90.523732 
753.000000	 90.744215 
752.000000	 90.936839 
751.000000	 91.098255 
750.000000	 91.237673 
749.000000	 91.367315 
748.000000	 91.501512 
747.000000	 91.650227 
746.000000	 91.806419 
745.000000	 91.953569 
744.000000	 92.091800 
743.000000	 92.242155 
742.000000	 92.418685 
741.000000	 92.611064 
740.000000	 92.801652 
739.000000	 92.984912 
738.000000	 93.162575 
737.000000	 93.332847 
736.000000	 93.491798 
735.000000	 93.635387 
734.000000	 93.756835 
733.000000	 93.852819 
732.000000	 93.933109 
731.000000	 94.011354 
730.000000	 94.085555 
729.000000	 94.141401 
728.000000	 94.178420 
727.000000	 94.217003 
726.000000	 94.275457 
725.000000	 94.357587 
724.000000	 94.463560 
723.000000	 94.592144 
722.000000	 94.728141 
721.000000	 94.849067 
720.000000	 94.953131 
719.000000	 95.060688 
718.000000	 95.180055 
717.000000	 95.294984 
716.000000	 95.392239 
715.000000	 95.479766 
714.000000	 95.569893 
713.000000	 95.663220 
712.000000	 95.760029 
711.000000	 95.868295 
710.000000	 95.987206 
709.000000	 96.099374 
708.000000	 96.190168 
707.000000	 96.260501 
706.000000	 96.307884 
705.000000	 96.314443 
704.000000	 96.266734 
703.000000	 96.166165 
702.000000	 96.006420 
701.000000	 95.757663 
700.000000	 95.389356 
699.000000	 94.903969 
698.000000	 94.341527 
697.000000	 93.771751 
696.000000	 93.291063 
695.000000	 92.994869 
694.000000	 92.927857 
693.000000	 93.062000 
692.000000	 93.327492 
691.000000	 93.660081 
690.000000	 94.014421 
689.000000	 94.356609 
688.000000	 94.666261 
687.000000	 94.938658 
686.000000	 95.176972 
685.000000	 95.387494 
684.000000	 95.582487 
683.000000	 95.772548 
682.000000	 95.949573 
681.000000	 96.095590 
680.000000	 96.213636 
679.000000	 96.331696 
678.000000	 96.464637 
677.000000	 96.595649 
676.000000	 96.720122 
675.000000	 96.854869 
674.000000	 97.001867 
673.000000	 97.135021 
672.000000	 97.242903 
671.000000	 97.358604 
670.000000	 97.538134 
669.000000	 97.803446 
668.000000	 98.022424 
667.000000	 98.029312 
666.000000	 97.938997 
665.000000	 97.872761 
664.000000	 97.833321 
663.000000	 97.825752 
662.000000	 97.862692 
661.000000	 97.923250 
660.000000	 97.979388 
659.000000	 98.028645 
658.000000	 98.071419 
657.000000	 98.083488 
656.000000	 98.057203 
655.000000	 98.015354 
654.000000	 97.968515 
653.000000	 97.898901 
652.000000	 97.816095 
651.000000	 97.783676 
650.000000	 97.844974 

