4000.000000	96.787924 
3999.000000	96.784868 
3998.000000	96.780881 
3997.000000	96.777235 
3996.000000	96.774795 
3995.000000	96.773898 
3994.000000	96.774372 
3993.000000	96.775511 
3992.000000	96.776335 
3991.000000	96.776196 
3990.000000	96.775284 
3989.000000	96.774335 
3988.000000	96.773872 
3987.000000	96.773974 
3986.000000	96.774539 
3985.000000	96.775284 
3984.000000	96.775582 
3983.000000	96.774927 
3982.000000	96.773798 
3981.000000	96.773472 
3980.000000	96.774543 
3979.000000	96.775965 
3978.000000	96.776098 
3977.000000	96.774499 
3976.000000	96.772246 
3975.000000	96.770433 
3974.000000	96.768943 
3973.000000	96.767013 
3972.000000	96.764393 
3971.000000	96.761710 
3970.000000	96.759912 
3969.000000	96.759670 
3968.000000	96.761015 
3967.000000	96.763401 
3966.000000	96.766039 
3965.000000	96.768042 
3964.000000	96.768453 
3963.000000	96.766659 
3962.000000	96.763082 
3961.000000	96.759241 
3960.000000	96.756455 
3959.000000	96.754836 
3958.000000	96.753763 
3957.000000	96.752937 
3956.000000	96.752284 
3955.000000	96.751472 
3954.000000	96.750222 
3953.000000	96.748763 
3952.000000	96.747651 
3951.000000	96.747004 
3950.000000	96.746367 
3949.000000	96.745256 
3948.000000	96.743723 
3947.000000	96.742452 
3946.000000	96.742049 
3945.000000	96.742225 
3944.000000	96.742055 
3943.000000	96.741354 
3942.000000	96.741170 
3941.000000	96.742423 
3940.000000	96.744630 
3939.000000	96.746440 
3938.000000	96.747085 
3937.000000	96.747110 
3936.000000	96.747081 
3935.000000	96.746320 
3934.000000	96.743834 
3933.000000	96.739990 
3932.000000	96.736633 
3931.000000	96.734948 
3930.000000	96.734636 
3929.000000	96.735235 
3928.000000	96.736718 
3927.000000	96.738598 
3926.000000	96.739414 
3925.000000	96.738533 
3924.000000	96.737092 
3923.000000	96.736158 
3922.000000	96.735381 
3921.000000	96.734312 
3920.000000	96.733462 
3919.000000	96.733400 
3918.000000	96.733577 
3917.000000	96.733207 
3916.000000	96.732491 
3915.000000	96.732132 
3914.000000	96.732181 
3913.000000	96.732170 
3912.000000	96.731801 
3911.000000	96.731137 
3910.000000	96.730283 
3909.000000	96.729315 
3908.000000	96.728341 
3907.000000	96.727428 
3906.000000	96.726553 
3905.000000	96.725711 
3904.000000	96.724875 
3903.000000	96.724033 
3902.000000	96.723197 
3901.000000	96.722371 
3900.000000	96.721555 
3899.000000	96.720745 
3898.000000	96.719943 
3897.000000	96.719146 
3896.000000	96.718348 
3895.000000	96.717545 
3894.000000	96.716741 
3893.000000	96.715942 
3892.000000	96.715145 
3891.000000	96.714351 
3890.000000	96.713564 
3889.000000	96.712796 
3888.000000	96.712045 
3887.000000	96.711302 
3886.000000	96.710564 
3885.000000	96.709842 
3884.000000	96.709144 
3883.000000	96.708461 
3882.000000	96.707783 
3881.000000	96.707115 
3880.000000	96.706482 
3879.000000	96.705903 
3878.000000	96.705372 
3877.000000	96.704867 
3876.000000	96.704365 
3875.000000	96.703857 
3874.000000	96.703355 
3873.000000	96.702872 
3872.000000	96.702408 
3871.000000	96.701960 
3870.000000	96.701535 
3869.000000	96.701159 
3868.000000	96.700839 
3867.000000	96.700559 
3866.000000	96.700296 
3865.000000	96.700059 
3864.000000	96.699868 
3863.000000	96.699725 
3862.000000	96.699611 
3861.000000	96.699507 
3860.000000	96.699409 
3859.000000	96.699316 
3858.000000	96.699226 
3857.000000	96.699142 
3856.000000	96.699076 
3855.000000	96.699031 
3854.000000	96.699008 
3853.000000	96.699011 
3852.000000	96.699043 
3851.000000	96.699104 
3850.000000	96.699190 
3849.000000	96.699299 
3848.000000	96.699421 
3847.000000	96.699546 
3846.000000	96.699657 
3845.000000	96.699746 
3844.000000	96.699808 
3843.000000	96.699847 
3842.000000	96.699872 
3841.000000	96.699902 
3840.000000	96.699950 
3839.000000	96.700014 
3838.000000	96.700083 
3837.000000	96.700140 
3836.000000	96.700180 
3835.000000	96.700216 
3834.000000	96.700266 
3833.000000	96.700346 
3832.000000	96.700460 
3831.000000	96.700604 
3830.000000	96.700766 
3829.000000	96.700934 
3828.000000	96.701100 
3827.000000	96.701259 
3826.000000	96.701408 
3825.000000	96.701559 
3824.000000	96.701726 
3823.000000	96.701904 
3822.000000	96.702076 
3821.000000	96.702238 
3820.000000	96.702411 
3819.000000	96.702611 
3818.000000	96.702835 
3817.000000	96.703068 
3816.000000	96.703307 
3815.000000	96.703561 
3814.000000	96.703828 
3813.000000	96.704091 
3812.000000	96.704342 
3811.000000	96.704590 
3810.000000	96.704843 
3809.000000	96.705094 
3808.000000	96.705323 
3807.000000	96.705520 
3806.000000	96.705699 
3805.000000	96.705884 
3804.000000	96.706091 
3803.000000	96.706317 
3802.000000	96.706565 
3801.000000	96.706847 
3800.000000	96.707163 
3799.000000	96.707489 
3798.000000	96.707795 
3797.000000	96.708071 
3796.000000	96.708324 
3795.000000	96.708552 
3794.000000	96.708744 
3793.000000	96.708887 
3792.000000	96.708978 
3791.000000	96.709009 
3790.000000	96.708967 
3789.000000	96.708849 
3788.000000	96.708665 
3787.000000	96.708423 
3786.000000	96.708132 
3785.000000	96.707801 
3784.000000	96.707437 
3783.000000	96.707036 
3782.000000	96.706584 
3781.000000	96.706075 
3780.000000	96.705525 
3779.000000	96.704952 
3778.000000	96.704347 
3777.000000	96.703686 
3776.000000	96.702960 
3775.000000	96.702183 
3774.000000	96.701377 
3773.000000	96.700552 
3772.000000	96.699714 
3771.000000	96.698861 
3770.000000	96.697972 
3769.000000	96.697043 
3768.000000	96.696086 
3767.000000	96.695054 
3766.000000	96.693891 
3765.000000	96.692645 
3764.000000	96.691489 
3763.000000	96.690507 
3762.000000	96.689502 
3761.000000	96.688215 
3760.000000	96.686703 
3759.000000	96.685228 
3758.000000	96.683666 
3757.000000	96.681732 
3756.000000	96.679552 
3755.000000	96.677442 
3754.000000	96.675289 
3753.000000	96.672805 
3752.000000	96.670637 
3751.000000	96.669488 
3750.000000	96.668183 
3749.000000	96.665530 
3748.000000	96.663045 
3747.000000	96.662647 
3746.000000	96.662703 
3745.000000	96.660015 
3744.000000	96.656747 
3743.000000	96.656294 
3742.000000	96.656507 
3741.000000	96.653873 
3740.000000	96.649003 
3739.000000	96.646432 
3738.000000	96.647362 
3737.000000	96.646555 
3736.000000	96.640964 
3735.000000	96.636025 
3734.000000	96.637271 
3733.000000	96.641299 
3732.000000	96.642305 
3731.000000	96.640202 
3730.000000	96.637943 
3729.000000	96.635695 
3728.000000	96.630523 
3727.000000	96.621930 
3726.000000	96.614664 
3725.000000	96.611865 
3724.000000	96.610610 
3723.000000	96.607354 
3722.000000	96.602906 
3721.000000	96.599491 
3720.000000	96.597231 
3719.000000	96.595725 
3718.000000	96.594275 
3717.000000	96.593027 
3716.000000	96.592116 
3715.000000	96.588524 
3714.000000	96.578165 
3713.000000	96.562674 
3712.000000	96.551169 
3711.000000	96.549601 
3710.000000	96.552937 
3709.000000	96.553038 
3708.000000	96.545496 
3707.000000	96.530312 
3706.000000	96.511165 
3705.000000	96.492527 
3704.000000	96.476558 
3703.000000	96.462208 
3702.000000	96.446833 
3701.000000	96.428699 
3700.000000	96.409255 
3699.000000	96.391662 
3698.000000	96.375943 
3697.000000	96.360628 
3696.000000	96.348325 
3695.000000	96.341644 
3694.000000	96.337983 
3693.000000	96.334684 
3692.000000	96.334714 
3691.000000	96.341854 
3690.000000	96.351308 
3689.000000	96.354034 
3688.000000	96.348346 
3687.000000	96.340129 
3686.000000	96.332469 
3685.000000	96.321728 
3684.000000	96.306324 
3683.000000	96.292035 
3682.000000	96.282139 
3681.000000	96.268325 
3680.000000	96.243517 
3679.000000	96.215855 
3678.000000	96.198160 
3677.000000	96.184212 
3676.000000	96.161622 
3675.000000	96.137285 
3674.000000	96.121282 
3673.000000	96.109696 
3672.000000	96.089182 
3671.000000	96.052938 
3670.000000	96.015940 
3669.000000	95.993931 
3668.000000	95.979036 
3667.000000	95.958690 
3666.000000	95.933171 
3665.000000	95.908764 
3664.000000	95.887912 
3663.000000	95.867407 
3662.000000	95.842397 
3661.000000	95.812017 
3660.000000	95.780433 
3659.000000	95.750053 
3658.000000	95.717199 
3657.000000	95.675963 
3656.000000	95.630657 
3655.000000	95.593228 
3654.000000	95.568620 
3653.000000	95.548879 
3652.000000	95.519113 
3651.000000	95.473194 
3650.000000	95.423505 
3649.000000	95.383975 
3648.000000	95.353838 
3647.000000	95.328795 
3646.000000	95.309146 
3645.000000	95.294317 
3644.000000	95.280302 
3643.000000	95.264088 
3642.000000	95.246034 
3641.000000	95.227437 
3640.000000	95.205810 
3639.000000	95.177624 
3638.000000	95.145730 
3637.000000	95.116721 
3636.000000	95.090843 
3635.000000	95.059919 
3634.000000	95.021167 
3633.000000	94.983863 
3632.000000	94.955987 
3631.000000	94.928529 
3630.000000	94.885503 
3629.000000	94.836927 
3628.000000	94.808340 
3627.000000	94.801475 
3626.000000	94.800519 
3625.000000	94.796723 
3624.000000	94.793498 
3623.000000	94.797358 
3622.000000	94.805425 
3621.000000	94.805053 
3620.000000	94.789304 
3619.000000	94.767696 
3618.000000	94.755749 
3617.000000	94.761825 
3616.000000	94.784514 
3615.000000	94.813807 
3614.000000	94.839321 
3613.000000	94.859585 
3612.000000	94.879492 
3611.000000	94.899907 
3610.000000	94.915170 
3609.000000	94.921450 
3608.000000	94.923211 
3607.000000	94.928168 
3606.000000	94.939649 
3605.000000	94.957859 
3604.000000	94.982430 
3603.000000	95.010585 
3602.000000	95.035634 
3601.000000	95.050489 
3600.000000	95.055206 
3599.000000	95.055893 
3598.000000	95.058050 
3597.000000	95.062977 
3596.000000	95.068931 
3595.000000	95.072681 
3594.000000	95.074501 
3593.000000	95.078883 
3592.000000	95.090253 
3591.000000	95.107822 
3590.000000	95.122999 
3589.000000	95.125051 
3588.000000	95.113031 
3587.000000	95.098664 
3586.000000	95.093789 
3585.000000	95.100810 
3584.000000	95.115112 
3583.000000	95.130109 
3582.000000	95.140837 
3581.000000	95.145357 
3580.000000	95.145010 
3579.000000	95.142460 
3578.000000	95.139665 
3577.000000	95.137434 
3576.000000	95.136135 
3575.000000	95.136019 
3574.000000	95.137067 
3573.000000	95.139313 
3572.000000	95.142493 
3571.000000	95.145425 
3570.000000	95.144984 
3569.000000	95.137587 
3568.000000	95.124389 
3567.000000	95.113170 
3566.000000	95.110205 
3565.000000	95.113856 
3564.000000	95.118516 
3563.000000	95.120800 
3562.000000	95.121478 
3561.000000	95.123064 
3560.000000	95.126371 
3559.000000	95.129671 
3558.000000	95.130673 
3557.000000	95.128940 
3556.000000	95.126073 
3555.000000	95.124119 
3554.000000	95.123946 
3553.000000	95.124994 
3552.000000	95.125979 
3551.000000	95.125799 
3550.000000	95.124249 
3549.000000	95.122153 
3548.000000	95.120683 
3547.000000	95.120241 
3546.000000	95.120068 
3545.000000	95.119225 
3544.000000	95.117762 
3543.000000	95.116564 
3542.000000	95.116222 
3541.000000	95.116488 
3540.000000	95.116753 
3539.000000	95.116620 
3538.000000	95.116090 
3537.000000	95.115386 
3536.000000	95.114709 
3535.000000	95.114169 
3534.000000	95.113787 
3533.000000	95.113531 
3532.000000	95.113350 
3531.000000	95.113196 
3530.000000	95.113035 
3529.000000	95.112848 
3528.000000	95.112620 
3527.000000	95.112347 
3526.000000	95.112050 
3525.000000	95.111758 
3524.000000	95.111497 
3523.000000	95.111308 
3522.000000	95.111199 
3521.000000	95.111139 
3520.000000	95.111079 
3519.000000	95.110977 
3518.000000	95.110804 
3517.000000	95.110481 
3516.000000	95.109902 
3515.000000	95.109118 
3514.000000	95.108497 
3513.000000	95.108432 
3512.000000	95.108822 
3511.000000	95.109029 
3510.000000	95.108577 
3509.000000	95.107741 
3508.000000	95.107264 
3507.000000	95.107491 
3506.000000	95.107919 
3505.000000	95.107642 
3504.000000	95.106227 
3503.000000	95.104076 
3502.000000	95.102033 
3501.000000	95.100771 
3500.000000	95.100536 
3499.000000	95.101137 
3498.000000	95.102002 
3497.000000	95.102381 
3496.000000	95.101591 
3495.000000	95.099320 
3494.000000	95.095989 
3493.000000	95.092537 
3492.000000	95.089483 
3491.000000	95.086505 
3490.000000	95.083218 
3489.000000	95.080074 
3488.000000	95.078002 
3487.000000	95.077111 
3486.000000	95.076218 
3485.000000	95.074030 
3484.000000	95.070447 
3483.000000	95.066569 
3482.000000	95.063804 
3481.000000	95.063097 
3480.000000	95.064595 
3479.000000	95.067338 
3478.000000	95.069296 
3477.000000	95.068446 
3476.000000	95.064171 
3475.000000	95.057759 
3474.000000	95.051533 
3473.000000	95.047089 
3472.000000	95.044330 
3471.000000	95.041996 
3470.000000	95.039011 
3469.000000	95.035350 
3468.000000	95.031681 
3467.000000	95.028436 
3466.000000	95.025323 
3465.000000	95.021610 
3464.000000	95.016727 
3463.000000	95.010708 
3462.000000	95.004340 
3461.000000	94.998834 
3460.000000	94.994970 
3459.000000	94.992389 
3458.000000	94.989772 
3457.000000	94.985940 
3456.000000	94.980892 
3455.000000	94.975739 
3454.000000	94.971662 
3453.000000	94.968923 
3452.000000	94.966988 
3451.000000	94.965199 
3450.000000	94.963080 
3449.000000	94.960223 
3448.000000	94.956325 
3447.000000	94.951571 
3446.000000	94.946632 
3445.000000	94.942196 
3444.000000	94.938549 
3443.000000	94.935495 
3442.000000	94.932492 
3441.000000	94.928915 
3440.000000	94.924487 
3439.000000	94.919561 
3438.000000	94.914879 
3437.000000	94.910922 
3436.000000	94.907649 
3435.000000	94.904825 
3434.000000	94.902303 
3433.000000	94.899855 
3432.000000	94.897149 
3431.000000	94.894077 
3430.000000	94.890920 
3429.000000	94.888088 
3428.000000	94.885656 
3427.000000	94.883303 
3426.000000	94.880682 
3425.000000	94.877825 
3424.000000	94.875038 
3423.000000	94.872447 
3422.000000	94.869846 
3421.000000	94.867030 
3420.000000	94.864116 
3419.000000	94.861383 
3418.000000	94.858887 
3417.000000	94.856459 
3416.000000	94.854052 
3415.000000	94.851859 
3414.000000	94.849974 
3413.000000	94.848159 
3412.000000	94.846085 
3411.000000	94.843740 
3410.000000	94.841470 
3409.000000	94.839655 
3408.000000	94.838366 
3407.000000	94.837329 
3406.000000	94.836120 
3405.000000	94.834495 
3404.000000	94.832538 
3403.000000	94.830588 
3402.000000	94.829002 
3401.000000	94.827924 
3400.000000	94.827236 
3399.000000	94.826627 
3398.000000	94.825762 
3397.000000	94.824478 
3396.000000	94.822896 
3395.000000	94.821394 
3394.000000	94.820372 
3393.000000	94.819948 
3392.000000	94.819870 
3391.000000	94.819695 
3390.000000	94.819140 
3389.000000	94.818294 
3388.000000	94.817553 
3387.000000	94.817327 
3386.000000	94.817725 
3385.000000	94.818467 
3384.000000	94.819084 
3383.000000	94.819262 
3382.000000	94.819049 
3381.000000	94.818801 
3380.000000	94.818921 
3379.000000	94.819608 
3378.000000	94.820855 
3377.000000	94.822539 
3376.000000	94.824394 
3375.000000	94.826002 
3374.000000	94.827014 
3373.000000	94.827449 
3372.000000	94.827763 
3371.000000	94.828530 
3370.000000	94.829983 
3369.000000	94.831873 
3368.000000	94.833658 
3367.000000	94.834941 
3366.000000	94.835762 
3365.000000	94.836547 
3364.000000	94.837720 
3363.000000	94.839319 
3362.000000	94.841015 
3361.000000	94.842514 
3360.000000	94.843904 
3359.000000	94.845544 
3358.000000	94.847683 
3357.000000	94.850222 
3356.000000	94.852805 
3355.000000	94.855096 
3354.000000	94.857045 
3353.000000	94.858953 
3352.000000	94.861225 
3351.000000	94.864028 
3350.000000	94.867145 
3349.000000	94.870112 
3348.000000	94.872505 
3347.000000	94.874218 
3346.000000	94.875567 
3345.000000	94.877046 
3344.000000	94.878957 
3343.000000	94.881239 
3342.000000	94.883648 
3341.000000	94.886022 
3340.000000	94.888321 
3339.000000	94.890486 
3338.000000	94.892443 
3337.000000	94.894267 
3336.000000	94.896214 
3335.000000	94.898476 
3334.000000	94.900989 
3333.000000	94.903476 
3332.000000	94.905692 
3331.000000	94.907595 
3330.000000	94.909344 
3329.000000	94.911172 
3328.000000	94.913269 
3327.000000	94.915676 
3326.000000	94.918272 
3325.000000	94.920903 
3324.000000	94.923456 
3323.000000	94.925892 
3322.000000	94.928274 
3321.000000	94.930726 
3320.000000	94.933298 
3319.000000	94.935924 
3318.000000	94.938491 
3317.000000	94.940943 
3316.000000	94.943302 
3315.000000	94.945619 
3314.000000	94.947940 
3313.000000	94.950285 
3312.000000	94.952651 
3311.000000	94.955031 
3310.000000	94.957422 
3309.000000	94.959827 
3308.000000	94.962237 
3307.000000	94.964642 
3306.000000	94.967040 
3305.000000	94.969440 
3304.000000	94.971850 
3303.000000	94.974280 
3302.000000	94.976736 
3301.000000	94.979219 
3300.000000	94.981723 
3299.000000	94.984239 
3298.000000	94.986762 
3297.000000	94.989294 
3296.000000	94.991844 
3295.000000	94.994420 
3294.000000	94.997019 
3293.000000	94.999632 
3292.000000	95.002257 
3291.000000	95.004896 
3290.000000	95.007555 
3289.000000	95.010235 
3288.000000	95.012928 
3287.000000	95.015624 
3286.000000	95.018317 
3285.000000	95.021011 
3284.000000	95.023717 
3283.000000	95.026448 
3282.000000	95.029210 
3281.000000	95.031999 
3280.000000	95.034806 
3279.000000	95.037628 
3278.000000	95.040470 
3277.000000	95.043346 
3276.000000	95.046267 
3275.000000	95.049232 
3274.000000	95.052230 
3273.000000	95.055249 
3272.000000	95.058289 
3271.000000	95.061351 
3270.000000	95.064436 
3269.000000	95.067531 
3268.000000	95.070627 
3267.000000	95.073722 
3266.000000	95.076829 
3265.000000	95.079971 
3264.000000	95.083161 
3263.000000	95.086398 
3262.000000	95.089661 
3261.000000	95.092933 
3260.000000	95.096205 
3259.000000	95.099481 
3258.000000	95.102770 
3257.000000	95.106076 
3256.000000	95.109401 
3255.000000	95.112737 
3254.000000	95.116080 
3253.000000	95.119429 
3252.000000	95.122788 
3251.000000	95.126167 
3250.000000	95.129567 
3249.000000	95.132980 
3248.000000	95.136395 
3247.000000	95.139808 
3246.000000	95.143228 
3245.000000	95.146670 
3244.000000	95.150140 
3243.000000	95.153635 
3242.000000	95.157141 
3241.000000	95.160650 
3240.000000	95.164165 
3239.000000	95.167699 
3238.000000	95.171266 
3237.000000	95.174867 
3236.000000	95.178486 
3235.000000	95.182100 
3234.000000	95.185702 
3233.000000	95.189303 
3232.000000	95.192927 
3231.000000	95.196590 
3230.000000	95.200289 
3229.000000	95.204013 
3228.000000	95.207753 
3227.000000	95.211520 
3226.000000	95.215333 
3225.000000	95.219206 
3224.000000	95.223126 
3223.000000	95.227066 
3222.000000	95.231003 
3221.000000	95.234939 
3220.000000	95.238890 
3219.000000	95.242872 
3218.000000	95.246885 
3217.000000	95.250919 
3216.000000	95.254965 
3215.000000	95.259027 
3214.000000	95.263122 
3213.000000	95.267263 
3212.000000	95.271450 
3211.000000	95.275669 
3210.000000	95.279908 
3209.000000	95.284163 
3208.000000	95.288443 
3207.000000	95.292757 
3206.000000	95.297109 
3205.000000	95.301492 
3204.000000	95.305896 
3203.000000	95.310316 
3202.000000	95.314757 
3201.000000	95.319230 
3200.000000	95.323739 
3199.000000	95.328276 
3198.000000	95.332825 
3197.000000	95.337371 
3196.000000	95.341912 
3195.000000	95.346460 
3194.000000	95.351031 
3193.000000	95.355640 
3192.000000	95.360284 
3191.000000	95.364947 
3190.000000	95.369609 
3189.000000	95.374261 
3188.000000	95.378908 
3187.000000	95.383563 
3186.000000	95.388231 
3185.000000	95.392906 
3184.000000	95.397577 
3183.000000	95.402236 
3182.000000	95.406887 
3181.000000	95.411542 
3180.000000	95.416211 
3179.000000	95.420889 
3178.000000	95.425567 
3177.000000	95.430239 
3176.000000	95.434917 
3175.000000	95.439615 
3174.000000	95.444336 
3173.000000	95.449064 
3172.000000	95.453769 
3171.000000	95.458433 
3170.000000	95.463056 
3169.000000	95.467657 
3168.000000	95.472259 
3167.000000	95.476871 
3166.000000	95.481483 
3165.000000	95.486076 
3164.000000	95.490648 
3163.000000	95.495209 
3162.000000	95.499777 
3161.000000	95.504359 
3160.000000	95.508947 
3159.000000	95.513523 
3158.000000	95.518075 
3157.000000	95.522608 
3156.000000	95.527138 
3155.000000	95.531675 
3154.000000	95.536216 
3153.000000	95.540748 
3152.000000	95.545261 
3151.000000	95.549753 
3150.000000	95.554229 
3149.000000	95.558696 
3148.000000	95.563157 
3147.000000	95.567610 
3146.000000	95.572049 
3145.000000	95.576472 
3144.000000	95.580882 
3143.000000	95.585280 
3142.000000	95.589664 
3141.000000	95.594024 
3140.000000	95.598351 
3139.000000	95.602640 
3138.000000	95.606899 
3137.000000	95.611145 
3136.000000	95.615394 
3135.000000	95.619650 
3134.000000	95.623904 
3133.000000	95.628140 
3132.000000	95.632359 
3131.000000	95.636574 
3130.000000	95.640799 
3129.000000	95.645043 
3128.000000	95.649298 
3127.000000	95.653552 
3126.000000	95.657791 
3125.000000	95.662008 
3124.000000	95.666206 
3123.000000	95.670382 
3122.000000	95.674531 
3121.000000	95.678647 
3120.000000	95.682734 
3119.000000	95.686799 
3118.000000	95.690856 
3117.000000	95.694923 
3116.000000	95.699019 
3115.000000	95.703135 
3114.000000	95.707227 
3113.000000	95.711253 
3112.000000	95.715211 
3111.000000	95.719154 
3110.000000	95.723136 
3109.000000	95.727141 
3108.000000	95.731088 
3107.000000	95.734910 
3106.000000	95.738617 
3105.000000	95.742292 
3104.000000	95.745990 
3103.000000	95.749690 
3102.000000	95.753333 
3101.000000	95.756896 
3100.000000	95.760420 
3099.000000	95.763958 
3098.000000	95.767542 
3097.000000	95.771194 
3096.000000	95.774895 
3095.000000	95.778564 
3094.000000	95.782106 
3093.000000	95.785513 
3092.000000	95.788881 
3091.000000	95.792281 
3090.000000	95.795664 
3089.000000	95.798932 
3088.000000	95.802059 
3087.000000	95.805100 
3086.000000	95.808152 
3085.000000	95.811268 
3084.000000	95.814428 
3083.000000	95.817561 
3082.000000	95.820614 
3081.000000	95.823608 
3080.000000	95.826618 
3079.000000	95.829694 
3078.000000	95.832787 
3077.000000	95.835773 
3076.000000	95.838587 
3075.000000	95.841261 
3074.000000	95.843872 
3073.000000	95.846476 
3072.000000	95.849099 
3071.000000	95.851716 
3070.000000	95.854258 
3069.000000	95.856689 
3068.000000	95.859065 
3067.000000	95.861491 
3066.000000	95.863991 
3065.000000	95.866496 
3064.000000	95.868908 
3063.000000	95.871190 
3062.000000	95.873359 
3061.000000	95.875465 
3060.000000	95.877574 
3059.000000	95.879742 
3058.000000	95.881991 
3057.000000	95.884284 
3056.000000	95.886547 
3055.000000	95.888698 
3054.000000	95.890691 
3053.000000	95.892544 
3052.000000	95.894360 
3051.000000	95.896258 
3050.000000	95.898279 
3049.000000	95.900351 
3048.000000	95.902349 
3047.000000	95.904160 
3046.000000	95.905724 
3045.000000	95.907081 
3044.000000	95.908425 
3043.000000	95.910026 
3042.000000	95.912038 
3041.000000	95.914322 
3040.000000	95.916437 
3039.000000	95.917989 
3038.000000	95.918999 
3037.000000	95.919913 
3036.000000	95.921108 
3035.000000	95.922427 
3034.000000	95.923414 
3033.000000	95.923931 
3032.000000	95.924322 
3031.000000	95.924998 
3030.000000	95.926046 
3029.000000	95.927285 
3028.000000	95.928472 
3027.000000	95.929321 
3026.000000	95.929522 
3025.000000	95.929060 
3024.000000	95.928564 
3023.000000	95.928870 
3022.000000	95.930195 
3021.000000	95.932015 
3020.000000	95.933731 
3019.000000	95.935194 
3018.000000	95.936383 
3017.000000	95.937042 
3016.000000	95.936964 
3015.000000	95.936362 
3014.000000	95.935712 
3013.000000	95.935384 
3012.000000	95.935538 
3011.000000	95.936105 
3010.000000	95.936750 
3009.000000	95.937109 
3008.000000	95.937140 
3007.000000	95.937035 
3006.000000	95.936799 
3005.000000	95.936238 
3004.000000	95.935419 
3003.000000	95.934786 
3002.000000	95.934777 
3001.000000	95.935616 
3000.000000	95.937301 
2999.000000	95.939298 
2998.000000	95.940452 
2997.000000	95.939906 
2996.000000	95.938169 
2995.000000	95.936753 
2994.000000	95.936497 
2993.000000	95.936815 
2992.000000	95.936661 
2991.000000	95.935575 
2990.000000	95.933596 
2989.000000	95.930957 
2988.000000	95.928404 
2987.000000	95.927219 
2986.000000	95.928402 
2985.000000	95.932082 
2984.000000	95.937696 
2983.000000	95.944217 
2982.000000	95.950074 
2981.000000	95.953677 
2980.000000	95.954537 
2979.000000	95.953630 
2978.000000	95.952261 
2977.000000	95.950863 
2976.000000	95.949297 
2975.000000	95.947840 
2974.000000	95.947306 
2973.000000	95.948377 
2972.000000	95.951090 
2971.000000	95.954743 
2970.000000	95.958093 
2969.000000	95.960095 
2968.000000	95.960824 
2967.000000	95.961437 
2966.000000	95.962920 
2965.000000	95.965090 
2964.000000	95.967163 
2963.000000	95.968995 
2962.000000	95.971210 
2961.000000	95.974128 
2960.000000	95.977110 
2959.000000	95.979197 
2958.000000	95.980191 
2957.000000	95.980902 
2956.000000	95.982273 
2955.000000	95.984304 
2954.000000	95.986008 
2953.000000	95.986657 
2952.000000	95.986967 
2951.000000	95.988657 
2950.000000	95.992600 
2949.000000	95.997700 
2948.000000	96.001829 
2947.000000	96.003662 
2946.000000	96.003290 
2945.000000	96.001610 
2944.000000	95.999756 
2943.000000	95.998843 
2942.000000	95.999366 
2941.000000	96.000547 
2940.000000	96.000832 
2939.000000	95.999633 
2938.000000	95.998344 
2937.000000	95.999070 
2936.000000	96.002319 
2935.000000	96.006339 
2934.000000	96.008718 
2933.000000	96.008511 
2932.000000	96.006688 
2931.000000	96.004966 
2930.000000	96.004462 
2929.000000	96.005367 
2928.000000	96.007330 
2927.000000	96.009739 
2926.000000	96.011887 
2925.000000	96.013398 
2924.000000	96.014660 
2923.000000	96.016495 
2922.000000	96.019222 
2921.000000	96.022367 
2920.000000	96.025538 
2919.000000	96.029214 
2918.000000	96.034088 
2917.000000	96.039627 
2916.000000	96.043956 
2915.000000	96.045643 
2914.000000	96.045296 
2913.000000	96.045176 
2912.000000	96.047089 
2911.000000	96.050948 
2910.000000	96.055369 
2909.000000	96.059168 
2908.000000	96.062145 
2907.000000	96.064708 
2906.000000	96.067312 
2905.000000	96.070268 
2904.000000	96.073564 
2903.000000	96.076872 
2902.000000	96.079839 
2901.000000	96.082461 
2900.000000	96.085180 
2899.000000	96.088362 
2898.000000	96.092014 
2897.000000	96.095855 
2896.000000	96.099460 
2895.000000	96.102410 
2894.000000	96.104684 
2893.000000	96.106983 
2892.000000	96.110220 
2891.000000	96.114508 
2890.000000	96.118882 
2889.000000	96.122327 
2888.000000	96.124869 
2887.000000	96.127304 
2886.000000	96.130148 
2885.000000	96.133199 
2884.000000	96.136160 
2883.000000	96.139125 
2882.000000	96.142241 
2881.000000	96.145288 
2880.000000	96.148000 
2879.000000	96.150646 
2878.000000	96.153850 
2877.000000	96.157722 
2876.000000	96.161517 
2875.000000	96.164456 
2874.000000	96.166600 
2873.000000	96.168622 
2872.000000	96.170897 
2871.000000	96.173160 
2870.000000	96.175135 
2869.000000	96.177078 
2868.000000	96.179481 
2867.000000	96.182446 
2866.000000	96.185508 
2865.000000	96.188018 
2864.000000	96.189690 
2863.000000	96.190931 
2862.000000	96.192678 
2861.000000	96.195658 
2860.000000	96.199746 
2859.000000	96.203951 
2858.000000	96.207270 
2857.000000	96.209584 
2856.000000	96.211602 
2855.000000	96.214099 
2854.000000	96.217217 
2853.000000	96.220515 
2852.000000	96.223482 
2851.000000	96.225964 
2850.000000	96.228235 
2849.000000	96.230783 
2848.000000	96.233947 
2847.000000	96.237670 
2846.000000	96.241571 
2845.000000	96.245228 
2844.000000	96.248435 
2843.000000	96.251243 
2842.000000	96.253890 
2841.000000	96.256676 
2840.000000	96.259758 
2839.000000	96.262998 
2838.000000	96.266068 
2837.000000	96.268768 
2836.000000	96.271221 
2835.000000	96.273755 
2834.000000	96.276563 
2833.000000	96.279549 
2832.000000	96.282446 
2831.000000	96.285072 
2830.000000	96.287464 
2829.000000	96.289821 
2828.000000	96.292318 
2827.000000	96.294936 
2826.000000	96.297535 
2825.000000	96.300001 
2824.000000	96.302350 
2823.000000	96.304659 
2822.000000	96.306976 
2821.000000	96.309281 
2820.000000	96.311550 
2819.000000	96.313776 
2818.000000	96.315956 
2817.000000	96.318095 
2816.000000	96.320209 
2815.000000	96.322303 
2814.000000	96.324373 
2813.000000	96.326405 
2812.000000	96.328389 
2811.000000	96.330330 
2810.000000	96.332240 
2809.000000	96.334132 
2808.000000	96.336008 
2807.000000	96.337859 
2806.000000	96.339679 
2805.000000	96.341468 
2804.000000	96.343228 
2803.000000	96.344963 
2802.000000	96.346672 
2801.000000	96.348350 
2800.000000	96.349999 
2799.000000	96.351627 
2798.000000	96.353244 
2797.000000	96.354858 
2796.000000	96.356466 
2795.000000	96.358058 
2794.000000	96.359628 
2793.000000	96.361180 
2792.000000	96.362731 
2791.000000	96.364301 
2790.000000	96.365896 
2789.000000	96.367505 
2788.000000	96.369107 
2787.000000	96.370681 
2786.000000	96.372224 
2785.000000	96.373747 
2784.000000	96.375268 
2783.000000	96.376799 
2782.000000	96.378339 
2781.000000	96.379878 
2780.000000	96.381405 
2779.000000	96.382916 
2778.000000	96.384409 
2777.000000	96.385882 
2776.000000	96.387334 
2775.000000	96.388757 
2774.000000	96.390149 
2773.000000	96.391510 
2772.000000	96.392849 
2771.000000	96.394175 
2770.000000	96.395498 
2769.000000	96.396823 
2768.000000	96.398145 
2767.000000	96.399461 
2766.000000	96.400766 
2765.000000	96.402057 
2764.000000	96.403328 
2763.000000	96.404574 
2762.000000	96.405791 
2761.000000	96.406983 
2760.000000	96.408162 
2759.000000	96.409339 
2758.000000	96.410514 
2757.000000	96.411676 
2756.000000	96.412807 
2755.000000	96.413898 
2754.000000	96.414957 
2753.000000	96.416006 
2752.000000	96.417056 
2751.000000	96.418103 
2750.000000	96.419125 
2749.000000	96.420098 
2748.000000	96.421011 
2747.000000	96.421874 
2746.000000	96.422708 
2745.000000	96.423536 
2744.000000	96.424366 
2743.000000	96.425193 
2742.000000	96.426004 
2741.000000	96.426797 
2740.000000	96.427578 
2739.000000	96.428363 
2738.000000	96.429161 
2737.000000	96.429968 
2736.000000	96.430778 
2735.000000	96.431592 
2734.000000	96.432416 
2733.000000	96.433257 
2732.000000	96.434112 
2731.000000	96.434975 
2730.000000	96.435837 
2729.000000	96.436691 
2728.000000	96.437537 
2727.000000	96.438370 
2726.000000	96.439184 
2725.000000	96.439973 
2724.000000	96.440734 
2723.000000	96.441471 
2722.000000	96.442194 
2721.000000	96.442913 
2720.000000	96.443634 
2719.000000	96.444355 
2718.000000	96.445071 
2717.000000	96.445775 
2716.000000	96.446465 
2715.000000	96.447147 
2714.000000	96.447831 
2713.000000	96.448521 
2712.000000	96.449210 
2711.000000	96.449887 
2710.000000	96.450542 
2709.000000	96.451182 
2708.000000	96.451822 
2707.000000	96.452478 
2706.000000	96.453156 
2705.000000	96.453850 
2704.000000	96.454548 
2703.000000	96.455238 
2702.000000	96.455912 
2701.000000	96.456570 
2700.000000	96.457219 
2699.000000	96.457863 
2698.000000	96.458495 
2697.000000	96.459097 
2696.000000	96.459647 
2695.000000	96.460146 
2694.000000	96.460609 
2693.000000	96.461049 
2692.000000	96.461465 
2691.000000	96.461854 
2690.000000	96.462218 
2689.000000	96.462565 
2688.000000	96.462900 
2687.000000	96.463225 
2686.000000	96.463534 
2685.000000	96.463822 
2684.000000	96.464088 
2683.000000	96.464333 
2682.000000	96.464560 
2681.000000	96.464765 
2680.000000	96.464945 
2679.000000	96.465099 
2678.000000	96.465233 
2677.000000	96.465354 
2676.000000	96.465467 
2675.000000	96.465573 
2674.000000	96.465671 
2673.000000	96.465749 
2672.000000	96.465796 
2671.000000	96.465816 
2670.000000	96.465823 
2669.000000	96.465836 
2668.000000	96.465872 
2667.000000	96.465923 
2666.000000	96.465946 
2665.000000	96.465891 
2664.000000	96.465757 
2663.000000	96.465598 
2662.000000	96.465486 
2661.000000	96.465476 
2660.000000	96.465544 
2659.000000	96.465581 
2658.000000	96.465481 
2657.000000	96.465258 
2656.000000	96.465012 
2655.000000	96.464829 
2654.000000	96.464723 
2653.000000	96.464651 
2652.000000	96.464585 
2651.000000	96.464523 
2650.000000	96.464476 
2649.000000	96.464433 
2648.000000	96.464347 
2647.000000	96.464166 
2646.000000	96.463876 
2645.000000	96.463516 
2644.000000	96.463151 
2643.000000	96.462819 
2642.000000	96.462531 
2641.000000	96.462304 
2640.000000	96.462173 
2639.000000	96.462138 
2638.000000	96.462163 
2637.000000	96.462204 
2636.000000	96.462237 
2635.000000	96.462248 
2634.000000	96.462222 
2633.000000	96.462146 
2632.000000	96.462027 
2631.000000	96.461882 
2630.000000	96.461734 
2629.000000	96.461603 
2628.000000	96.461494 
2627.000000	96.461395 
2626.000000	96.461278 
2625.000000	96.461133 
2624.000000	96.460979 
2623.000000	96.460847 
2622.000000	96.460755 
2621.000000	96.460662 
2620.000000	96.460481 
2619.000000	96.460176 
2618.000000	96.459784 
2617.000000	96.459407 
2616.000000	96.459122 
2615.000000	96.458940 
2614.000000	96.458822 
2613.000000	96.458672 
2612.000000	96.458437 
2611.000000	96.458131 
2610.000000	96.457819 
2609.000000	96.457549 
2608.000000	96.457318 
2607.000000	96.457098 
2606.000000	96.456899 
2605.000000	96.456789 
2604.000000	96.456818 
2603.000000	96.456919 
2602.000000	96.456963 
2601.000000	96.456960 
2600.000000	96.457101 
2599.000000	96.457468 
2598.000000	96.457809 
2597.000000	96.457809 
2596.000000	96.457514 
2595.000000	96.457209 
2594.000000	96.456871 
2593.000000	96.456201 
2592.000000	96.455285 
2591.000000	96.454684 
2590.000000	96.454600 
2589.000000	96.454536 
2588.000000	96.454163 
2587.000000	96.453972 
2586.000000	96.454496 
2585.000000	96.455379 
2584.000000	96.455827 
2583.000000	96.455728 
2582.000000	96.455693 
2581.000000	96.456182 
2580.000000	96.457202 
2579.000000	96.458738 
2578.000000	96.460849 
2577.000000	96.463195 
2576.000000	96.464864 
2575.000000	96.465055 
2574.000000	96.463848 
2573.000000	96.462353 
2572.000000	96.461893 
2571.000000	96.462719 
2570.000000	96.463870 
2569.000000	96.464315 
2568.000000	96.464155 
2567.000000	96.464275 
2566.000000	96.464965 
2565.000000	96.465617 
2564.000000	96.465967 
2563.000000	96.466873 
2562.000000	96.469294 
2561.000000	96.472941 
2560.000000	96.476418 
2559.000000	96.478631 
2558.000000	96.479525 
2557.000000	96.479588 
2556.000000	96.479334 
2555.000000	96.479226 
2554.000000	96.479559 
2553.000000	96.480071 
2552.000000	96.480060 
2551.000000	96.479269 
2550.000000	96.478411 
2549.000000	96.478433 
2548.000000	96.479398 
2547.000000	96.480537 
2546.000000	96.481280 
2545.000000	96.481808 
2544.000000	96.482421 
2543.000000	96.482885 
2542.000000	96.482806 
2541.000000	96.482329 
2540.000000	96.482141 
2539.000000	96.482723 
2538.000000	96.483909 
2537.000000	96.485141 
2536.000000	96.486036 
2535.000000	96.486605 
2534.000000	96.486970 
2533.000000	96.487146 
2532.000000	96.487115 
2531.000000	96.486964 
2530.000000	96.486843 
2529.000000	96.486830 
2528.000000	96.486912 
2527.000000	96.487086 
2526.000000	96.487407 
2525.000000	96.487895 
2524.000000	96.488457 
2523.000000	96.488963 
2522.000000	96.489364 
2521.000000	96.489716 
2520.000000	96.490092 
2519.000000	96.490521 
2518.000000	96.490993 
2517.000000	96.491483 
2516.000000	96.491957 
2515.000000	96.492384 
2514.000000	96.492768 
2513.000000	96.493145 
2512.000000	96.493564 
2511.000000	96.494046 
2510.000000	96.494576 
2509.000000	96.495125 
2508.000000	96.495659 
2507.000000	96.496152 
2506.000000	96.496597 
2505.000000	96.497031 
2504.000000	96.497522 
2503.000000	96.498110 
2502.000000	96.498771 
2501.000000	96.499397 
2500.000000	96.499900 
2499.000000	96.500263 
2498.000000	96.500512 
2497.000000	96.500681 
2496.000000	96.500849 
2495.000000	96.501128 
2494.000000	96.501564 
2493.000000	96.502092 
2492.000000	96.502598 
2491.000000	96.503044 
2490.000000	96.503469 
2489.000000	96.503907 
2488.000000	96.504346 
2487.000000	96.504754 
2486.000000	96.505130 
2485.000000	96.505514 
2484.000000	96.505969 
2483.000000	96.506516 
2482.000000	96.507061 
2481.000000	96.507390 
2480.000000	96.507329 
2479.000000	96.506970 
2478.000000	96.506695 
2477.000000	96.506853 
2476.000000	96.507443 
2475.000000	96.508089 
2474.000000	96.508353 
2473.000000	96.508045 
2472.000000	96.507288 
2471.000000	96.506410 
2470.000000	96.505761 
2469.000000	96.505539 
2468.000000	96.505662 
2467.000000	96.505816 
2466.000000	96.505751 
2465.000000	96.505488 
2464.000000	96.505227 
2463.000000	96.505177 
2462.000000	96.505560 
2461.000000	96.506594 
2460.000000	96.508268 
2459.000000	96.510280 
2458.000000	96.512163 
2457.000000	96.513260 
2456.000000	96.512717 
2455.000000	96.510059 
2454.000000	96.506207 
2453.000000	96.503316 
2452.000000	96.502682 
2451.000000	96.503334 
2450.000000	96.503391 
2449.000000	96.502527 
2448.000000	96.502040 
2447.000000	96.502748 
2446.000000	96.504065 
2445.000000	96.505109 
2444.000000	96.505510 
2443.000000	96.504979 
2442.000000	96.503335 
2441.000000	96.501357 
2440.000000	96.500558 
2439.000000	96.501675 
2438.000000	96.504243 
2437.000000	96.507676 
2436.000000	96.511723 
2435.000000	96.515650 
2434.000000	96.518308 
2433.000000	96.519501 
2432.000000	96.520250 
2431.000000	96.521254 
2430.000000	96.522103 
2429.000000	96.522474 
2428.000000	96.522815 
2427.000000	96.523193 
2426.000000	96.522682 
2425.000000	96.520822 
2424.000000	96.518854 
2423.000000	96.518519 
2422.000000	96.520222 
2421.000000	96.523197 
2420.000000	96.526771 
2419.000000	96.530369 
2418.000000	96.532839 
2417.000000	96.533155 
2416.000000	96.532072 
2415.000000	96.531764 
2414.000000	96.533051 
2413.000000	96.534716 
2412.000000	96.535824 
2411.000000	96.536748 
2410.000000	96.537778 
2409.000000	96.538637 
2408.000000	96.539439 
2407.000000	96.540467 
2406.000000	96.540954 
2405.000000	96.539601 
2404.000000	96.536375 
2403.000000	96.532670 
2402.000000	96.529865 
2401.000000	96.528864 
2400.000000	96.530464 
2399.000000	96.534739 
2398.000000	96.540445 
2397.000000	96.546252 
2396.000000	96.551873 
2395.000000	96.556619 
2394.000000	96.557994 
2393.000000	96.554059 
2392.000000	96.546780 
2391.000000	96.540652 
2390.000000	96.537726 
2389.000000	96.536033 
2388.000000	96.533002 
2387.000000	96.528269 
2386.000000	96.522766 
2385.000000	96.517247 
2384.000000	96.512729 
2383.000000	96.510852 
2382.000000	96.513077 
2381.000000	96.520576 
2380.000000	96.534789 
2379.000000	96.555800 
2378.000000	96.579074 
2377.000000	96.595982 
2376.000000	96.599925 
2375.000000	96.591072 
2374.000000	96.574125 
2373.000000	96.552969 
2372.000000	96.529880 
2371.000000	96.508832 
2370.000000	96.495243 
2369.000000	96.490685 
2368.000000	96.489956 
2367.000000	96.485721 
2366.000000	96.476275 
2365.000000	96.467025 
2364.000000	96.463048 
2363.000000	96.462016 
2362.000000	96.457751 
2361.000000	96.447773 
2360.000000	96.434491 
2359.000000	96.422334 
2358.000000	96.414570 
2357.000000	96.413506 
2356.000000	96.418781 
2355.000000	96.426060 
2354.000000	96.430735 
2353.000000	96.429811 
2352.000000	96.425311 
2351.000000	96.420311 
2350.000000	96.415789 
2349.000000	96.412658 
2348.000000	96.411617 
2347.000000	96.411407 
2346.000000	96.405763 
2345.000000	96.392382 
2344.000000	96.377037 
2343.000000	96.365864 
2342.000000	96.363756 
2341.000000	96.372146 
2340.000000	96.388596 
2339.000000	96.405393 
2338.000000	96.415448 
2337.000000	96.416760 
2336.000000	96.411862 
2335.000000	96.404611 
2334.000000	96.397260 
2333.000000	96.389487 
2332.000000	96.380400 
2331.000000	96.370841 
2330.000000	96.361412 
2329.000000	96.352539 
2328.000000	96.342221 
2327.000000	96.332334 
2326.000000	96.324648 
2325.000000	96.321115 
2324.000000	96.321642 
2323.000000	96.325130 
2322.000000	96.329511 
2321.000000	96.331610 
2320.000000	96.331883 
2319.000000	96.334383 
2318.000000	96.342130 
2317.000000	96.352923 
2316.000000	96.361127 
2315.000000	96.363661 
2314.000000	96.360184 
2313.000000	96.353333 
2312.000000	96.345932 
2311.000000	96.342032 
2310.000000	96.342420 
2309.000000	96.345030 
2308.000000	96.346122 
2307.000000	96.345670 
2306.000000	96.345250 
2305.000000	96.345831 
2304.000000	96.346617 
2303.000000	96.348223 
2302.000000	96.351798 
2301.000000	96.357195 
2300.000000	96.361914 
2299.000000	96.364406 
2298.000000	96.364594 
2297.000000	96.363900 
2296.000000	96.363184 
2295.000000	96.363938 
2294.000000	96.366487 
2293.000000	96.370013 
2292.000000	96.373050 
2291.000000	96.376237 
2290.000000	96.381154 
2289.000000	96.387758 
2288.000000	96.393622 
2287.000000	96.397023 
2286.000000	96.399009 
2285.000000	96.401794 
2284.000000	96.406279 
2283.000000	96.411506 
2282.000000	96.416157 
2281.000000	96.419233 
2280.000000	96.420052 
2279.000000	96.418154 
2278.000000	96.414205 
2277.000000	96.410243 
2276.000000	96.408508 
2275.000000	96.409761 
2274.000000	96.413133 
2273.000000	96.417746 
2272.000000	96.423706 
2271.000000	96.430958 
2270.000000	96.437649 
2269.000000	96.441079 
2268.000000	96.440296 
2267.000000	96.436941 
2266.000000	96.433110 
2265.000000	96.429689 
2264.000000	96.426761 
2263.000000	96.424386 
2262.000000	96.422422 
2261.000000	96.420486 
2260.000000	96.418585 
2259.000000	96.417236 
2258.000000	96.416862 
2257.000000	96.417424 
2256.000000	96.418789 
2255.000000	96.420715 
2254.000000	96.422442 
2253.000000	96.423075 
2252.000000	96.422467 
2251.000000	96.421205 
2250.000000	96.419742 
2249.000000	96.418142 
2248.000000	96.416609 
2247.000000	96.415551 
2246.000000	96.414999 
2245.000000	96.414540 
2244.000000	96.413813 
2243.000000	96.412856 
2242.000000	96.411869 
2241.000000	96.410935 
2240.000000	96.410025 
2239.000000	96.409120 
2238.000000	96.408209 
2237.000000	96.407281 
2236.000000	96.406336 
2235.000000	96.405378 
2234.000000	96.404414 
2233.000000	96.403453 
2232.000000	96.402506 
2231.000000	96.401585 
2230.000000	96.400685 
2229.000000	96.399792 
2228.000000	96.398894 
2227.000000	96.397997 
2226.000000	96.397115 
2225.000000	96.396250 
2224.000000	96.395390 
2223.000000	96.394526 
2222.000000	96.393663 
2221.000000	96.392813 
2220.000000	96.391979 
2219.000000	96.391157 
2218.000000	96.390343 
2217.000000	96.389548 
2216.000000	96.388784 
2215.000000	96.388054 
2214.000000	96.387344 
2213.000000	96.386633 
2212.000000	96.385909 
2211.000000	96.385180 
2210.000000	96.384457 
2209.000000	96.383743 
2208.000000	96.383023 
2207.000000	96.382278 
2206.000000	96.381499 
2205.000000	96.380678 
2204.000000	96.379799 
2203.000000	96.378856 
2202.000000	96.377896 
2201.000000	96.377043 
2200.000000	96.376369 
2199.000000	96.375653 
2198.000000	96.374355 
2197.000000	96.372289 
2196.000000	96.370433 
2195.000000	96.370213 
2194.000000	96.371858 
2193.000000	96.373795 
2192.000000	96.374497 
2191.000000	96.374130 
2190.000000	96.373694 
2189.000000	96.373356 
2188.000000	96.372487 
2187.000000	96.370663 
2186.000000	96.367716 
2185.000000	96.363634 
2184.000000	96.359688 
2183.000000	96.358855 
2182.000000	96.363281 
2181.000000	96.371149 
2180.000000	96.377465 
2179.000000	96.379021 
2178.000000	96.377010 
2177.000000	96.374548 
2176.000000	96.372904 
2175.000000	96.371066 
2174.000000	96.368332 
2173.000000	96.365839 
2172.000000	96.365367 
2171.000000	96.367355 
2170.000000	96.370141 
2169.000000	96.370905 
2168.000000	96.368039 
2167.000000	96.363180 
2166.000000	96.360048 
2165.000000	96.360155 
2164.000000	96.360425 
2163.000000	96.357127 
2162.000000	96.352505 
2161.000000	96.354701 
2160.000000	96.369466 
2159.000000	96.393756 
2158.000000	96.417678 
2157.000000	96.433427 
2156.000000	96.440136 
2155.000000	96.440914 
2154.000000	96.439508 
2153.000000	96.439224 
2152.000000	96.441480 
2151.000000	96.444003 
2150.000000	96.442668 
2149.000000	96.436780 
2148.000000	96.431136 
2147.000000	96.431045 
2146.000000	96.436473 
2145.000000	96.442771 
2144.000000	96.446384 
2143.000000	96.447883 
2142.000000	96.449382 
2141.000000	96.451403 
2140.000000	96.453399 
2139.000000	96.456027 
2138.000000	96.461332 
2137.000000	96.470469 
2136.000000	96.481491 
2135.000000	96.489758 
2134.000000	96.491404 
2133.000000	96.486853 
2132.000000	96.480836 
2131.000000	96.478054 
2130.000000	96.478793 
2129.000000	96.479662 
2128.000000	96.477999 
2127.000000	96.474665 
2126.000000	96.472629 
2125.000000	96.473699 
2124.000000	96.476959 
2123.000000	96.479856 
2122.000000	96.480417 
2121.000000	96.478668 
2120.000000	96.476315 
2119.000000	96.475160 
2118.000000	96.475742 
2117.000000	96.477297 
2116.000000	96.478520 
2115.000000	96.478403 
2114.000000	96.476681 
2113.000000	96.474114 
2112.000000	96.472010 
2111.000000	96.471083 
2110.000000	96.470857 
2109.000000	96.470381 
2108.000000	96.469358 
2107.000000	96.468093 
2106.000000	96.466584 
2105.000000	96.464636 
2104.000000	96.462889 
2103.000000	96.462539 
2102.000000	96.463725 
2101.000000	96.465066 
2100.000000	96.465165 
2099.000000	96.464139 
2098.000000	96.463097 
2097.000000	96.462768 
2096.000000	96.463047 
2095.000000	96.463518 
2094.000000	96.463802 
2093.000000	96.463549 
2092.000000	96.462569 
2091.000000	96.461037 
2090.000000	96.459474 
2089.000000	96.458359 
2088.000000	96.457757 
2087.000000	96.457279 
2086.000000	96.456382 
2085.000000	96.454830 
2084.000000	96.452884 
2083.000000	96.451105 
2082.000000	96.449807 
2081.000000	96.448893 
2080.000000	96.448138 
2079.000000	96.447446 
2078.000000	96.446682 
2077.000000	96.445554 
2076.000000	96.443944 
2075.000000	96.442207 
2074.000000	96.440837 
2073.000000	96.439821 
2072.000000	96.438761 
2071.000000	96.437525 
2070.000000	96.436456 
2069.000000	96.435848 
2068.000000	96.435567 
2067.000000	96.435206 
2066.000000	96.434472 
2065.000000	96.433383 
2064.000000	96.432188 
2063.000000	96.431153 
2062.000000	96.430384 
2061.000000	96.429820 
2060.000000	96.429311 
2059.000000	96.428729 
2058.000000	96.428043 
2057.000000	96.427307 
2056.000000	96.426537 
2055.000000	96.425695 
2054.000000	96.424788 
2053.000000	96.423876 
2052.000000	96.423025 
2051.000000	96.422255 
2050.000000	96.421553 
2049.000000	96.420906 
2048.000000	96.420327 
2047.000000	96.419843 
2046.000000	96.419479 
2045.000000	96.419253 
2044.000000	96.419176 
2043.000000	96.419245 
2042.000000	96.419439 
2041.000000	96.419726 
2040.000000	96.420077 
2039.000000	96.420492 
2038.000000	96.420971 
2037.000000	96.421480 
2036.000000	96.421960 
2035.000000	96.422365 
2034.000000	96.422691 
2033.000000	96.422996 
2032.000000	96.423377 
2031.000000	96.423888 
2030.000000	96.424465 
2029.000000	96.424932 
2028.000000	96.425178 
2027.000000	96.425264 
2026.000000	96.425345 
2025.000000	96.425500 
2024.000000	96.425751 
2023.000000	96.426203 
2022.000000	96.427029 
2021.000000	96.428190 
2020.000000	96.429142 
2019.000000	96.429149 
2018.000000	96.427876 
2017.000000	96.425852 
2016.000000	96.424271 
2015.000000	96.423960 
2014.000000	96.424535 
2013.000000	96.424442 
2012.000000	96.422598 
2011.000000	96.419950 
2010.000000	96.418722 
2009.000000	96.419912 
2008.000000	96.422483 
2007.000000	96.425052 
2006.000000	96.427399 
2005.000000	96.429495 
2004.000000	96.430646 
2003.000000	96.430724 
2002.000000	96.431056 
2001.000000	96.432549 
2000.000000	96.433715 
1999.000000	96.431990 
1998.000000	96.426508 
1997.000000	96.418967 
1996.000000	96.412089 
1995.000000	96.407769 
1994.000000	96.406348 
1993.000000	96.406629 
1992.000000	96.406632 
1991.000000	96.405627 
1990.000000	96.405350 
1989.000000	96.407978 
1988.000000	96.412805 
1987.000000	96.415903 
1986.000000	96.413815 
1985.000000	96.407010 
1984.000000	96.399187 
1983.000000	96.393313 
1982.000000	96.389513 
1981.000000	96.386874 
1980.000000	96.386070 
1979.000000	96.388717 
1978.000000	96.394453 
1977.000000	96.400566 
1976.000000	96.404867 
1975.000000	96.407844 
1974.000000	96.411380 
1973.000000	96.416530 
1972.000000	96.422888 
1971.000000	96.429175 
1970.000000	96.433535 
1969.000000	96.433955 
1968.000000	96.429552 
1967.000000	96.421908 
1966.000000	96.415204 
1965.000000	96.413296 
1964.000000	96.416749 
1963.000000	96.423065 
1962.000000	96.429058 
1961.000000	96.433225 
1960.000000	96.435536 
1959.000000	96.436028 
1958.000000	96.435055 
1957.000000	96.434361 
1956.000000	96.436085 
1955.000000	96.440383 
1954.000000	96.445080 
1953.000000	96.448156 
1952.000000	96.449679 
1951.000000	96.450792 
1950.000000	96.452194 
1949.000000	96.454254 
1948.000000	96.457558 
1947.000000	96.462014 
1946.000000	96.465926 
1945.000000	96.467486 
1944.000000	96.466858 
1943.000000	96.465822 
1942.000000	96.465499 
1941.000000	96.465477 
1940.000000	96.465305 
1939.000000	96.465217 
1938.000000	96.465458 
1937.000000	96.466047 
1936.000000	96.467066 
1935.000000	96.468414 
1934.000000	96.469357 
1933.000000	96.469252 
1932.000000	96.468695 
1931.000000	96.469107 
1930.000000	96.471039 
1929.000000	96.473360 
1928.000000	96.475021 
1927.000000	96.476552 
1926.000000	96.479039 
1925.000000	96.482231 
1924.000000	96.484322 
1923.000000	96.483922 
1922.000000	96.481172 
1921.000000	96.477483 
1920.000000	96.474553 
1919.000000	96.473114 
1918.000000	96.472189 
1917.000000	96.469917 
1916.000000	96.466225 
1915.000000	96.463652 
1914.000000	96.464236 
1913.000000	96.467126 
1912.000000	96.469573 
1911.000000	96.470084 
1910.000000	96.469378 
1909.000000	96.468641 
1908.000000	96.468324 
1907.000000	96.467946 
1906.000000	96.466454 
1905.000000	96.462943 
1904.000000	96.457656 
1903.000000	96.452663 
1902.000000	96.450055 
1901.000000	96.449688 
1900.000000	96.449851 
1899.000000	96.449410 
1898.000000	96.448684 
1897.000000	96.448461 
1896.000000	96.448744 
1895.000000	96.448780 
1894.000000	96.447612 
1893.000000	96.444714 
1892.000000	96.440780 
1891.000000	96.437608 
1890.000000	96.436560 
1889.000000	96.437249 
1888.000000	96.438324 
1887.000000	96.439287 
1886.000000	96.440183 
1885.000000	96.440305 
1884.000000	96.438794 
1883.000000	96.436378 
1882.000000	96.435061 
1881.000000	96.435760 
1880.000000	96.437445 
1879.000000	96.438362 
1878.000000	96.437736 
1877.000000	96.436497 
1876.000000	96.436380 
1875.000000	96.438357 
1874.000000	96.441966 
1873.000000	96.445688 
1872.000000	96.448246 
1871.000000	96.449339 
1870.000000	96.449210 
1869.000000	96.448450 
1868.000000	96.448314 
1867.000000	96.450119 
1866.000000	96.453719 
1865.000000	96.457248 
1864.000000	96.459218 
1863.000000	96.460290 
1862.000000	96.462166 
1861.000000	96.465219 
1860.000000	96.468433 
1859.000000	96.471399 
1858.000000	96.474773 
1857.000000	96.478654 
1856.000000	96.482160 
1855.000000	96.484691 
1854.000000	96.486472 
1853.000000	96.487802 
1852.000000	96.489291 
1851.000000	96.492061 
1850.000000	96.496422 
1849.000000	96.501228 
1848.000000	96.504946 
1847.000000	96.507381 
1846.000000	96.509440 
1845.000000	96.511651 
1844.000000	96.513689 
1843.000000	96.515218 
1842.000000	96.516487 
1841.000000	96.517915 
1840.000000	96.520074 
1839.000000	96.523396 
1838.000000	96.527518 
1837.000000	96.531109 
1836.000000	96.533203 
1835.000000	96.534437 
1834.000000	96.536037 
1833.000000	96.538206 
1832.000000	96.540469 
1831.000000	96.542462 
1830.000000	96.544078 
1829.000000	96.545478 
1828.000000	96.546944 
1827.000000	96.548731 
1826.000000	96.550671 
1825.000000	96.552268 
1824.000000	96.553190 
1823.000000	96.553721 
1822.000000	96.554433 
1821.000000	96.555316 
1820.000000	96.555806 
1819.000000	96.555616 
1818.000000	96.555377 
1817.000000	96.555844 
1816.000000	96.556878 
1815.000000	96.558104 
1814.000000	96.559489 
1813.000000	96.561024 
1812.000000	96.562170 
1811.000000	96.562262 
1810.000000	96.561602 
1809.000000	96.561168 
1808.000000	96.561491 
1807.000000	96.562495 
1806.000000	96.563917 
1805.000000	96.565353 
1804.000000	96.566257 
1803.000000	96.566356 
1802.000000	96.565798 
1801.000000	96.565190 
1800.000000	96.565158 
1799.000000	96.565900 
1798.000000	96.567289 
1797.000000	96.568755 
1796.000000	96.569664 
1795.000000	96.570131 
1794.000000	96.570843 
1793.000000	96.572128 
1792.000000	96.573440 
1791.000000	96.574280 
1790.000000	96.575134 
1789.000000	96.576512 
1788.000000	96.578190 
1787.000000	96.579612 
1786.000000	96.580556 
1785.000000	96.581262 
1784.000000	96.582053 
1783.000000	96.583259 
1782.000000	96.584898 
1781.000000	96.586759 
1780.000000	96.588758 
1779.000000	96.590888 
1778.000000	96.593253 
1777.000000	96.595566 
1776.000000	96.597302 
1775.000000	96.598251 
1774.000000	96.598690 
1773.000000	96.599613 
1772.000000	96.602000 
1771.000000	96.605202 
1770.000000	96.607745 
1769.000000	96.609020 
1768.000000	96.609476 
1767.000000	96.610430 
1766.000000	96.612818 
1765.000000	96.616549 
1764.000000	96.620678 
1763.000000	96.623915 
1762.000000	96.625528 
1761.000000	96.626476 
1760.000000	96.627864 
1759.000000	96.629285 
1758.000000	96.629700 
1757.000000	96.628719 
1756.000000	96.628265 
1755.000000	96.629384 
1754.000000	96.630248 
1753.000000	96.628704 
1752.000000	96.625494 
1751.000000	96.624148 
1750.000000	96.626831 
1749.000000	96.631711 
1748.000000	96.635668 
1747.000000	96.637959 
1746.000000	96.638722 
1745.000000	96.638766 
1744.000000	96.638957 
1743.000000	96.638564 
1742.000000	96.637121 
1741.000000	96.636633 
1740.000000	96.638584 
1739.000000	96.640539 
1738.000000	96.639005 
1737.000000	96.633954 
1736.000000	96.628005 
1735.000000	96.624064 
1734.000000	96.623467 
1733.000000	96.622720 
1732.000000	96.621039 
1731.000000	96.621201 
1730.000000	96.623428 
1729.000000	96.624850 
1728.000000	96.624210 
1727.000000	96.622769 
1726.000000	96.620372 
1725.000000	96.615984 
1724.000000	96.609363 
1723.000000	96.602206 
1722.000000	96.597540 
1721.000000	96.595137 
1720.000000	96.591604 
1719.000000	96.584127 
1718.000000	96.575216 
1717.000000	96.570125 
1716.000000	96.567299 
1715.000000	96.562817 
1714.000000	96.556465 
1713.000000	96.548889 
1712.000000	96.540567 
1711.000000	96.534218 
1710.000000	96.532145 
1709.000000	96.532041 
1708.000000	96.529529 
1707.000000	96.523487 
1706.000000	96.516223 
1705.000000	96.508680 
1704.000000	96.498618 
1703.000000	96.485748 
1702.000000	96.472413 
1701.000000	96.461579 
1700.000000	96.453366 
1699.000000	96.444404 
1698.000000	96.436905 
1697.000000	96.431943 
1696.000000	96.426437 
1695.000000	96.418634 
1694.000000	96.410191 
1693.000000	96.402748 
1692.000000	96.395914 
1691.000000	96.388750 
1690.000000	96.380508 
1689.000000	96.370380 
1688.000000	96.358482 
1687.000000	96.346017 
1686.000000	96.335102 
1685.000000	96.328259 
1684.000000	96.323604 
1683.000000	96.315570 
1682.000000	96.303898 
1681.000000	96.290898 
1680.000000	96.279260 
1679.000000	96.270842 
1678.000000	96.264666 
1677.000000	96.257837 
1676.000000	96.248377 
1675.000000	96.236424 
1674.000000	96.221960 
1673.000000	96.207353 
1672.000000	96.196328 
1671.000000	96.189847 
1670.000000	96.184044 
1669.000000	96.173311 
1668.000000	96.160709 
1667.000000	96.152920 
1666.000000	96.148951 
1665.000000	96.144696 
1664.000000	96.138758 
1663.000000	96.132265 
1662.000000	96.123301 
1661.000000	96.108715 
1660.000000	96.092849 
1659.000000	96.081389 
1658.000000	96.073002 
1657.000000	96.062236 
1656.000000	96.046393 
1655.000000	96.027270 
1654.000000	96.009462 
1653.000000	95.997843 
1652.000000	95.984028 
1651.000000	95.974192 
1650.000000	95.970022 
1649.000000	95.967422 
1648.000000	95.963153 
1647.000000	95.957191 
1646.000000	95.949710 
1645.000000	95.941645 
1644.000000	95.934657 
1643.000000	95.930144 
1642.000000	95.928838 
1641.000000	95.928570 
1640.000000	95.928243 
1639.000000	95.926846 
1638.000000	95.924299 
1637.000000	95.921149 
1636.000000	95.918639 
1635.000000	95.917890 
1634.000000	95.919331 
1633.000000	95.923117 
1632.000000	95.926124 
1631.000000	95.928860 
1630.000000	95.934347 
1629.000000	95.942595 
1628.000000	95.950066 
1627.000000	95.955341 
1626.000000	95.959249 
1625.000000	95.963546 
1624.000000	95.972054 
1623.000000	95.987155 
1622.000000	96.004010 
1621.000000	96.015482 
1620.000000	96.022176 
1619.000000	96.029607 
1618.000000	96.042115 
1617.000000	96.057303 
1616.000000	96.069027 
1615.000000	96.078200 
1614.000000	96.088276 
1613.000000	96.097483 
1612.000000	96.104099 
1611.000000	96.110948 
1610.000000	96.120669 
1609.000000	96.132911 
1608.000000	96.147659 
1607.000000	96.164727 
1606.000000	96.179912 
1605.000000	96.190082 
1604.000000	96.199307 
1603.000000	96.211464 
1602.000000	96.224301 
1601.000000	96.234691 
1600.000000	96.244379 
1599.000000	96.256358 
1598.000000	96.269065 
1597.000000	96.279320 
1596.000000	96.287158 
1595.000000	96.294994 
1594.000000	96.303761 
1593.000000	96.312578 
1592.000000	96.321473 
1591.000000	96.331313 
1590.000000	96.341589 
1589.000000	96.351126 
1588.000000	96.360785 
1587.000000	96.371995 
1586.000000	96.383396 
1585.000000	96.391414 
1584.000000	96.396215 
1583.000000	96.401329 
1582.000000	96.407590 
1581.000000	96.413423 
1580.000000	96.418900 
1579.000000	96.425431 
1578.000000	96.433360 
1577.000000	96.442991 
1576.000000	96.454117 
1575.000000	96.464485 
1574.000000	96.472211 
1573.000000	96.477719 
1572.000000	96.483224 
1571.000000	96.490772 
1570.000000	96.498711 
1569.000000	96.502100 
1568.000000	96.502540 
1567.000000	96.505288 
1566.000000	96.510765 
1565.000000	96.516137 
1564.000000	96.520104 
1563.000000	96.521397 
1562.000000	96.519874 
1561.000000	96.515890 
1560.000000	96.519464 
1559.000000	96.533634 
1558.000000	96.541159 
1557.000000	96.541230 
1556.000000	96.543272 
1555.000000	96.547527 
1554.000000	96.550510 
1553.000000	96.551133 
1552.000000	96.551425 
1551.000000	96.551176 
1550.000000	96.549655 
1549.000000	96.547973 
1548.000000	96.548018 
1547.000000	96.550042 
1546.000000	96.551808 
1545.000000	96.551419 
1544.000000	96.549855 
1543.000000	96.549143 
1542.000000	96.550643 
1541.000000	96.553890 
1540.000000	96.553837 
1539.000000	96.548104 
1538.000000	96.540803 
1537.000000	96.534951 
1536.000000	96.530576 
1535.000000	96.528232 
1534.000000	96.528081 
1533.000000	96.528306 
1532.000000	96.526952 
1531.000000	96.524349 
1530.000000	96.521943 
1529.000000	96.520172 
1528.000000	96.518186 
1527.000000	96.515362 
1526.000000	96.512009 
1525.000000	96.508956 
1524.000000	96.506861 
1523.000000	96.505757 
1522.000000	96.504710 
1521.000000	96.501978 
1520.000000	96.497298 
1519.000000	96.492477 
1518.000000	96.488833 
1517.000000	96.486272 
1516.000000	96.483938 
1515.000000	96.481588 
1514.000000	96.479543 
1513.000000	96.477666 
1512.000000	96.475151 
1511.000000	96.471245 
1510.000000	96.466316 
1509.000000	96.461329 
1508.000000	96.457367 
1507.000000	96.454442 
1506.000000	96.451509 
1505.000000	96.447819 
1504.000000	96.443886 
1503.000000	96.440022 
1502.000000	96.436294 
1501.000000	96.432807 
1500.000000	96.429571 
1499.000000	96.425934 
1498.000000	96.420960 
1497.000000	96.415090 
1496.000000	96.409725 
1495.000000	96.406166 
1494.000000	96.405190 
1493.000000	96.406367 
1492.000000	96.407805 
1491.000000	96.407068 
1490.000000	96.402955 
1489.000000	96.396640 
1488.000000	96.389458 
1487.000000	96.381956 
1486.000000	96.375148 
1485.000000	96.368414 
1484.000000	96.361261 
1483.000000	96.354917 
1482.000000	96.350402 
1481.000000	96.347450 
1480.000000	96.344577 
1479.000000	96.341076 
1478.000000	96.336952 
1477.000000	96.331715 
1476.000000	96.323933 
1475.000000	96.313459 
1474.000000	96.302522 
1473.000000	96.293851 
1472.000000	96.288298 
1471.000000	96.284259 
1470.000000	96.280412 
1469.000000	96.275939 
1468.000000	96.269711 
1467.000000	96.261543 
1466.000000	96.253123 
1465.000000	96.246051 
1464.000000	96.240372 
1463.000000	96.234499 
1462.000000	96.227951 
1461.000000	96.221996 
1460.000000	96.217925 
1459.000000	96.214671 
1458.000000	96.207342 
1457.000000	96.192853 
1456.000000	96.176911 
1455.000000	96.166175 
1454.000000	96.160084 
1453.000000	96.156893 
1452.000000	96.156412 
1451.000000	96.157479 
1450.000000	96.158313 
1449.000000	96.158158 
1448.000000	96.155504 
1447.000000	96.149369 
1446.000000	96.140814 
1445.000000	96.132916 
1444.000000	96.128689 
1443.000000	96.126329 
1442.000000	96.122724 
1441.000000	96.117698 
1440.000000	96.113121 
1439.000000	96.107930 
1438.000000	96.098928 
1437.000000	96.087035 
1436.000000	96.078280 
1435.000000	96.075234 
1434.000000	96.075540 
1433.000000	96.076694 
1432.000000	96.076951 
1431.000000	96.075190 
1430.000000	96.071677 
1429.000000	96.069512 
1428.000000	96.070691 
1427.000000	96.075235 
1426.000000	96.081654 
1425.000000	96.088204 
1424.000000	96.094870 
1423.000000	96.099014 
1422.000000	96.098697 
1421.000000	96.097027 
1420.000000	96.098476 
1419.000000	96.099399 
1418.000000	96.093538 
1417.000000	96.087364 
1416.000000	96.090003 
1415.000000	96.099572 
1414.000000	96.107246 
1413.000000	96.108558 
1412.000000	96.108160 
1411.000000	96.111307 
1410.000000	96.117580 
1409.000000	96.125415 
1408.000000	96.134192 
1407.000000	96.143284 
1406.000000	96.151505 
1405.000000	96.159308 
1404.000000	96.169916 
1403.000000	96.182545 
1402.000000	96.193841 
1401.000000	96.204620 
1400.000000	96.218419 
1399.000000	96.234590 
1398.000000	96.247885 
1397.000000	96.256995 
1396.000000	96.266088 
1395.000000	96.279141 
1394.000000	96.294692 
1393.000000	96.310227 
1392.000000	96.327131 
1391.000000	96.345277 
1390.000000	96.361366 
1389.000000	96.372785 
1388.000000	96.380001 
1387.000000	96.385769 
1386.000000	96.392675 
1385.000000	96.402071 
1384.000000	96.414212 
1383.000000	96.426998 
1382.000000	96.437548 
1381.000000	96.445219 
1380.000000	96.451361 
1379.000000	96.458125 
1378.000000	96.467197 
1377.000000	96.478487 
1376.000000	96.489549 
1375.000000	96.497553 
1374.000000	96.502645 
1373.000000	96.509403 
1372.000000	96.521536 
1371.000000	96.537719 
1370.000000	96.553178 
1369.000000	96.564051 
1368.000000	96.571616 
1367.000000	96.579437 
1366.000000	96.589114 
1365.000000	96.600174 
1364.000000	96.610681 
1363.000000	96.617931 
1362.000000	96.621151 
1361.000000	96.623200 
1360.000000	96.627937 
1359.000000	96.636895 
1358.000000	96.648642 
1357.000000	96.660640 
1356.000000	96.671248 
1355.000000	96.679825 
1354.000000	96.686395 
1353.000000	96.692688 
1352.000000	96.700219 
1351.000000	96.709494 
1350.000000	96.719586 
1349.000000	96.728100 
1348.000000	96.734315 
1347.000000	96.739396 
1346.000000	96.744380 
1345.000000	96.749169 
1344.000000	96.753934 
1343.000000	96.760079 
1342.000000	96.768336 
1341.000000	96.776416 
1340.000000	96.780464 
1339.000000	96.779573 
1338.000000	96.776718 
1337.000000	96.774938 
1336.000000	96.774335 
1335.000000	96.773512 
1334.000000	96.772819 
1333.000000	96.774655 
1332.000000	96.780061 
1331.000000	96.786629 
1330.000000	96.790412 
1329.000000	96.789973 
1328.000000	96.787684 
1327.000000	96.787329 
1326.000000	96.789767 
1325.000000	96.791713 
1324.000000	96.790109 
1323.000000	96.785230 
1322.000000	96.779660 
1321.000000	96.775598 
1320.000000	96.773744 
1319.000000	96.773916 
1318.000000	96.775919 
1317.000000	96.779716 
1316.000000	96.784554 
1315.000000	96.788469 
1314.000000	96.789541 
1313.000000	96.788062 
1312.000000	96.786231 
1311.000000	96.785460 
1310.000000	96.785010 
1309.000000	96.784082 
1308.000000	96.783435 
1307.000000	96.784515 
1306.000000	96.787529 
1305.000000	96.791362 
1304.000000	96.795082 
1303.000000	96.797463 
1302.000000	96.796567 
1301.000000	96.791640 
1300.000000	96.785295 
1299.000000	96.781892 
1298.000000	96.783182 
1297.000000	96.786611 
1296.000000	96.788359 
1295.000000	96.787362 
1294.000000	96.785594 
1293.000000	96.785314 
1292.000000	96.786738 
1291.000000	96.788322 
1290.000000	96.788878 
1289.000000	96.788760 
1288.000000	96.788671 
1287.000000	96.787952 
1286.000000	96.785100 
1285.000000	96.780282 
1284.000000	96.776372 
1283.000000	96.776391 
1282.000000	96.780286 
1281.000000	96.784640 
1280.000000	96.785648 
1279.000000	96.782360 
1278.000000	96.777640 
1277.000000	96.776177 
1276.000000	96.780529 
1275.000000	96.788530 
1274.000000	96.794776 
1273.000000	96.795367 
1272.000000	96.791045 
1271.000000	96.785505 
1270.000000	96.781339 
1269.000000	96.778311 
1268.000000	96.775132 
1267.000000	96.771338 
1266.000000	96.767368 
1265.000000	96.764300 
1264.000000	96.763550 
1263.000000	96.765645 
1262.000000	96.769241 
1261.000000	96.772184 
1260.000000	96.774246 
1259.000000	96.777868 
1258.000000	96.785007 
1257.000000	96.793696 
1256.000000	96.798835 
1255.000000	96.797425 
1254.000000	96.792642 
1253.000000	96.790854 
1252.000000	96.794043 
1251.000000	96.797308 
1250.000000	96.795320 
1249.000000	96.789208 
1248.000000	96.784742 
1247.000000	96.784851 
1246.000000	96.787094 
1245.000000	96.788404 
1244.000000	96.788579 
1243.000000	96.788326 
1242.000000	96.787458 
1241.000000	96.786616 
1240.000000	96.787620 
1239.000000	96.789810 
1238.000000	96.788637 
1237.000000	96.780677 
1236.000000	96.768452 
1235.000000	96.757806 
1234.000000	96.751439 
1233.000000	96.747100 
1232.000000	96.741196 
1231.000000	96.731921 
1230.000000	96.719585 
1229.000000	96.705689 
1228.000000	96.690938 
1227.000000	96.672943 
1226.000000	96.647185 
1225.000000	96.611778 
1224.000000	96.570133 
1223.000000	96.527141 
1222.000000	96.483435 
1221.000000	96.435119 
1220.000000	96.378474 
1219.000000	96.313439 
1218.000000	96.243394 
1217.000000	96.173044 
1216.000000	96.105176 
1215.000000	96.037582 
1214.000000	95.964511 
1213.000000	95.883427 
1212.000000	95.798626 
1211.000000	95.715233 
1210.000000	95.631523 
1209.000000	95.541543 
1208.000000	95.444429 
1207.000000	95.346232 
1206.000000	95.251989 
1205.000000	95.160210 
1204.000000	95.066460 
1203.000000	94.968761 
1202.000000	94.868189 
1201.000000	94.766988 
1200.000000	94.667452 
1199.000000	94.570630 
1198.000000	94.475116 
1197.000000	94.378653 
1196.000000	94.280616 
1195.000000	94.181165 
1194.000000	94.079167 
1193.000000	93.973468 
1192.000000	93.865136 
1191.000000	93.755554 
1190.000000	93.643443 
1189.000000	93.526880 
1188.000000	93.406844 
1187.000000	93.285356 
1186.000000	93.161867 
1185.000000	93.035449 
1184.000000	92.908420 
1183.000000	92.782993 
1182.000000	92.656350 
1181.000000	92.524482 
1180.000000	92.389031 
1179.000000	92.254014 
1178.000000	92.117255 
1177.000000	91.972313 
1176.000000	91.818212 
1175.000000	91.659924 
1174.000000	91.499533 
1173.000000	91.334868 
1172.000000	91.167294 
1171.000000	91.002007 
1170.000000	90.838926 
1169.000000	90.672117 
1168.000000	90.501343 
1167.000000	90.336977 
1166.000000	90.191521 
1165.000000	90.074398 
1164.000000	89.996842 
1163.000000	89.971286 
1162.000000	89.999576 
1161.000000	90.066643 
1160.000000	90.148201 
1159.000000	90.219930 
1158.000000	90.260519 
1157.000000	90.256253 
1156.000000	90.207172 
1155.000000	90.123689 
1154.000000	90.015080 
1153.000000	89.885996 
1152.000000	89.744111 
1151.000000	89.602101 
1150.000000	89.467891 
1149.000000	89.339512 
1148.000000	89.212815 
1147.000000	89.087510 
1146.000000	88.962753 
1145.000000	88.834325 
1144.000000	88.700395 
1143.000000	88.564508 
1142.000000	88.429785 
1141.000000	88.295526 
1140.000000	88.161369 
1139.000000	88.028534 
1138.000000	87.895427 
1137.000000	87.758662 
1136.000000	87.619527 
1135.000000	87.482222 
1134.000000	87.345069 
1133.000000	87.201874 
1132.000000	87.053102 
1131.000000	86.906589 
1130.000000	86.765347 
1129.000000	86.623626 
1128.000000	86.477084 
1127.000000	86.327649 
1126.000000	86.176183 
1125.000000	86.019722 
1124.000000	85.858719 
1123.000000	85.698356 
1122.000000	85.540481 
1121.000000	85.382775 
1120.000000	85.226837 
1119.000000	85.077010 
1118.000000	84.930805 
1117.000000	84.782479 
1116.000000	84.636835 
1115.000000	84.505897 
1114.000000	84.389750 
1113.000000	84.274697 
1112.000000	84.153313 
1111.000000	84.031679 
1110.000000	83.913396 
1109.000000	83.792065 
1108.000000	83.664090 
1107.000000	83.534648 
1106.000000	83.406665 
1105.000000	83.277063 
1104.000000	83.147104 
1103.000000	83.022668 
1102.000000	82.900453 
1101.000000	82.769290 
1100.000000	82.628203 
1099.000000	82.489696 
1098.000000	82.362027 
1097.000000	82.240928 
1096.000000	82.121820 
1095.000000	82.004953 
1094.000000	81.886539 
1093.000000	81.760904 
1092.000000	81.634642 
1091.000000	81.522696 
1090.000000	81.427092 
1089.000000	81.334958 
1088.000000	81.239365 
1087.000000	81.145104 
1086.000000	81.052421 
1085.000000	80.954285 
1084.000000	80.853271 
1083.000000	80.762023 
1082.000000	80.682163 
1081.000000	80.600730 
1080.000000	80.511714 
1079.000000	80.422669 
1078.000000	80.335763 
1077.000000	80.241144 
1076.000000	80.133977 
1075.000000	80.019156 
1074.000000	79.894104 
1073.000000	79.745847 
1072.000000	79.570284 
1071.000000	79.376004 
1070.000000	79.164380 
1069.000000	78.924900 
1068.000000	78.655969 
1067.000000	78.371448 
1066.000000	78.080538 
1065.000000	77.779955 
1064.000000	77.472230 
1063.000000	77.171045 
1062.000000	76.880139 
1061.000000	76.586762 
1060.000000	76.284781 
1059.000000	75.985339 
1058.000000	75.696501 
1057.000000	75.411037 
1056.000000	75.122112 
1055.000000	74.831898 
1054.000000	74.536724 
1053.000000	74.223317 
1052.000000	73.889788 
1051.000000	73.552075 
1050.000000	73.219742 
1049.000000	72.884920 
1048.000000	72.543077 
1047.000000	72.201899 
1046.000000	71.863104 
1045.000000	71.518311 
1044.000000	71.167928 
1043.000000	70.822843 
1042.000000	70.483867 
1041.000000	70.141086 
1040.000000	69.796842 
1039.000000	69.466303 
1038.000000	69.151584 
1037.000000	68.839706 
1036.000000	68.530306 
1035.000000	68.240009 
1034.000000	67.974764 
1033.000000	67.724174 
1032.000000	67.487760 
1031.000000	67.279278 
1030.000000	67.098862 
1029.000000	66.928379 
1028.000000	66.761022 
1027.000000	66.608498 
1026.000000	66.472531 
1025.000000	66.337287 
1024.000000	66.197161 
1023.000000	66.064739 
1022.000000	65.943933 
1021.000000	65.822026 
1020.000000	65.694807 
1019.000000	65.572827 
1018.000000	65.456759 
1017.000000	65.333723 
1016.000000	65.203598 
1015.000000	65.081622 
1014.000000	64.969879 
1013.000000	64.854223 
1012.000000	64.733919 
1011.000000	64.624816 
1010.000000	64.528166 
1009.000000	64.427186 
1008.000000	64.321088 
1007.000000	64.231648 
1006.000000	64.168293 
1005.000000	64.116786 
1004.000000	64.069705 
1003.000000	64.037560 
1002.000000	64.021195 
1001.000000	64.003991 
1000.000000	63.981766 
999.000000	 63.971653 
998.000000	 63.981277 
997.000000	 63.996714 
996.000000	 64.009997 
995.000000	 64.031485 
994.000000	 64.066038 
993.000000	 64.103744 
992.000000	 64.142628 
991.000000	 64.194212 
990.000000	 64.258835 
989.000000	 64.321875 
988.000000	 64.381549 
987.000000	 64.454058 
986.000000	 64.544726 
985.000000	 64.641202 
984.000000	 64.741295 
983.000000	 64.859681 
982.000000	 65.000048 
981.000000	 65.148394 
980.000000	 65.301013 
979.000000	 65.471423 
978.000000	 65.662059 
977.000000	 65.857040 
976.000000	 66.051285 
975.000000	 66.260288 
974.000000	 66.492604 
973.000000	 66.738078 
972.000000	 66.990389 
971.000000	 67.256038 
970.000000	 67.533896 
969.000000	 67.811086 
968.000000	 68.086318 
967.000000	 68.373225 
966.000000	 68.674251 
965.000000	 68.974985 
964.000000	 69.269840 
963.000000	 69.569224 
962.000000	 69.875877 
961.000000	 70.178114 
960.000000	 70.472000 
959.000000	 70.766791 
958.000000	 71.063281 
957.000000	 71.349799 
956.000000	 71.624258 
955.000000	 71.897244 
954.000000	 72.169252 
953.000000	 72.428072 
952.000000	 72.672308 
951.000000	 72.913662 
950.000000	 73.152259 
949.000000	 73.374206 
948.000000	 73.578061 
947.000000	 73.778976 
946.000000	 73.981113 
945.000000	 74.169946 
944.000000	 74.337876 
943.000000	 74.494195 
942.000000	 74.644095 
941.000000	 74.781202 
940.000000	 74.907853 
939.000000	 75.039480 
938.000000	 75.180932 
937.000000	 75.320208 
936.000000	 75.452971 
935.000000	 75.591425 
934.000000	 75.741480 
933.000000	 75.892974 
932.000000	 76.040757 
931.000000	 76.194478 
930.000000	 76.358589 
929.000000	 76.521621 
928.000000	 76.673804 
927.000000	 76.818260 
926.000000	 76.958277 
925.000000	 77.090168 
924.000000	 77.213896 
923.000000	 77.334169 
922.000000	 77.447340 
921.000000	 77.544705 
920.000000	 77.631697 
919.000000	 77.725120 
918.000000	 77.827952 
917.000000	 77.925923 
916.000000	 78.012797 
915.000000	 78.100356 
914.000000	 78.199822 
913.000000	 78.312595 
912.000000	 78.443024 
911.000000	 78.601025 
910.000000	 78.787433 
909.000000	 78.994129 
908.000000	 79.221039 
907.000000	 79.476019 
906.000000	 79.758734 
905.000000	 80.063411 
904.000000	 80.394275 
903.000000	 80.755837 
902.000000	 81.130325 
901.000000	 81.489477 
900.000000	 81.829478 
899.000000	 82.171240 
898.000000	 82.526583 
897.000000	 82.886492 
896.000000	 83.240496 
895.000000	 83.583243 
894.000000	 83.903401 
893.000000	 84.192322 
892.000000	 84.464929 
891.000000	 84.747169 
890.000000	 85.039773 
889.000000	 85.317661 
888.000000	 85.567116 
887.000000	 85.799516 
886.000000	 86.026225 
885.000000	 86.244625 
884.000000	 86.453451 
883.000000	 86.657986 
882.000000	 86.855126 
881.000000	 87.037042 
880.000000	 87.214612 
879.000000	 87.412534 
878.000000	 87.634660 
877.000000	 87.858740 
876.000000	 88.071977 
875.000000	 88.286577 
874.000000	 88.514166 
873.000000	 88.751699 
872.000000	 89.000541 
871.000000	 89.272484 
870.000000	 89.565826 
869.000000	 89.858471 
868.000000	 90.135100 
867.000000	 90.401798 
866.000000	 90.666354 
865.000000	 90.923920 
864.000000	 91.171431 
863.000000	 91.418810 
862.000000	 91.675036 
861.000000	 91.935305 
860.000000	 92.189422 
859.000000	 92.431810 
858.000000	 92.659173 
857.000000	 92.870202 
856.000000	 93.070726 
855.000000	 93.267987 
854.000000	 93.458170 
853.000000	 93.631100 
852.000000	 93.787115 
851.000000	 93.936386 
850.000000	 94.082447 
849.000000	 94.220296 
848.000000	 94.348994 
847.000000	 94.470323 
846.000000	 94.576894 
845.000000	 94.659539 
844.000000	 94.725678 
843.000000	 94.791361 
842.000000	 94.854334 
841.000000	 94.894165 
840.000000	 94.900431 
839.000000	 94.881731 
838.000000	 94.846213 
837.000000	 94.794562 
836.000000	 94.736156 
835.000000	 94.690259 
834.000000	 94.662838 
833.000000	 94.640716 
832.000000	 94.616502 
831.000000	 94.601361 
830.000000	 94.605514 
829.000000	 94.624759 
828.000000	 94.655912 
827.000000	 94.706942 
826.000000	 94.780586 
825.000000	 94.865709 
824.000000	 94.954689 
823.000000	 95.049649 
822.000000	 95.143794 
821.000000	 95.220290 
820.000000	 95.277940 
819.000000	 95.334844 
818.000000	 95.397431 
817.000000	 95.444109 
816.000000	 95.447567 
815.000000	 95.398023 
814.000000	 95.297674 
813.000000	 95.147065 
812.000000	 94.945053 
811.000000	 94.688564 
810.000000	 94.363316 
809.000000	 93.947008 
808.000000	 93.430683 
807.000000	 92.827252 
806.000000	 92.154533 
805.000000	 91.425473 
804.000000	 90.664005 
803.000000	 89.913623 
802.000000	 89.216858 
801.000000	 88.599090 
800.000000	 88.080293 
799.000000	 87.682393 
798.000000	 87.412285 
797.000000	 87.255121 
796.000000	 87.193914 
795.000000	 87.217301 
794.000000	 87.302636 
793.000000	 87.415981 
792.000000	 87.538097 
791.000000	 87.668352 
790.000000	 87.795437 
789.000000	 87.888094 
788.000000	 87.924470 
787.000000	 87.907933 
786.000000	 87.843120 
785.000000	 87.717863 
784.000000	 87.522317 
783.000000	 87.269231 
782.000000	 86.985197 
781.000000	 86.699424 
780.000000	 86.449101 
779.000000	 86.273014 
778.000000	 86.185355 
777.000000	 86.172928 
776.000000	 86.227306 
775.000000	 86.358306 
774.000000	 86.564997 
773.000000	 86.816426 
772.000000	 87.075569 
771.000000	 87.324944 
770.000000	 87.558025 
769.000000	 87.765208 
768.000000	 87.941791 
767.000000	 88.094077 
766.000000	 88.225817 
765.000000	 88.332239 
764.000000	 88.416017 
763.000000	 88.493287 
762.000000	 88.574381 
761.000000	 88.654318 
760.000000	 88.731688 
759.000000	 88.820401 
758.000000	 88.932051 
757.000000	 89.061892 
756.000000	 89.202235 
755.000000	 89.353812 
754.000000	 89.512266 
753.000000	 89.657779 
752.000000	 89.772021 
751.000000	 89.858181 
750.000000	 89.937061 
749.000000	 90.030988 
748.000000	 90.154148 
747.000000	 90.305712 
746.000000	 90.466561 
745.000000	 90.614217 
744.000000	 90.746721 
743.000000	 90.883707 
742.000000	 91.043786 
741.000000	 91.231789 
740.000000	 91.444945 
739.000000	 91.673840 
738.000000	 91.896711 
737.000000	 92.091852 
736.000000	 92.260574 
735.000000	 92.423235 
734.000000	 92.589697 
733.000000	 92.748281 
732.000000	 92.884958 
731.000000	 92.997367 
730.000000	 93.087270 
729.000000	 93.154826 
728.000000	 93.207212 
727.000000	 93.258787 
726.000000	 93.317355 
725.000000	 93.383699 
724.000000	 93.463529 
723.000000	 93.563719 
722.000000	 93.678354 
721.000000	 93.796518 
720.000000	 93.922530 
719.000000	 94.066196 
718.000000	 94.214855 
717.000000	 94.341549 
716.000000	 94.439614 
715.000000	 94.526653 
714.000000	 94.614570 
713.000000	 94.697963 
712.000000	 94.775440 
711.000000	 94.855639 
710.000000	 94.935613 
709.000000	 94.998639 
708.000000	 95.041000 
707.000000	 95.078030 
706.000000	 95.112012 
705.000000	 95.120738 
704.000000	 95.089116 
703.000000	 95.022974 
702.000000	 94.919488 
701.000000	 94.748539 
700.000000	 94.480255 
699.000000	 94.117641 
698.000000	 93.691300 
697.000000	 93.246905 
696.000000	 92.850811 
695.000000	 92.577590 
694.000000	 92.470675 
693.000000	 92.520353 
692.000000	 92.684167 
691.000000	 92.916672 
690.000000	 93.174947 
689.000000	 93.423084 
688.000000	 93.647040 
687.000000	 93.848883 
686.000000	 94.023489 
685.000000	 94.160269 
684.000000	 94.269787 
683.000000	 94.382651 
682.000000	 94.512024 
681.000000	 94.641754 
680.000000	 94.757329 
679.000000	 94.867294 
678.000000	 94.978749 
677.000000	 95.081560 
676.000000	 95.179884 
675.000000	 95.295911 
674.000000	 95.432883 
673.000000	 95.569754 
672.000000	 95.701564 
671.000000	 95.865256 
670.000000	 96.102070 
669.000000	 96.394718 
668.000000	 96.602749 
667.000000	 96.621578 
666.000000	 96.554835 
665.000000	 96.508343 
664.000000	 96.501175 
663.000000	 96.530938 
662.000000	 96.587804 
661.000000	 96.642672 
660.000000	 96.687645 
659.000000	 96.746329 
658.000000	 96.824081 
657.000000	 96.878207 
656.000000	 96.880821 
655.000000	 96.854427 
654.000000	 96.825377 
653.000000	 96.787051 
652.000000	 96.738689 
651.000000	 96.714522 
650.000000	 96.733794 

