4000.000000	97.316262 
3999.000000	97.314839 
3998.000000	97.311707 
3997.000000	97.308026 
3996.000000	97.305214 
3995.000000	97.304021 
3994.000000	97.304241 
3993.000000	97.304918 
3992.000000	97.305086 
3991.000000	97.304559 
3990.000000	97.304047 
3989.000000	97.304344 
3988.000000	97.305462 
3987.000000	97.306790 
3986.000000	97.307871 
3985.000000	97.308607 
3984.000000	97.308782 
3983.000000	97.308022 
3982.000000	97.306578 
3981.000000	97.305530 
3980.000000	97.305643 
3979.000000	97.306312 
3978.000000	97.306184 
3977.000000	97.304751 
3976.000000	97.302842 
3975.000000	97.301482 
3974.000000	97.300764 
3973.000000	97.300079 
3972.000000	97.298978 
3971.000000	97.297622 
3970.000000	97.296535 
3969.000000	97.296262 
3968.000000	97.297019 
3967.000000	97.298562 
3966.000000	97.300354 
3965.000000	97.301673 
3964.000000	97.301665 
3963.000000	97.299718 
3962.000000	97.296094 
3961.000000	97.292074 
3960.000000	97.288956 
3959.000000	97.287097 
3958.000000	97.286115 
3957.000000	97.285756 
3956.000000	97.285897 
3955.000000	97.286108 
3954.000000	97.285886 
3953.000000	97.285124 
3952.000000	97.284127 
3951.000000	97.283054 
3950.000000	97.281723 
3949.000000	97.279957 
3948.000000	97.277931 
3947.000000	97.276277 
3946.000000	97.275626 
3945.000000	97.275920 
3944.000000	97.276323 
3943.000000	97.276211 
3942.000000	97.276050 
3941.000000	97.276666 
3940.000000	97.278047 
3939.000000	97.279350 
3938.000000	97.279814 
3937.000000	97.279536 
3936.000000	97.278910 
3935.000000	97.277775 
3934.000000	97.275784 
3933.000000	97.273292 
3932.000000	97.271421 
3931.000000	97.270772 
3930.000000	97.271010 
3929.000000	97.271757 
3928.000000	97.272962 
3927.000000	97.274319 
3926.000000	97.274868 
3925.000000	97.274083 
3924.000000	97.272731 
3923.000000	97.271792 
3922.000000	97.271159 
3921.000000	97.270294 
3920.000000	97.269342 
3919.000000	97.268948 
3918.000000	97.269049 
3917.000000	97.268935 
3916.000000	97.268382 
3915.000000	97.267898 
3914.000000	97.267737 
3913.000000	97.267613 
3912.000000	97.267237 
3911.000000	97.266775 
3910.000000	97.266357 
3909.000000	97.265982 
3908.000000	97.265609 
3907.000000	97.265175 
3906.000000	97.264409 
3905.000000	97.262930 
3904.000000	97.260851 
3903.000000	97.258875 
3902.000000	97.257636 
3901.000000	97.257198 
3900.000000	97.257208 
3899.000000	97.257375 
3898.000000	97.257589 
3897.000000	97.257650 
3896.000000	97.257337 
3895.000000	97.256738 
3894.000000	97.256133 
3893.000000	97.255674 
3892.000000	97.255107 
3891.000000	97.254227 
3890.000000	97.253213 
3889.000000	97.252384 
3888.000000	97.251749 
3887.000000	97.251052 
3886.000000	97.250216 
3885.000000	97.249449 
3884.000000	97.248856 
3883.000000	97.248306 
3882.000000	97.247666 
3881.000000	97.246975 
3880.000000	97.246376 
3879.000000	97.245908 
3878.000000	97.245506 
3877.000000	97.245104 
3876.000000	97.244676 
3875.000000	97.244229 
3874.000000	97.243790 
3873.000000	97.243378 
3872.000000	97.242988 
3871.000000	97.242617 
3870.000000	97.242269 
3869.000000	97.241960 
3868.000000	97.241695 
3867.000000	97.241463 
3866.000000	97.241244 
3865.000000	97.241031 
3864.000000	97.240828 
3863.000000	97.240633 
3862.000000	97.240429 
3861.000000	97.240204 
3860.000000	97.239955 
3859.000000	97.239684 
3858.000000	97.239391 
3857.000000	97.239082 
3856.000000	97.238773 
3855.000000	97.238477 
3854.000000	97.238198 
3853.000000	97.237947 
3852.000000	97.237731 
3851.000000	97.237553 
3850.000000	97.237414 
3849.000000	97.237311 
3848.000000	97.237236 
3847.000000	97.237176 
3846.000000	97.237112 
3845.000000	97.237031 
3844.000000	97.236929 
3843.000000	97.236812 
3842.000000	97.236693 
3841.000000	97.236586 
3840.000000	97.236502 
3839.000000	97.236439 
3838.000000	97.236390 
3837.000000	97.236344 
3836.000000	97.236297 
3835.000000	97.236255 
3834.000000	97.236228 
3833.000000	97.236222 
3832.000000	97.236239 
3831.000000	97.236272 
3830.000000	97.236312 
3829.000000	97.236350 
3828.000000	97.236381 
3827.000000	97.236400 
3826.000000	97.236399 
3825.000000	97.236384 
3824.000000	97.236363 
3823.000000	97.236346 
3822.000000	97.236334 
3821.000000	97.236333 
3820.000000	97.236363 
3819.000000	97.236439 
3818.000000	97.236556 
3817.000000	97.236699 
3816.000000	97.236856 
3815.000000	97.237022 
3814.000000	97.237191 
3813.000000	97.237348 
3812.000000	97.237488 
3811.000000	97.237618 
3810.000000	97.237748 
3809.000000	97.237875 
3808.000000	97.237989 
3807.000000	97.238078 
3806.000000	97.238151 
3805.000000	97.238230 
3804.000000	97.238333 
3803.000000	97.238469 
3802.000000	97.238641 
3801.000000	97.238848 
3800.000000	97.239081 
3799.000000	97.239321 
3798.000000	97.239543 
3797.000000	97.239722 
3796.000000	97.239868 
3795.000000	97.240044 
3794.000000	97.240283 
3793.000000	97.240485 
3792.000000	97.240553 
3791.000000	97.240599 
3790.000000	97.240719 
3789.000000	97.240631 
3788.000000	97.239983 
3787.000000	97.238939 
3786.000000	97.238020 
3785.000000	97.237433 
3784.000000	97.237081 
3783.000000	97.236977 
3782.000000	97.236908 
3781.000000	97.236390 
3780.000000	97.235510 
3779.000000	97.235442 
3778.000000	97.236880 
3777.000000	97.238763 
3776.000000	97.238992 
3775.000000	97.236686 
3774.000000	97.233321 
3773.000000	97.231370 
3772.000000	97.231296 
3771.000000	97.231230 
3770.000000	97.230194 
3769.000000	97.229680 
3768.000000	97.230693 
3767.000000	97.231820 
3766.000000	97.230950 
3765.000000	97.228265 
3764.000000	97.226513 
3763.000000	97.227231 
3762.000000	97.228211 
3761.000000	97.226736 
3760.000000	97.223881 
3759.000000	97.222861 
3758.000000	97.222487 
3757.000000	97.219353 
3756.000000	97.213310 
3755.000000	97.205992 
3754.000000	97.197384 
3753.000000	97.187195 
3752.000000	97.179626 
3751.000000	97.178530 
3750.000000	97.178460 
3749.000000	97.173365 
3748.000000	97.168227 
3747.000000	97.170653 
3746.000000	97.177548 
3745.000000	97.179142 
3744.000000	97.178880 
3743.000000	97.184413 
3742.000000	97.190012 
3741.000000	97.187133 
3740.000000	97.177618 
3739.000000	97.173159 
3738.000000	97.178819 
3737.000000	97.185132 
3736.000000	97.184181 
3735.000000	97.182656 
3734.000000	97.188990 
3733.000000	97.197681 
3732.000000	97.199833 
3731.000000	97.195828 
3730.000000	97.190903 
3729.000000	97.186803 
3728.000000	97.180981 
3727.000000	97.172482 
3726.000000	97.165590 
3725.000000	97.163422 
3724.000000	97.163650 
3723.000000	97.163577 
3722.000000	97.164181 
3721.000000	97.166240 
3720.000000	97.167093 
3719.000000	97.164734 
3718.000000	97.158862 
3717.000000	97.151096 
3716.000000	97.143696 
3715.000000	97.135628 
3714.000000	97.123687 
3713.000000	97.108301 
3712.000000	97.095899 
3711.000000	97.091328 
3710.000000	97.090828 
3709.000000	97.088046 
3708.000000	97.079881 
3707.000000	97.066742 
3706.000000	97.051806 
3705.000000	97.038355 
3704.000000	97.027011 
3703.000000	97.015145 
3702.000000	96.999125 
3701.000000	96.977710 
3700.000000	96.953757 
3699.000000	96.932314 
3698.000000	96.915597 
3697.000000	96.902242 
3696.000000	96.891809 
3695.000000	96.883869 
3694.000000	96.875394 
3693.000000	96.865222 
3692.000000	96.858293 
3691.000000	96.860974 
3690.000000	96.870820 
3689.000000	96.878045 
3688.000000	96.877316 
3687.000000	96.871870 
3686.000000	96.865830 
3685.000000	96.858040 
3684.000000	96.847012 
3683.000000	96.836473 
3682.000000	96.829773 
3681.000000	96.821548 
3680.000000	96.804908 
3679.000000	96.783157 
3678.000000	96.765980 
3677.000000	96.750461 
3676.000000	96.724925 
3675.000000	96.692371 
3674.000000	96.664428 
3673.000000	96.644275 
3672.000000	96.625526 
3671.000000	96.601933 
3670.000000	96.578277 
3669.000000	96.561629 
3668.000000	96.547076 
3667.000000	96.527723 
3666.000000	96.505156 
3665.000000	96.483851 
3664.000000	96.464513 
3663.000000	96.444232 
3662.000000	96.419283 
3661.000000	96.388510 
3660.000000	96.355315 
3659.000000	96.323763 
3658.000000	96.294759 
3657.000000	96.264247 
3656.000000	96.230347 
3655.000000	96.196767 
3654.000000	96.167143 
3653.000000	96.140376 
3652.000000	96.110822 
3651.000000	96.074805 
3650.000000	96.036551 
3649.000000	96.001795 
3648.000000	95.971123 
3647.000000	95.945743 
3646.000000	95.928825 
3645.000000	95.920018 
3644.000000	95.914305 
3643.000000	95.906583 
3642.000000	95.894525 
3641.000000	95.878481 
3640.000000	95.858366 
3639.000000	95.833007 
3638.000000	95.803899 
3637.000000	95.774602 
3636.000000	95.745635 
3635.000000	95.712357 
3634.000000	95.673100 
3633.000000	95.634804 
3632.000000	95.605565 
3631.000000	95.583375 
3630.000000	95.557805 
3629.000000	95.528474 
3628.000000	95.505799 
3627.000000	95.491567 
3626.000000	95.479897 
3625.000000	95.469092 
3624.000000	95.462740 
3623.000000	95.464337 
3622.000000	95.471440 
3621.000000	95.476024 
3620.000000	95.472611 
3619.000000	95.463915 
3618.000000	95.455985 
3617.000000	95.453840 
3616.000000	95.461519 
3615.000000	95.478533 
3614.000000	95.499780 
3613.000000	95.520831 
3612.000000	95.540359 
3611.000000	95.557427 
3610.000000	95.570526 
3609.000000	95.580361 
3608.000000	95.590666 
3607.000000	95.603871 
3606.000000	95.618081 
3605.000000	95.631612 
3604.000000	95.646393 
3603.000000	95.664903 
3602.000000	95.686110 
3601.000000	95.704914 
3600.000000	95.717850 
3599.000000	95.725553 
3598.000000	95.730664 
3597.000000	95.735278 
3596.000000	95.740674 
3595.000000	95.745555 
3594.000000	95.748633 
3593.000000	95.750792 
3592.000000	95.753879 
3591.000000	95.758580 
3590.000000	95.762737 
3589.000000	95.763241 
3588.000000	95.761000 
3587.000000	95.760940 
3586.000000	95.765300 
3585.000000	95.772229 
3584.000000	95.780135 
3583.000000	95.788493 
3582.000000	95.796565 
3581.000000	95.802382 
3580.000000	95.804344 
3579.000000	95.802680 
3578.000000	95.799483 
3577.000000	95.797394 
3576.000000	95.797709 
3575.000000	95.799475 
3574.000000	95.800158 
3573.000000	95.798372 
3572.000000	95.794621 
3571.000000	95.789990 
3570.000000	95.783694 
3569.000000	95.773206 
3568.000000	95.759170 
3567.000000	95.748188 
3566.000000	95.745658 
3565.000000	95.749816 
3564.000000	95.755846 
3563.000000	95.761148 
3562.000000	95.765615 
3561.000000	95.769444 
3560.000000	95.771821 
3559.000000	95.771969 
3558.000000	95.770369 
3557.000000	95.768681 
3556.000000	95.768301 
3555.000000	95.769407 
3554.000000	95.771100 
3553.000000	95.772445 
3552.000000	95.773166 
3551.000000	95.773256 
3550.000000	95.772617 
3549.000000	95.771335 
3548.000000	95.769865 
3547.000000	95.768529 
3546.000000	95.767047 
3545.000000	95.765178 
3544.000000	95.763603 
3543.000000	95.763347 
3542.000000	95.764497 
3541.000000	95.766288 
3540.000000	95.767995 
3539.000000	95.769192 
3538.000000	95.769519 
3537.000000	95.768861 
3536.000000	95.767663 
3535.000000	95.766562 
3534.000000	95.765940 
3533.000000	95.765832 
3532.000000	95.766223 
3531.000000	95.767103 
3530.000000	95.768227 
3529.000000	95.769040 
3528.000000	95.769054 
3527.000000	95.768252 
3526.000000	95.767121 
3525.000000	95.766279 
3524.000000	95.766052 
3523.000000	95.766448 
3522.000000	95.767236 
3521.000000	95.768119 
3520.000000	95.768908 
3519.000000	95.769540 
3518.000000	95.769949 
3517.000000	95.769948 
3516.000000	95.769379 
3515.000000	95.768403 
3514.000000	95.767564 
3513.000000	95.767283 
3512.000000	95.767284 
3511.000000	95.766748 
3510.000000	95.765211 
3509.000000	95.763184 
3508.000000	95.761759 
3507.000000	95.761575 
3506.000000	95.762299 
3505.000000	95.762938 
3504.000000	95.762697 
3503.000000	95.761502 
3502.000000	95.759852 
3501.000000	95.758390 
3500.000000	95.757621 
3499.000000	95.757732 
3498.000000	95.758375 
3497.000000	95.758695 
3496.000000	95.757782 
3495.000000	95.755333 
3494.000000	95.751993 
3493.000000	95.748964 
3492.000000	95.747003 
3491.000000	95.745863 
3490.000000	95.744779 
3489.000000	95.743195 
3488.000000	95.740813 
3487.000000	95.737314 
3486.000000	95.732662 
3485.000000	95.727785 
3484.000000	95.724223 
3483.000000	95.722729 
3482.000000	95.722612 
3481.000000	95.722556 
3480.000000	95.721891 
3479.000000	95.720692 
3478.000000	95.719003 
3477.000000	95.716615 
3476.000000	95.713484 
3475.000000	95.709956 
3474.000000	95.706508 
3473.000000	95.703525 
3472.000000	95.701208 
3471.000000	95.699326 
3470.000000	95.697213 
3469.000000	95.694326 
3468.000000	95.690821 
3467.000000	95.687476 
3466.000000	95.684960 
3465.000000	95.683178 
3464.000000	95.681303 
3463.000000	95.678353 
3462.000000	95.673828 
3461.000000	95.668047 
3460.000000	95.661948 
3459.000000	95.656313 
3458.000000	95.651130 
3457.000000	95.645800 
3456.000000	95.640117 
3455.000000	95.634901 
3454.000000	95.631455 
3453.000000	95.630274 
3452.000000	95.630590 
3451.000000	95.631029 
3450.000000	95.630551 
3449.000000	95.628643 
3448.000000	95.625052 
3447.000000	95.619874 
3446.000000	95.613812 
3445.000000	95.608030 
3444.000000	95.603461 
3443.000000	95.600241 
3442.000000	95.597821 
3441.000000	95.595508 
3440.000000	95.592889 
3439.000000	95.589789 
3438.000000	95.586111 
3437.000000	95.581935 
3436.000000	95.577799 
3435.000000	95.574553 
3434.000000	95.572718 
3433.000000	95.571881 
3432.000000	95.570993 
3431.000000	95.569294 
3430.000000	95.566758 
3429.000000	95.563740 
3428.000000	95.560376 
3427.000000	95.556565 
3426.000000	95.552481 
3425.000000	95.548850 
3424.000000	95.546402 
3423.000000	95.545021 
3422.000000	95.543716 
3421.000000	95.541651 
3420.000000	95.538974 
3419.000000	95.536423 
3418.000000	95.534469 
3417.000000	95.533165 
3416.000000	95.532446 
3415.000000	95.532005 
3414.000000	95.531003 
3413.000000	95.528583 
3412.000000	95.524879 
3411.000000	95.521177 
3410.000000	95.518794 
3409.000000	95.518054 
3408.000000	95.518398 
3407.000000	95.518996 
3406.000000	95.519151 
3405.000000	95.518552 
3404.000000	95.517490 
3403.000000	95.516593 
3402.000000	95.516147 
3401.000000	95.515781 
3400.000000	95.514943 
3399.000000	95.513419 
3398.000000	95.511282 
3397.000000	95.508691 
3396.000000	95.506025 
3395.000000	95.504034 
3394.000000	95.503370 
3393.000000	95.503822 
3392.000000	95.504191 
3391.000000	95.503256 
3390.000000	95.500938 
3389.000000	95.498426 
3388.000000	95.497134 
3387.000000	95.497528 
3386.000000	95.498890 
3385.000000	95.499940 
3384.000000	95.499742 
3383.000000	95.498293 
3382.000000	95.496622 
3381.000000	95.496128 
3380.000000	95.497316 
3379.000000	95.499143 
3378.000000	95.500058 
3377.000000	95.499878 
3376.000000	95.499958 
3375.000000	95.501295 
3374.000000	95.503154 
3373.000000	95.504088 
3372.000000	95.503868 
3371.000000	95.503695 
3370.000000	95.504691 
3369.000000	95.506860 
3368.000000	95.509498 
3367.000000	95.511877 
3366.000000	95.513342 
3365.000000	95.513406 
3364.000000	95.512206 
3363.000000	95.510583 
3362.000000	95.509361 
3361.000000	95.508728 
3360.000000	95.508601 
3359.000000	95.509224 
3358.000000	95.510921 
3357.000000	95.513349 
3356.000000	95.515521 
3355.000000	95.516859 
3354.000000	95.518013 
3353.000000	95.520395 
3352.000000	95.524875 
3351.000000	95.530922 
3350.000000	95.536865 
3349.000000	95.541072 
3348.000000	95.543126 
3347.000000	95.544107 
3346.000000	95.545639 
3345.000000	95.548350 
3344.000000	95.551235 
3343.000000	95.552655 
3342.000000	95.552039 
3341.000000	95.550546 
3340.000000	95.549856 
3339.000000	95.550390 
3338.000000	95.551148 
3337.000000	95.551176 
3336.000000	95.550718 
3335.000000	95.550768 
3334.000000	95.551784 
3333.000000	95.553270 
3332.000000	95.554553 
3331.000000	95.555604 
3330.000000	95.556945 
3329.000000	95.558941 
3328.000000	95.561509 
3327.000000	95.564465 
3326.000000	95.567817 
3325.000000	95.571470 
3324.000000	95.574815 
3323.000000	95.576996 
3322.000000	95.577748 
3321.000000	95.577786 
3320.000000	95.578240 
3319.000000	95.579831 
3318.000000	95.582618 
3317.000000	95.586233 
3316.000000	95.590090 
3315.000000	95.593591 
3314.000000	95.596473 
3313.000000	95.598971 
3312.000000	95.601514 
3311.000000	95.604325 
3310.000000	95.607434 
3309.000000	95.610808 
3308.000000	95.614069 
3307.000000	95.616281 
3306.000000	95.616617 
3305.000000	95.615281 
3304.000000	95.613636 
3303.000000	95.613222 
3302.000000	95.614619 
3301.000000	95.617296 
3300.000000	95.620131 
3299.000000	95.622165 
3298.000000	95.623266 
3297.000000	95.624265 
3296.000000	95.626275 
3295.000000	95.629689 
3294.000000	95.633915 
3293.000000	95.638000 
3292.000000	95.641432 
3291.000000	95.644194 
3290.000000	95.646296 
3289.000000	95.647665 
3288.000000	95.648466 
3287.000000	95.649244 
3286.000000	95.650527 
3285.000000	95.652361 
3284.000000	95.654386 
3283.000000	95.656319 
3282.000000	95.658261 
3281.000000	95.660472 
3280.000000	95.662944 
3279.000000	95.665419 
3278.000000	95.667780 
3277.000000	95.670203 
3276.000000	95.672806 
3275.000000	95.675367 
3274.000000	95.677612 
3273.000000	95.679635 
3272.000000	95.681813 
3271.000000	95.684346 
3270.000000	95.687070 
3269.000000	95.689681 
3268.000000	95.692038 
3267.000000	95.694243 
3266.000000	95.696524 
3265.000000	95.699049 
3264.000000	95.701818 
3263.000000	95.704700 
3262.000000	95.707522 
3261.000000	95.710212 
3260.000000	95.712820 
3259.000000	95.715413 
3258.000000	95.717986 
3257.000000	95.720520 
3256.000000	95.723074 
3255.000000	95.725721 
3254.000000	95.728439 
3253.000000	95.731139 
3252.000000	95.733804 
3251.000000	95.736523 
3250.000000	95.739361 
3249.000000	95.742263 
3248.000000	95.745096 
3247.000000	95.747784 
3246.000000	95.750358 
3245.000000	95.752937 
3244.000000	95.755639 
3243.000000	95.758500 
3242.000000	95.761454 
3241.000000	95.764381 
3240.000000	95.767198 
3239.000000	95.769926 
3238.000000	95.772724 
3237.000000	95.775831 
3236.000000	95.779412 
3235.000000	95.783356 
3234.000000	95.787172 
3233.000000	95.790290 
3232.000000	95.792486 
3231.000000	95.794112 
3230.000000	95.795886 
3229.000000	95.798247 
3228.000000	95.801160 
3227.000000	95.804425 
3226.000000	95.808080 
3225.000000	95.812280 
3224.000000	95.816847 
3223.000000	95.821236 
3222.000000	95.825055 
3221.000000	95.828458 
3220.000000	95.831848 
3219.000000	95.835251 
3218.000000	95.838272 
3217.000000	95.840641 
3216.000000	95.842565 
3215.000000	95.844584 
3214.000000	95.847169 
3213.000000	95.850415 
3212.000000	95.853968 
3211.000000	95.857266 
3210.000000	95.859993 
3209.000000	95.862360 
3208.000000	95.864869 
3207.000000	95.867794 
3206.000000	95.870983 
3205.000000	95.874197 
3204.000000	95.877525 
3203.000000	95.881354 
3202.000000	95.885940 
3201.000000	95.891014 
3200.000000	95.895903 
3199.000000	95.900178 
3198.000000	95.904127 
3197.000000	95.908360 
3196.000000	95.912909 
3195.000000	95.917048 
3194.000000	95.920216 
3193.000000	95.922844 
3192.000000	95.925951 
3191.000000	95.929913 
3190.000000	95.934005 
3189.000000	95.937192 
3188.000000	95.939254 
3187.000000	95.941082 
3186.000000	95.943976 
3185.000000	95.948547 
3184.000000	95.954307 
3183.000000	95.960188 
3182.000000	95.965555 
3181.000000	95.970482 
3180.000000	95.975144 
3179.000000	95.979424 
3178.000000	95.983248 
3177.000000	95.986929 
3176.000000	95.990908 
3175.000000	95.995339 
3174.000000	96.000125 
3173.000000	96.005133 
3172.000000	96.010140 
3171.000000	96.014778 
3170.000000	96.018846 
3169.000000	96.022602 
3168.000000	96.026531 
3167.000000	96.030848 
3166.000000	96.035401 
3165.000000	96.039969 
3164.000000	96.044459 
3163.000000	96.048856 
3162.000000	96.053179 
3161.000000	96.057522 
3160.000000	96.061998 
3159.000000	96.066596 
3158.000000	96.071203 
3157.000000	96.075795 
3156.000000	96.080474 
3155.000000	96.085275 
3154.000000	96.090051 
3153.000000	96.094641 
3152.000000	96.099019 
3151.000000	96.103202 
3150.000000	96.107166 
3149.000000	96.110943 
3148.000000	96.114740 
3147.000000	96.118848 
3146.000000	96.123417 
3145.000000	96.128377 
3144.000000	96.133487 
3143.000000	96.138438 
3142.000000	96.142994 
3141.000000	96.147121 
3140.000000	96.151012 
3139.000000	96.154970 
3138.000000	96.159163 
3137.000000	96.163535 
3136.000000	96.167866 
3135.000000	96.171919 
3134.000000	96.175649 
3133.000000	96.179319 
3132.000000	96.183307 
3131.000000	96.187709 
3130.000000	96.192272 
3129.000000	96.196756 
3128.000000	96.201216 
3127.000000	96.205820 
3126.000000	96.210559 
3125.000000	96.215299 
3124.000000	96.219970 
3123.000000	96.224465 
3122.000000	96.228474 
3121.000000	96.231780 
3120.000000	96.234658 
3119.000000	96.237741 
3118.000000	96.241394 
3117.000000	96.245408 
3116.000000	96.249304 
3115.000000	96.252802 
3114.000000	96.256021 
3113.000000	96.259370 
3112.000000	96.263289 
3111.000000	96.267951 
3110.000000	96.273068 
3109.000000	96.277983 
3108.000000	96.282163 
3107.000000	96.285583 
3106.000000	96.288602 
3105.000000	96.291485 
3104.000000	96.294217 
3103.000000	96.296852 
3102.000000	96.299764 
3101.000000	96.303325 
3100.000000	96.307406 
3099.000000	96.311471 
3098.000000	96.315293 
3097.000000	96.319301 
3096.000000	96.323911 
3095.000000	96.328776 
3094.000000	96.333043 
3093.000000	96.336296 
3092.000000	96.338885 
3091.000000	96.341291 
3090.000000	96.343638 
3089.000000	96.345914 
3088.000000	96.348305 
3087.000000	96.351130 
3086.000000	96.354581 
3085.000000	96.358564 
3084.000000	96.362697 
3083.000000	96.366520 
3082.000000	96.369875 
3081.000000	96.373080 
3080.000000	96.376612 
3079.000000	96.380549 
3078.000000	96.384456 
3077.000000	96.388009 
3076.000000	96.391442 
3075.000000	96.395054 
3074.000000	96.398592 
3073.000000	96.401637 
3072.000000	96.404386 
3071.000000	96.407459 
3070.000000	96.410982 
3069.000000	96.414466 
3068.000000	96.417604 
3067.000000	96.420629 
3066.000000	96.423767 
3065.000000	96.426877 
3064.000000	96.429763 
3063.000000	96.432320 
3062.000000	96.434278 
3061.000000	96.435383 
3060.000000	96.436014 
3059.000000	96.437222 
3058.000000	96.439930 
3057.000000	96.444320 
3056.000000	96.449754 
3055.000000	96.454826 
3054.000000	96.457902 
3053.000000	96.458465 
3052.000000	96.458220 
3051.000000	96.459972 
3050.000000	96.464746 
3049.000000	96.470660 
3048.000000	96.475039 
3047.000000	96.477147 
3046.000000	96.478094 
3045.000000	96.478951 
3044.000000	96.480066 
3043.000000	96.481998 
3042.000000	96.485656 
3041.000000	96.490866 
3040.000000	96.495609 
3039.000000	96.497712 
3038.000000	96.497026 
3037.000000	96.495406 
3036.000000	96.494624 
3035.000000	96.494689 
3034.000000	96.494578 
3033.000000	96.494018 
3032.000000	96.493847 
3031.000000	96.494782 
3030.000000	96.496510 
3029.000000	96.498190 
3028.000000	96.499198 
3027.000000	96.499060 
3026.000000	96.497239 
3025.000000	96.493723 
3024.000000	96.489632 
3023.000000	96.486576 
3022.000000	96.485319 
3021.000000	96.485528 
3020.000000	96.486567 
3019.000000	96.487847 
3018.000000	96.488481 
3017.000000	96.487568 
3016.000000	96.485272 
3015.000000	96.483107 
3014.000000	96.482731 
3013.000000	96.484600 
3012.000000	96.487690 
3011.000000	96.490022 
3010.000000	96.489646 
3009.000000	96.485925 
3008.000000	96.480257 
3007.000000	96.475142 
3006.000000	96.471929 
3005.000000	96.469964 
3004.000000	96.468094 
3003.000000	96.466357 
3002.000000	96.465779 
3001.000000	96.466931 
3000.000000	96.469150 
2999.000000	96.470837 
2998.000000	96.470280 
2997.000000	96.466687 
2996.000000	96.460981 
2995.000000	96.455430 
2994.000000	96.451871 
2993.000000	96.450281 
2992.000000	96.449133 
2991.000000	96.446947 
2990.000000	96.443367 
2989.000000	96.439132 
2988.000000	96.435479 
2987.000000	96.433553 
2986.000000	96.434084 
2985.000000	96.437353 
2984.000000	96.443076 
2983.000000	96.450096 
2982.000000	96.456600 
2981.000000	96.461295 
2980.000000	96.464327 
2979.000000	96.466460 
2978.000000	96.467526 
2977.000000	96.466622 
2976.000000	96.463985 
2975.000000	96.461596 
2974.000000	96.461267 
2973.000000	96.462878 
2972.000000	96.465085 
2971.000000	96.467065 
2970.000000	96.468820 
2969.000000	96.470380 
2968.000000	96.471720 
2967.000000	96.473186 
2966.000000	96.475155 
2965.000000	96.477360 
2964.000000	96.479210 
2963.000000	96.480698 
2962.000000	96.482414 
2961.000000	96.484789 
2960.000000	96.487990 
2959.000000	96.492526 
2958.000000	96.499197 
2957.000000	96.508093 
2956.000000	96.517914 
2955.000000	96.526500 
2954.000000	96.532204 
2953.000000	96.535225 
2952.000000	96.537837 
2951.000000	96.542749 
2950.000000	96.550355 
2949.000000	96.557881 
2948.000000	96.562038 
2947.000000	96.562272 
2946.000000	96.560824 
2945.000000	96.559842 
2944.000000	96.559485 
2943.000000	96.558984 
2942.000000	96.558212 
2941.000000	96.557529 
2940.000000	96.557073 
2939.000000	96.557120 
2938.000000	96.558443 
2937.000000	96.561270 
2936.000000	96.564117 
2935.000000	96.564638 
2934.000000	96.561808 
2933.000000	96.556792 
2932.000000	96.551736 
2931.000000	96.548184 
2930.000000	96.546509 
2929.000000	96.546204 
2928.000000	96.546407 
2927.000000	96.546577 
2926.000000	96.547025 
2925.000000	96.548776 
2924.000000	96.552784 
2923.000000	96.559242 
2922.000000	96.567396 
2921.000000	96.575827 
2920.000000	96.583292 
2919.000000	96.589619 
2918.000000	96.595480 
2917.000000	96.600890 
2916.000000	96.604427 
2915.000000	96.604755 
2914.000000	96.602801 
2913.000000	96.601435 
2912.000000	96.602466 
2911.000000	96.604774 
2910.000000	96.606104 
2909.000000	96.606142 
2908.000000	96.606822 
2907.000000	96.609662 
2906.000000	96.613713 
2905.000000	96.616567 
2904.000000	96.616759 
2903.000000	96.615223 
2902.000000	96.614431 
2901.000000	96.616306 
2900.000000	96.621188 
2899.000000	96.627937 
2898.000000	96.635042 
2897.000000	96.641404 
2896.000000	96.646291 
2895.000000	96.649192 
2894.000000	96.650435 
2893.000000	96.651717 
2892.000000	96.655020 
2891.000000	96.660635 
2890.000000	96.666853 
2889.000000	96.672019 
2888.000000	96.676290 
2887.000000	96.680621 
2886.000000	96.684717 
2885.000000	96.687289 
2884.000000	96.688368 
2883.000000	96.690076 
2882.000000	96.694332 
2881.000000	96.700605 
2880.000000	96.706850 
2879.000000	96.712308 
2878.000000	96.718084 
2877.000000	96.724786 
2876.000000	96.730930 
2875.000000	96.734608 
2874.000000	96.735791 
2873.000000	96.736084 
2872.000000	96.736677 
2871.000000	96.737452 
2870.000000	96.738028 
2869.000000	96.738634 
2868.000000	96.739775 
2867.000000	96.741699 
2866.000000	96.744421 
2865.000000	96.747717 
2864.000000	96.751019 
2863.000000	96.753956 
2862.000000	96.757130 
2861.000000	96.761529 
2860.000000	96.766896 
2859.000000	96.771500 
2858.000000	96.774115 
2857.000000	96.775639 
2856.000000	96.778070 
2855.000000	96.782273 
2854.000000	96.787435 
2853.000000	96.792369 
2852.000000	96.796637 
2851.000000	96.800463 
2850.000000	96.804298 
2849.000000	96.808626 
2848.000000	96.813633 
2847.000000	96.818798 
2846.000000	96.823200 
2845.000000	96.826460 
2844.000000	96.829197 
2843.000000	96.832440 
2842.000000	96.836711 
2841.000000	96.841577 
2840.000000	96.845830 
2839.000000	96.848323 
2838.000000	96.849018 
2837.000000	96.849061 
2836.000000	96.849686 
2835.000000	96.851126 
2834.000000	96.852969 
2833.000000	96.855321 
2832.000000	96.858881 
2831.000000	96.863732 
2830.000000	96.868692 
2829.000000	96.872322 
2828.000000	96.874409 
2827.000000	96.876107 
2826.000000	96.878707 
2825.000000	96.882365 
2824.000000	96.886037 
2823.000000	96.888535 
2822.000000	96.889621 
2821.000000	96.890159 
2820.000000	96.891227 
2819.000000	96.893084 
2818.000000	96.895214 
2817.000000	96.897242 
2816.000000	96.899388 
2815.000000	96.901938 
2814.000000	96.904623 
2813.000000	96.906822 
2812.000000	96.908232 
2811.000000	96.909078 
2810.000000	96.909789 
2809.000000	96.910677 
2808.000000	96.911883 
2807.000000	96.913447 
2806.000000	96.915311 
2805.000000	96.917297 
2804.000000	96.919136 
2803.000000	96.920631 
2802.000000	96.921908 
2801.000000	96.923442 
2800.000000	96.925613 
2799.000000	96.928270 
2798.000000	96.930813 
2797.000000	96.932786 
2796.000000	96.934270 
2795.000000	96.935664 
2794.000000	96.937280 
2793.000000	96.939117 
2792.000000	96.941021 
2791.000000	96.942876 
2790.000000	96.944652 
2789.000000	96.946340 
2788.000000	96.947950 
2787.000000	96.949544 
2786.000000	96.951222 
2785.000000	96.953028 
2784.000000	96.954915 
2783.000000	96.956783 
2782.000000	96.958555 
2781.000000	96.960236 
2780.000000	96.961885 
2779.000000	96.963567 
2778.000000	96.965295 
2777.000000	96.967008 
2776.000000	96.968625 
2775.000000	96.970133 
2774.000000	96.971599 
2773.000000	96.973100 
2772.000000	96.974628 
2771.000000	96.976106 
2770.000000	96.977502 
2769.000000	96.978907 
2768.000000	96.980464 
2767.000000	96.982213 
2766.000000	96.984022 
2765.000000	96.985697 
2764.000000	96.987159 
2763.000000	96.988472 
2762.000000	96.989728 
2761.000000	96.990953 
2760.000000	96.992189 
2759.000000	96.993587 
2758.000000	96.995278 
2757.000000	96.997089 
2756.000000	96.998547 
2755.000000	96.999384 
2754.000000	96.999960 
2753.000000	97.000986 
2752.000000	97.002687 
2751.000000	97.004562 
2750.000000	97.006078 
2749.000000	97.007343 
2748.000000	97.008736 
2747.000000	97.010068 
2746.000000	97.010702 
2745.000000	97.010482 
2744.000000	97.010058 
2743.000000	97.010213 
2742.000000	97.011079 
2741.000000	97.012253 
2740.000000	97.013374 
2739.000000	97.014369 
2738.000000	97.015221 
2737.000000	97.015843 
2736.000000	97.016263 
2735.000000	97.016745 
2734.000000	97.017589 
2733.000000	97.018874 
2732.000000	97.020427 
2731.000000	97.021975 
2730.000000	97.023345 
2729.000000	97.024554 
2728.000000	97.025695 
2727.000000	97.026749 
2726.000000	97.027574 
2725.000000	97.028119 
2724.000000	97.028571 
2723.000000	97.029183 
2722.000000	97.030017 
2721.000000	97.030969 
2720.000000	97.031987 
2719.000000	97.033115 
2718.000000	97.034305 
2717.000000	97.035356 
2716.000000	97.036110 
2715.000000	97.036666 
2714.000000	97.037296 
2713.000000	97.038174 
2712.000000	97.039209 
2711.000000	97.040192 
2710.000000	97.041022 
2709.000000	97.041784 
2708.000000	97.042616 
2707.000000	97.043586 
2706.000000	97.044661 
2705.000000	97.045773 
2704.000000	97.046841 
2703.000000	97.047768 
2702.000000	97.048486 
2701.000000	97.049070 
2700.000000	97.049751 
2699.000000	97.050697 
2698.000000	97.051795 
2697.000000	97.052706 
2696.000000	97.053191 
2695.000000	97.053328 
2694.000000	97.053437 
2693.000000	97.053759 
2692.000000	97.054279 
2691.000000	97.054817 
2690.000000	97.055233 
2689.000000	97.055527 
2688.000000	97.055758 
2687.000000	97.055937 
2686.000000	97.056077 
2685.000000	97.056288 
2684.000000	97.056705 
2683.000000	97.057321 
2682.000000	97.057917 
2681.000000	97.058232 
2680.000000	97.058185 
2679.000000	97.057958 
2678.000000	97.057892 
2677.000000	97.058257 
2676.000000	97.059017 
2675.000000	97.059719 
2674.000000	97.059830 
2673.000000	97.059292 
2672.000000	97.058684 
2671.000000	97.058640 
2670.000000	97.059149 
2669.000000	97.059684 
2668.000000	97.059898 
2667.000000	97.059878 
2666.000000	97.059681 
2665.000000	97.059049 
2664.000000	97.057869 
2663.000000	97.056594 
2662.000000	97.055855 
2661.000000	97.055709 
2660.000000	97.055578 
2659.000000	97.054915 
2658.000000	97.053787 
2657.000000	97.052748 
2656.000000	97.052242 
2655.000000	97.052200 
2654.000000	97.052146 
2653.000000	97.051658 
2652.000000	97.050780 
2651.000000	97.050010 
2650.000000	97.049863 
2649.000000	97.050418 
2648.000000	97.051257 
2647.000000	97.051752 
2646.000000	97.051441 
2645.000000	97.050230 
2644.000000	97.048464 
2643.000000	97.046823 
2642.000000	97.045889 
2641.000000	97.045722 
2640.000000	97.045905 
2639.000000	97.046055 
2638.000000	97.046195 
2637.000000	97.046534 
2636.000000	97.047091 
2635.000000	97.047727 
2634.000000	97.048375 
2633.000000	97.049017 
2632.000000	97.049493 
2631.000000	97.049550 
2630.000000	97.049164 
2629.000000	97.048623 
2628.000000	97.048221 
2627.000000	97.047997 
2626.000000	97.047885 
2625.000000	97.047960 
2624.000000	97.048394 
2623.000000	97.049173 
2622.000000	97.049967 
2621.000000	97.050313 
2620.000000	97.049941 
2619.000000	97.048948 
2618.000000	97.047827 
2617.000000	97.047200 
2616.000000	97.047356 
2615.000000	97.048046 
2614.000000	97.048714 
2613.000000	97.049059 
2612.000000	97.049270 
2611.000000	97.049721 
2610.000000	97.050576 
2609.000000	97.051668 
2608.000000	97.052616 
2607.000000	97.053073 
2606.000000	97.053016 
2605.000000	97.052810 
2604.000000	97.052822 
2603.000000	97.052977 
2602.000000	97.052978 
2601.000000	97.052930 
2600.000000	97.053340 
2599.000000	97.054357 
2598.000000	97.055411 
2597.000000	97.055855 
2596.000000	97.055676 
2595.000000	97.055220 
2594.000000	97.054505 
2593.000000	97.053385 
2592.000000	97.052395 
2591.000000	97.052543 
2590.000000	97.054037 
2589.000000	97.055792 
2588.000000	97.056610 
2587.000000	97.056505 
2586.000000	97.056393 
2585.000000	97.057014 
2584.000000	97.058515 
2583.000000	97.060652 
2582.000000	97.062911 
2581.000000	97.064684 
2580.000000	97.065766 
2579.000000	97.066592 
2578.000000	97.067739 
2577.000000	97.069281 
2576.000000	97.070794 
2575.000000	97.071813 
2574.000000	97.072117 
2573.000000	97.071838 
2572.000000	97.071452 
2571.000000	97.071474 
2570.000000	97.071954 
2569.000000	97.072485 
2568.000000	97.072771 
2567.000000	97.072903 
2566.000000	97.072950 
2565.000000	97.072810 
2564.000000	97.072718 
2563.000000	97.073353 
2562.000000	97.074983 
2561.000000	97.077005 
2560.000000	97.078879 
2559.000000	97.081078 
2558.000000	97.084287 
2557.000000	97.087917 
2556.000000	97.090373 
2555.000000	97.090907 
2554.000000	97.090237 
2553.000000	97.089297 
2552.000000	97.088282 
2551.000000	97.087404 
2550.000000	97.087450 
2549.000000	97.088743 
2548.000000	97.090244 
2547.000000	97.090585 
2546.000000	97.089775 
2545.000000	97.089106 
2544.000000	97.089441 
2543.000000	97.090275 
2542.000000	97.090687 
2541.000000	97.090532 
2540.000000	97.090322 
2539.000000	97.090372 
2538.000000	97.090577 
2537.000000	97.090874 
2536.000000	97.091479 
2535.000000	97.092536 
2534.000000	97.093751 
2533.000000	97.094523 
2532.000000	97.094492 
2531.000000	97.093881 
2530.000000	97.093312 
2529.000000	97.093197 
2528.000000	97.093384 
2527.000000	97.093522 
2526.000000	97.093652 
2525.000000	97.094169 
2524.000000	97.095243 
2523.000000	97.096553 
2522.000000	97.097632 
2521.000000	97.098310 
2520.000000	97.098697 
2519.000000	97.098926 
2518.000000	97.099017 
2517.000000	97.098886 
2516.000000	97.098403 
2515.000000	97.097575 
2514.000000	97.096810 
2513.000000	97.096761 
2512.000000	97.097719 
2511.000000	97.099335 
2510.000000	97.100967 
2509.000000	97.102262 
2508.000000	97.103182 
2507.000000	97.103697 
2506.000000	97.103842 
2505.000000	97.103983 
2504.000000	97.104591 
2503.000000	97.105643 
2502.000000	97.106545 
2501.000000	97.106816 
2500.000000	97.106627 
2499.000000	97.106568 
2498.000000	97.107031 
2497.000000	97.107978 
2496.000000	97.109131 
2495.000000	97.110169 
2494.000000	97.110836 
2493.000000	97.111071 
2492.000000	97.111121 
2491.000000	97.111451 
2490.000000	97.112392 
2489.000000	97.113805 
2488.000000	97.115057 
2487.000000	97.115521 
2486.000000	97.115191 
2485.000000	97.114757 
2484.000000	97.114912 
2483.000000	97.115697 
2482.000000	97.116682 
2481.000000	97.117612 
2480.000000	97.118584 
2479.000000	97.119650 
2478.000000	97.120679 
2477.000000	97.121567 
2476.000000	97.122206 
2475.000000	97.122239 
2474.000000	97.121247 
2473.000000	97.119364 
2472.000000	97.117334 
2471.000000	97.115862 
2470.000000	97.115193 
2469.000000	97.115220 
2468.000000	97.115606 
2467.000000	97.115801 
2466.000000	97.115354 
2465.000000	97.114387 
2464.000000	97.113625 
2463.000000	97.113824 
2462.000000	97.115237 
2461.000000	97.117496 
2460.000000	97.119755 
2459.000000	97.121075 
2458.000000	97.120946 
2457.000000	97.119501 
2456.000000	97.117306 
2455.000000	97.115088 
2454.000000	97.113549 
2453.000000	97.113073 
2452.000000	97.113362 
2451.000000	97.113651 
2450.000000	97.113622 
2449.000000	97.113813 
2448.000000	97.114738 
2447.000000	97.116038 
2446.000000	97.116928 
2445.000000	97.117178 
2444.000000	97.117163 
2443.000000	97.117183 
2442.000000	97.117249 
2441.000000	97.117417 
2440.000000	97.117869 
2439.000000	97.118657 
2438.000000	97.119683 
2437.000000	97.120863 
2436.000000	97.122064 
2435.000000	97.123014 
2434.000000	97.123534 
2433.000000	97.123761 
2432.000000	97.124042 
2431.000000	97.124631 
2430.000000	97.125533 
2429.000000	97.126641 
2428.000000	97.127842 
2427.000000	97.129007 
2426.000000	97.130002 
2425.000000	97.130740 
2424.000000	97.131212 
2423.000000	97.131530 
2422.000000	97.131865 
2421.000000	97.132404 
2420.000000	97.133400 
2419.000000	97.135012 
2418.000000	97.136909 
2417.000000	97.138450 
2416.000000	97.139377 
2415.000000	97.140008 
2414.000000	97.140616 
2413.000000	97.141322 
2412.000000	97.142508 
2411.000000	97.144327 
2410.000000	97.146068 
2409.000000	97.147007 
2408.000000	97.147588 
2407.000000	97.148743 
2406.000000	97.150381 
2405.000000	97.151585 
2404.000000	97.152007 
2403.000000	97.152048 
2402.000000	97.151986 
2401.000000	97.151998 
2400.000000	97.152780 
2399.000000	97.155001 
2398.000000	97.158225 
2397.000000	97.161300 
2396.000000	97.163611 
2395.000000	97.165126 
2394.000000	97.165639 
2393.000000	97.165107 
2392.000000	97.164514 
2391.000000	97.165054 
2390.000000	97.166359 
2389.000000	97.166664 
2388.000000	97.164810 
2387.000000	97.161097 
2386.000000	97.156263 
2385.000000	97.150893 
2384.000000	97.146115 
2383.000000	97.143693 
2382.000000	97.144961 
2381.000000	97.150433 
2380.000000	97.160366 
2379.000000	97.174293 
2378.000000	97.189122 
2377.000000	97.199293 
2376.000000	97.200789 
2375.000000	97.194409 
2374.000000	97.184721 
2373.000000	97.175640 
2372.000000	97.168200 
2371.000000	97.162739 
2370.000000	97.160460 
2369.000000	97.161498 
2368.000000	97.163019 
2367.000000	97.161432 
2366.000000	97.156690 
2365.000000	97.152806 
2364.000000	97.152942 
2363.000000	97.155101 
2362.000000	97.155032 
2361.000000	97.151473 
2360.000000	97.145938 
2359.000000	97.140599 
2358.000000	97.137665 
2357.000000	97.139389 
2356.000000	97.145618 
2355.000000	97.152000 
2354.000000	97.155480 
2353.000000	97.155108 
2352.000000	97.151612 
2351.000000	97.144696 
2350.000000	97.133072 
2349.000000	97.118692 
2348.000000	97.106613 
2347.000000	97.101685 
2346.000000	97.101062 
2345.000000	97.097887 
2344.000000	97.091408 
2343.000000	97.085014 
2342.000000	97.084599 
2341.000000	97.092059 
2340.000000	97.104625 
2339.000000	97.115505 
2338.000000	97.120040 
2337.000000	97.119663 
2336.000000	97.117597 
2335.000000	97.115015 
2334.000000	97.109948 
2333.000000	97.101763 
2332.000000	97.091068 
2331.000000	97.080116 
2330.000000	97.066229 
2329.000000	97.048180 
2328.000000	97.024154 
2327.000000	96.999286 
2326.000000	96.977150 
2325.000000	96.961020 
2324.000000	96.953386 
2323.000000	96.955676 
2322.000000	96.965112 
2321.000000	96.973843 
2320.000000	96.977860 
2319.000000	96.981411 
2318.000000	96.988901 
2317.000000	96.999417 
2316.000000	97.006857 
2315.000000	97.009480 
2314.000000	97.007231 
2313.000000	97.002780 
2312.000000	96.996906 
2311.000000	96.993026 
2310.000000	96.991210 
2309.000000	96.989908 
2308.000000	96.986335 
2307.000000	96.983182 
2306.000000	96.983296 
2305.000000	96.986302 
2304.000000	96.987807 
2303.000000	96.986993 
2302.000000	96.986560 
2301.000000	96.989578 
2300.000000	96.994397 
2299.000000	96.998145 
2298.000000	96.998290 
2297.000000	96.995384 
2296.000000	96.990773 
2295.000000	96.987505 
2294.000000	96.987449 
2293.000000	96.990707 
2292.000000	96.995020 
2291.000000	96.998843 
2290.000000	97.002367 
2289.000000	97.006600 
2288.000000	97.011472 
2287.000000	97.015737 
2286.000000	97.018494 
2285.000000	97.019990 
2284.000000	97.021437 
2283.000000	97.023623 
2282.000000	97.026496 
2281.000000	97.029420 
2280.000000	97.031954 
2279.000000	97.033709 
2278.000000	97.034386 
2277.000000	97.034346 
2276.000000	97.034951 
2275.000000	97.037655 
2274.000000	97.042595 
2273.000000	97.048585 
2272.000000	97.054119 
2271.000000	97.058093 
2270.000000	97.059778 
2269.000000	97.059395 
2268.000000	97.058716 
2267.000000	97.059966 
2266.000000	97.063515 
2265.000000	97.067430 
2264.000000	97.069423 
2263.000000	97.068566 
2262.000000	97.065168 
2261.000000	97.060258 
2260.000000	97.055621 
2259.000000	97.052869 
2258.000000	97.052148 
2257.000000	97.052563 
2256.000000	97.054163 
2255.000000	97.058037 
2254.000000	97.063900 
2253.000000	97.068969 
2252.000000	97.070589 
2251.000000	97.068806 
2250.000000	97.065226 
2249.000000	97.060663 
2248.000000	97.055405 
2247.000000	97.051023 
2246.000000	97.049622 
2245.000000	97.051087 
2244.000000	97.052492 
2243.000000	97.051075 
2242.000000	97.047097 
2241.000000	97.043329 
2240.000000	97.042125 
2239.000000	97.043552 
2238.000000	97.045941 
2237.000000	97.047620 
2236.000000	97.048340 
2235.000000	97.048953 
2234.000000	97.049969 
2233.000000	97.050775 
2232.000000	97.050493 
2231.000000	97.049190 
2230.000000	97.047637 
2229.000000	97.046171 
2228.000000	97.044524 
2227.000000	97.042669 
2226.000000	97.041001 
2225.000000	97.039550 
2224.000000	97.037733 
2223.000000	97.035278 
2222.000000	97.033009 
2221.000000	97.032045 
2220.000000	97.032411 
2219.000000	97.032975 
2218.000000	97.032601 
2217.000000	97.031215 
2216.000000	97.029623 
2215.000000	97.028497 
2214.000000	97.027704 
2213.000000	97.026696 
2212.000000	97.025385 
2211.000000	97.024346 
2210.000000	97.024026 
2209.000000	97.024071 
2208.000000	97.023629 
2207.000000	97.022304 
2206.000000	97.020568 
2205.000000	97.019309 
2204.000000	97.019248 
2203.000000	97.020846 
2202.000000	97.024306 
2201.000000	97.028846 
2200.000000	97.031953 
2199.000000	97.030983 
2198.000000	97.025536 
2197.000000	97.018138 
2196.000000	97.012294 
2195.000000	97.009478 
2194.000000	97.008919 
2193.000000	97.009750 
2192.000000	97.012081 
2191.000000	97.015429 
2190.000000	97.017572 
2189.000000	97.016633 
2188.000000	97.013545 
2187.000000	97.010504 
2186.000000	97.007368 
2185.000000	97.002101 
2184.000000	96.995556 
2183.000000	96.993074 
2182.000000	96.998890 
2181.000000	97.010207 
2180.000000	97.018897 
2179.000000	97.019677 
2178.000000	97.014399 
2177.000000	97.008651 
2176.000000	97.006041 
2175.000000	97.006385 
2174.000000	97.008029 
2173.000000	97.010206 
2172.000000	97.013178 
2171.000000	97.016931 
2170.000000	97.020245 
2169.000000	97.021389 
2168.000000	97.019942 
2167.000000	97.017448 
2166.000000	97.015509 
2165.000000	97.013503 
2164.000000	97.009563 
2163.000000	97.004844 
2162.000000	97.005820 
2161.000000	97.020017 
2160.000000	97.048474 
2159.000000	97.082249 
2158.000000	97.108509 
2157.000000	97.121724 
2156.000000	97.126134 
2155.000000	97.128542 
2154.000000	97.131385 
2153.000000	97.133060 
2152.000000	97.131931 
2151.000000	97.127805 
2150.000000	97.121478 
2149.000000	97.115553 
2148.000000	97.114603 
2147.000000	97.121558 
2146.000000	97.133764 
2145.000000	97.144880 
2144.000000	97.151531 
2143.000000	97.155827 
2142.000000	97.160639 
2141.000000	97.165027 
2140.000000	97.166383 
2139.000000	97.165554 
2138.000000	97.167099 
2137.000000	97.174101 
2136.000000	97.183917 
2135.000000	97.189830 
2134.000000	97.187156 
2133.000000	97.177881 
2132.000000	97.169431 
2131.000000	97.167817 
2130.000000	97.172077 
2129.000000	97.175988 
2128.000000	97.174857 
2127.000000	97.169913 
2126.000000	97.166173 
2125.000000	97.167069 
2124.000000	97.171500 
2123.000000	97.175238 
2122.000000	97.174443 
2121.000000	97.168308 
2120.000000	97.159231 
2119.000000	97.150743 
2118.000000	97.145112 
2117.000000	97.142607 
2116.000000	97.142208 
2115.000000	97.142162 
2114.000000	97.140235 
2113.000000	97.135211 
2112.000000	97.128604 
2111.000000	97.123741 
2110.000000	97.122563 
2109.000000	97.124141 
2108.000000	97.126510 
2107.000000	97.128734 
2106.000000	97.130525 
2105.000000	97.131392 
2104.000000	97.131343 
2103.000000	97.131214 
2102.000000	97.131041 
2101.000000	97.129160 
2100.000000	97.124521 
2099.000000	97.119353 
2098.000000	97.117840 
2097.000000	97.121921 
2096.000000	97.129480 
2095.000000	97.136255 
2094.000000	97.139404 
2093.000000	97.138811 
2092.000000	97.135786 
2091.000000	97.131731 
2090.000000	97.127793 
2089.000000	97.124763 
2088.000000	97.122728 
2087.000000	97.120886 
2086.000000	97.118207 
2085.000000	97.114539 
2084.000000	97.110881 
2083.000000	97.108354 
2082.000000	97.107142 
2081.000000	97.106730 
2080.000000	97.106938 
2079.000000	97.107990 
2078.000000	97.109475 
2077.000000	97.110184 
2076.000000	97.109543 
2075.000000	97.108489 
2074.000000	97.108242 
2073.000000	97.108551 
2072.000000	97.107959 
2071.000000	97.105648 
2070.000000	97.102385 
2069.000000	97.099758 
2068.000000	97.098936 
2067.000000	97.100104 
2066.000000	97.102392 
2065.000000	97.104054 
2064.000000	97.103603 
2063.000000	97.101117 
2062.000000	97.098418 
2061.000000	97.097640 
2060.000000	97.099425 
2059.000000	97.102764 
2058.000000	97.106003 
2057.000000	97.108057 
2056.000000	97.108553 
2055.000000	97.107293 
2054.000000	97.104319 
2053.000000	97.100394 
2052.000000	97.096922 
2051.000000	97.094920 
2050.000000	97.094418 
2049.000000	97.094890 
2048.000000	97.095971 
2047.000000	97.097497 
2046.000000	97.098988 
2045.000000	97.099778 
2044.000000	97.099818 
2043.000000	97.099842 
2042.000000	97.100585 
2041.000000	97.102202 
2040.000000	97.104629 
2039.000000	97.108087 
2038.000000	97.112668 
2037.000000	97.117512 
2036.000000	97.121035 
2035.000000	97.122238 
2034.000000	97.121686 
2033.000000	97.121319 
2032.000000	97.122922 
2031.000000	97.126425 
2030.000000	97.129698 
2029.000000	97.130475 
2028.000000	97.128616 
2027.000000	97.126041 
2026.000000	97.124472 
2025.000000	97.124234 
2024.000000	97.125441 
2023.000000	97.129037 
2022.000000	97.135570 
2021.000000	97.143083 
2020.000000	97.147635 
2019.000000	97.146544 
2018.000000	97.140353 
2017.000000	97.132533 
2016.000000	97.127026 
2015.000000	97.125392 
2014.000000	97.125839 
2013.000000	97.124911 
2012.000000	97.121560 
2011.000000	97.119435 
2010.000000	97.123325 
2009.000000	97.133305 
2008.000000	97.143516 
2007.000000	97.148193 
2006.000000	97.147340 
2005.000000	97.145044 
2004.000000	97.144174 
2003.000000	97.144675 
2002.000000	97.145966 
2001.000000	97.147879 
2000.000000	97.148951 
1999.000000	97.146002 
1998.000000	97.136819 
1997.000000	97.123015 
1996.000000	97.109542 
1995.000000	97.100959 
1994.000000	97.098421 
1993.000000	97.099586 
1992.000000	97.100680 
1991.000000	97.099774 
1990.000000	97.098484 
1989.000000	97.099886 
1988.000000	97.104553 
1987.000000	97.108831 
1986.000000	97.107754 
1985.000000	97.099986 
1984.000000	97.089373 
1983.000000	97.081356 
1982.000000	97.078377 
1981.000000	97.079322 
1980.000000	97.082469 
1979.000000	97.087365 
1978.000000	97.093527 
1977.000000	97.099103 
1976.000000	97.102241 
1975.000000	97.103394 
1974.000000	97.105255 
1973.000000	97.110383 
1972.000000	97.118826 
1971.000000	97.127604 
1970.000000	97.132467 
1969.000000	97.130821 
1968.000000	97.123470 
1967.000000	97.114302 
1966.000000	97.107994 
1965.000000	97.107056 
1964.000000	97.111132 
1963.000000	97.118237 
1962.000000	97.126342 
1961.000000	97.133755 
1960.000000	97.138544 
1959.000000	97.138917 
1958.000000	97.134996 
1957.000000	97.129686 
1956.000000	97.126492 
1955.000000	97.126307 
1954.000000	97.127500 
1953.000000	97.128555 
1952.000000	97.129337 
1951.000000	97.129923 
1950.000000	97.130047 
1949.000000	97.130211 
1948.000000	97.131847 
1947.000000	97.135346 
1946.000000	97.138843 
1945.000000	97.140089 
1944.000000	97.138972 
1943.000000	97.137215 
1942.000000	97.136093 
1941.000000	97.135312 
1940.000000	97.134252 
1939.000000	97.132927 
1938.000000	97.131738 
1937.000000	97.131152 
1936.000000	97.131473 
1935.000000	97.132368 
1934.000000	97.132839 
1933.000000	97.132367 
1932.000000	97.131776 
1931.000000	97.132190 
1930.000000	97.133374 
1929.000000	97.134011 
1928.000000	97.133827 
1927.000000	97.133930 
1926.000000	97.134702 
1925.000000	97.134801 
1924.000000	97.133109 
1923.000000	97.130462 
1922.000000	97.128294 
1921.000000	97.126505 
1920.000000	97.124353 
1919.000000	97.121980 
1918.000000	97.119591 
1917.000000	97.116459 
1916.000000	97.112550 
1915.000000	97.109759 
1914.000000	97.109602 
1913.000000	97.111103 
1912.000000	97.111919 
1911.000000	97.111270 
1910.000000	97.110076 
1909.000000	97.109002 
1908.000000	97.108158 
1907.000000	97.107741 
1906.000000	97.107283 
1905.000000	97.105001 
1904.000000	97.099902 
1903.000000	97.094104 
1902.000000	97.090593 
1901.000000	97.089253 
1900.000000	97.087577 
1899.000000	97.084520 
1898.000000	97.081455 
1897.000000	97.079594 
1896.000000	97.078301 
1895.000000	97.076507 
1894.000000	97.074124 
1893.000000	97.071445 
1892.000000	97.068670 
1891.000000	97.066362 
1890.000000	97.065201 
1889.000000	97.065048 
1888.000000	97.065224 
1887.000000	97.065624 
1886.000000	97.066209 
1885.000000	97.066007 
1884.000000	97.064071 
1883.000000	97.061292 
1882.000000	97.059928 
1881.000000	97.061095 
1880.000000	97.063729 
1879.000000	97.065666 
1878.000000	97.065507 
1877.000000	97.063665 
1876.000000	97.061916 
1875.000000	97.061875 
1874.000000	97.063671 
1873.000000	97.065912 
1872.000000	97.067087 
1871.000000	97.066815 
1870.000000	97.065693 
1869.000000	97.064721 
1868.000000	97.064999 
1867.000000	97.067273 
1866.000000	97.070840 
1865.000000	97.073525 
1864.000000	97.073984 
1863.000000	97.073336 
1862.000000	97.073761 
1861.000000	97.075896 
1860.000000	97.078667 
1859.000000	97.081296 
1858.000000	97.084099 
1857.000000	97.087314 
1856.000000	97.090637 
1855.000000	97.093834 
1854.000000	97.096587 
1853.000000	97.098225 
1852.000000	97.098832 
1851.000000	97.099822 
1850.000000	97.102410 
1849.000000	97.106224 
1848.000000	97.109837 
1847.000000	97.112521 
1846.000000	97.114685 
1845.000000	97.116841 
1844.000000	97.118908 
1843.000000	97.120644 
1842.000000	97.122117 
1841.000000	97.123461 
1840.000000	97.125196 
1839.000000	97.128167 
1838.000000	97.132344 
1837.000000	97.136076 
1836.000000	97.137911 
1835.000000	97.138610 
1834.000000	97.139927 
1833.000000	97.142002 
1832.000000	97.143637 
1831.000000	97.144190 
1830.000000	97.144258 
1829.000000	97.144687 
1828.000000	97.145601 
1827.000000	97.146854 
1826.000000	97.148568 
1825.000000	97.150778 
1824.000000	97.152734 
1823.000000	97.153737 
1822.000000	97.154096 
1821.000000	97.154363 
1820.000000	97.154575 
1819.000000	97.154979 
1818.000000	97.156802 
1817.000000	97.160401 
1816.000000	97.163708 
1815.000000	97.164951 
1814.000000	97.165078 
1813.000000	97.166032 
1812.000000	97.167413 
1811.000000	97.166810 
1810.000000	97.164022 
1809.000000	97.161487 
1808.000000	97.160738 
1807.000000	97.161752 
1806.000000	97.164374 
1805.000000	97.167675 
1804.000000	97.169285 
1803.000000	97.167696 
1802.000000	97.164389 
1801.000000	97.162597 
1800.000000	97.162923 
1799.000000	97.163303 
1798.000000	97.163264 
1797.000000	97.163252 
1796.000000	97.162473 
1795.000000	97.160420 
1794.000000	97.158460 
1793.000000	97.158267 
1792.000000	97.158726 
1791.000000	97.158198 
1790.000000	97.158509 
1789.000000	97.161376 
1788.000000	97.165382 
1787.000000	97.168152 
1786.000000	97.169378 
1785.000000	97.170308 
1784.000000	97.171502 
1783.000000	97.172941 
1782.000000	97.174708 
1781.000000	97.177433 
1780.000000	97.181426 
1779.000000	97.186123 
1778.000000	97.191400 
1777.000000	97.196918 
1776.000000	97.201418 
1775.000000	97.203546 
1774.000000	97.203447 
1773.000000	97.203740 
1772.000000	97.206254 
1771.000000	97.208757 
1770.000000	97.209232 
1769.000000	97.208472 
1768.000000	97.208528 
1767.000000	97.210408 
1766.000000	97.213269 
1765.000000	97.215941 
1764.000000	97.217871 
1763.000000	97.218775 
1762.000000	97.218644 
1761.000000	97.218320 
1760.000000	97.218644 
1759.000000	97.219425 
1758.000000	97.220120 
1757.000000	97.220924 
1756.000000	97.222581 
1755.000000	97.224289 
1754.000000	97.223965 
1753.000000	97.220661 
1752.000000	97.216126 
1751.000000	97.213872 
1750.000000	97.215321 
1749.000000	97.218624 
1748.000000	97.221338 
1747.000000	97.222652 
1746.000000	97.222831 
1745.000000	97.222929 
1744.000000	97.224070 
1743.000000	97.225793 
1742.000000	97.226410 
1741.000000	97.225573 
1740.000000	97.225194 
1739.000000	97.226917 
1738.000000	97.229410 
1737.000000	97.229731 
1736.000000	97.226115 
1735.000000	97.219973 
1734.000000	97.215273 
1733.000000	97.212959 
1732.000000	97.212308 
1731.000000	97.213286 
1730.000000	97.215671 
1729.000000	97.218099 
1728.000000	97.219269 
1727.000000	97.218861 
1726.000000	97.217117 
1725.000000	97.214645 
1724.000000	97.211984 
1723.000000	97.209949 
1722.000000	97.209168 
1721.000000	97.208143 
1720.000000	97.204214 
1719.000000	97.196961 
1718.000000	97.189979 
1717.000000	97.186161 
1716.000000	97.182879 
1715.000000	97.178573 
1714.000000	97.175404 
1713.000000	97.173580 
1712.000000	97.170434 
1711.000000	97.165617 
1710.000000	97.161370 
1709.000000	97.158269 
1708.000000	97.154220 
1707.000000	97.148561 
1706.000000	97.143926 
1705.000000	97.141087 
1704.000000	97.135612 
1703.000000	97.123951 
1702.000000	97.107315 
1701.000000	97.093074 
1700.000000	97.086597 
1699.000000	97.082083 
1698.000000	97.077042 
1697.000000	97.072179 
1696.000000	97.067370 
1695.000000	97.062307 
1694.000000	97.056985 
1693.000000	97.050900 
1692.000000	97.042814 
1691.000000	97.033109 
1690.000000	97.023563 
1689.000000	97.015305 
1688.000000	97.007760 
1687.000000	96.999433 
1686.000000	96.990360 
1685.000000	96.983332 
1684.000000	96.977839 
1683.000000	96.969381 
1682.000000	96.958924 
1681.000000	96.948545 
1680.000000	96.940160 
1679.000000	96.933879 
1678.000000	96.926612 
1677.000000	96.915886 
1676.000000	96.904614 
1675.000000	96.897678 
1674.000000	96.892666 
1673.000000	96.884832 
1672.000000	96.873725 
1671.000000	96.862447 
1670.000000	96.853363 
1669.000000	96.845006 
1668.000000	96.837757 
1667.000000	96.833187 
1666.000000	96.828580 
1665.000000	96.821166 
1664.000000	96.812861 
1663.000000	96.807003 
1662.000000	96.800455 
1661.000000	96.788501 
1660.000000	96.774981 
1659.000000	96.766474 
1658.000000	96.763453 
1657.000000	96.760595 
1656.000000	96.751127 
1655.000000	96.732727 
1654.000000	96.712014 
1653.000000	96.697123 
1652.000000	96.683871 
1651.000000	96.678972 
1650.000000	96.677584 
1649.000000	96.673721 
1648.000000	96.669029 
1647.000000	96.666807 
1646.000000	96.664267 
1645.000000	96.658839 
1644.000000	96.652422 
1643.000000	96.646258 
1642.000000	96.641007 
1641.000000	96.637296 
1640.000000	96.635758 
1639.000000	96.634607 
1638.000000	96.631223 
1637.000000	96.626773 
1636.000000	96.625439 
1635.000000	96.627798 
1634.000000	96.631385 
1633.000000	96.634115 
1632.000000	96.633834 
1631.000000	96.633081 
1630.000000	96.636226 
1629.000000	96.644216 
1628.000000	96.654524 
1627.000000	96.664810 
1626.000000	96.673323 
1625.000000	96.679709 
1624.000000	96.687424 
1623.000000	96.699977 
1622.000000	96.714190 
1621.000000	96.724214 
1620.000000	96.729098 
1619.000000	96.732042 
1618.000000	96.737711 
1617.000000	96.747445 
1616.000000	96.758041 
1615.000000	96.768510 
1614.000000	96.778925 
1613.000000	96.786900 
1612.000000	96.792570 
1611.000000	96.799041 
1610.000000	96.807693 
1609.000000	96.818463 
1608.000000	96.833330 
1607.000000	96.852193 
1606.000000	96.868308 
1605.000000	96.876552 
1604.000000	96.881143 
1603.000000	96.888830 
1602.000000	96.900284 
1601.000000	96.911977 
1600.000000	96.922635 
1599.000000	96.932986 
1598.000000	96.942223 
1597.000000	96.949704 
1596.000000	96.957410 
1595.000000	96.967530 
1594.000000	96.978859 
1593.000000	96.988441 
1592.000000	96.995859 
1591.000000	97.002800 
1590.000000	97.009514 
1589.000000	97.015144 
1588.000000	97.020956 
1587.000000	97.029498 
1586.000000	97.039963 
1585.000000	97.048543 
1584.000000	97.054602 
1583.000000	97.060834 
1582.000000	97.068183 
1581.000000	97.075650 
1580.000000	97.083079 
1579.000000	97.090590 
1578.000000	97.097746 
1577.000000	97.105198 
1576.000000	97.113856 
1575.000000	97.122752 
1574.000000	97.130288 
1573.000000	97.135258 
1572.000000	97.138166 
1571.000000	97.141577 
1570.000000	97.145646 
1569.000000	97.146904 
1568.000000	97.146954 
1567.000000	97.149417 
1566.000000	97.153040 
1565.000000	97.155991 
1564.000000	97.159597 
1563.000000	97.162233 
1562.000000	97.160115 
1561.000000	97.150189 
1560.000000	97.146923 
1559.000000	97.160726 
1558.000000	97.169512 
1557.000000	97.167579 
1556.000000	97.164711 
1555.000000	97.163202 
1554.000000	97.163066 
1553.000000	97.164096 
1552.000000	97.165530 
1551.000000	97.164705 
1550.000000	97.160945 
1549.000000	97.156367 
1548.000000	97.153371 
1547.000000	97.151804 
1546.000000	97.149373 
1545.000000	97.145606 
1544.000000	97.142597 
1543.000000	97.141730 
1542.000000	97.142989 
1541.000000	97.145037 
1540.000000	97.140858 
1539.000000	97.128408 
1538.000000	97.116112 
1537.000000	97.106883 
1536.000000	97.097821 
1535.000000	97.089606 
1534.000000	97.085305 
1533.000000	97.084095 
1532.000000	97.081345 
1531.000000	97.075727 
1530.000000	97.069137 
1529.000000	97.062589 
1528.000000	97.055232 
1527.000000	97.046972 
1526.000000	97.039537 
1525.000000	97.034398 
1524.000000	97.030763 
1523.000000	97.026957 
1522.000000	97.022255 
1521.000000	97.015454 
1520.000000	97.005948 
1519.000000	96.995156 
1518.000000	96.984161 
1517.000000	96.973834 
1516.000000	96.964897 
1515.000000	96.957786 
1514.000000	96.952181 
1513.000000	96.946754 
1512.000000	96.939844 
1511.000000	96.930217 
1510.000000	96.918664 
1509.000000	96.907018 
1508.000000	96.898050 
1507.000000	96.891906 
1506.000000	96.885441 
1505.000000	96.877674 
1504.000000	96.869707 
1503.000000	96.861265 
1502.000000	96.852258 
1501.000000	96.843234 
1500.000000	96.834735 
1499.000000	96.826382 
1498.000000	96.817277 
1497.000000	96.807327 
1496.000000	96.797265 
1495.000000	96.788050 
1494.000000	96.780242 
1493.000000	96.773629 
1492.000000	96.767553 
1491.000000	96.761475 
1490.000000	96.754750 
1489.000000	96.746663 
1488.000000	96.736680 
1487.000000	96.725502 
1486.000000	96.714816 
1485.000000	96.704397 
1484.000000	96.693580 
1483.000000	96.683328 
1482.000000	96.674872 
1481.000000	96.667865 
1480.000000	96.660101 
1479.000000	96.650283 
1478.000000	96.639454 
1477.000000	96.629425 
1476.000000	96.619985 
1475.000000	96.609143 
1474.000000	96.596579 
1473.000000	96.585334 
1472.000000	96.577870 
1471.000000	96.572565 
1470.000000	96.566992 
1469.000000	96.559226 
1468.000000	96.547897 
1467.000000	96.533477 
1466.000000	96.519279 
1465.000000	96.509577 
1464.000000	96.504676 
1463.000000	96.499763 
1462.000000	96.491264 
1461.000000	96.480210 
1460.000000	96.469451 
1459.000000	96.458982 
1458.000000	96.444586 
1457.000000	96.425155 
1456.000000	96.409359 
1455.000000	96.402391 
1454.000000	96.397903 
1453.000000	96.391725 
1452.000000	96.386428 
1451.000000	96.384286 
1450.000000	96.384462 
1449.000000	96.385337 
1448.000000	96.385667 
1447.000000	96.384112 
1446.000000	96.379767 
1445.000000	96.374336 
1444.000000	96.370107 
1443.000000	96.366039 
1442.000000	96.360868 
1441.000000	96.355431 
1440.000000	96.350086 
1439.000000	96.341840 
1438.000000	96.328845 
1437.000000	96.316735 
1436.000000	96.312828 
1435.000000	96.314875 
1434.000000	96.316642 
1433.000000	96.316801 
1432.000000	96.317798 
1431.000000	96.321394 
1430.000000	96.326599 
1429.000000	96.332094 
1428.000000	96.336822 
1427.000000	96.340127 
1426.000000	96.342584 
1425.000000	96.347906 
1424.000000	96.359724 
1423.000000	96.372559 
1422.000000	96.377780 
1421.000000	96.375676 
1420.000000	96.375202 
1419.000000	96.379200 
1418.000000	96.380625 
1417.000000	96.380859 
1416.000000	96.388340 
1415.000000	96.403060 
1414.000000	96.416716 
1413.000000	96.423840 
1412.000000	96.428591 
1411.000000	96.437001 
1410.000000	96.448619 
1409.000000	96.459935 
1408.000000	96.469874 
1407.000000	96.480038 
1406.000000	96.491931 
1405.000000	96.507124 
1404.000000	96.526929 
1403.000000	96.547265 
1402.000000	96.562105 
1401.000000	96.572161 
1400.000000	96.584586 
1399.000000	96.603044 
1398.000000	96.622191 
1397.000000	96.636709 
1396.000000	96.648873 
1395.000000	96.664310 
1394.000000	96.683681 
1393.000000	96.704520 
1392.000000	96.726854 
1391.000000	96.749690 
1390.000000	96.769804 
1389.000000	96.785431 
1388.000000	96.798136 
1387.000000	96.810295 
1386.000000	96.822140 
1385.000000	96.833966 
1384.000000	96.847697 
1383.000000	96.863672 
1382.000000	96.879289 
1381.000000	96.891948 
1380.000000	96.901873 
1379.000000	96.912002 
1378.000000	96.924956 
1377.000000	96.940358 
1376.000000	96.955506 
1375.000000	96.968228 
1374.000000	96.978833 
1373.000000	96.990373 
1372.000000	97.005159 
1371.000000	97.022119 
1370.000000	97.038114 
1369.000000	97.051022 
1368.000000	97.062346 
1367.000000	97.074154 
1366.000000	97.085934 
1365.000000	97.096317 
1364.000000	97.104718 
1363.000000	97.111006 
1362.000000	97.115756 
1361.000000	97.121198 
1360.000000	97.130193 
1359.000000	97.143812 
1358.000000	97.160123 
1357.000000	97.175656 
1356.000000	97.188295 
1355.000000	97.198141 
1354.000000	97.206295 
1353.000000	97.214148 
1352.000000	97.221897 
1351.000000	97.229539 
1350.000000	97.237337 
1349.000000	97.244328 
1348.000000	97.249920 
1347.000000	97.255186 
1346.000000	97.261958 
1345.000000	97.270485 
1344.000000	97.278934 
1343.000000	97.285530 
1342.000000	97.290102 
1341.000000	97.293186 
1340.000000	97.294811 
1339.000000	97.295140 
1338.000000	97.295148 
1337.000000	97.295878 
1336.000000	97.297221 
1335.000000	97.298200 
1334.000000	97.298728 
1333.000000	97.300142 
1332.000000	97.303304 
1331.000000	97.307449 
1330.000000	97.311182 
1329.000000	97.314111 
1328.000000	97.316790 
1327.000000	97.319739 
1326.000000	97.322397 
1325.000000	97.323159 
1324.000000	97.321407 
1323.000000	97.317838 
1322.000000	97.313333 
1321.000000	97.308764 
1320.000000	97.305663 
1319.000000	97.305656 
1318.000000	97.308774 
1317.000000	97.313164 
1316.000000	97.316292 
1315.000000	97.316224 
1314.000000	97.312671 
1313.000000	97.307994 
1312.000000	97.305937 
1311.000000	97.308006 
1310.000000	97.311662 
1309.000000	97.313437 
1308.000000	97.312923 
1307.000000	97.312846 
1306.000000	97.315313 
1305.000000	97.319340 
1304.000000	97.322777 
1303.000000	97.324327 
1302.000000	97.323563 
1301.000000	97.320613 
1300.000000	97.316741 
1299.000000	97.314181 
1298.000000	97.314210 
1297.000000	97.315655 
1296.000000	97.316050 
1295.000000	97.314502 
1294.000000	97.312697 
1293.000000	97.313059 
1292.000000	97.316143 
1291.000000	97.319978 
1290.000000	97.322056 
1289.000000	97.321543 
1288.000000	97.319194 
1287.000000	97.315799 
1286.000000	97.311808 
1285.000000	97.308517 
1284.000000	97.308025 
1283.000000	97.310658 
1282.000000	97.313492 
1281.000000	97.312935 
1280.000000	97.308756 
1279.000000	97.304515 
1278.000000	97.304045 
1277.000000	97.308367 
1276.000000	97.315554 
1275.000000	97.322414 
1274.000000	97.326080 
1273.000000	97.325387 
1272.000000	97.321559 
1271.000000	97.316928 
1270.000000	97.312510 
1269.000000	97.307338 
1268.000000	97.300456 
1267.000000	97.292313 
1266.000000	97.283820 
1265.000000	97.275725 
1264.000000	97.269608 
1263.000000	97.267915 
1262.000000	97.271706 
1261.000000	97.279026 
1260.000000	97.287070 
1259.000000	97.295422 
1258.000000	97.305297 
1257.000000	97.315837 
1256.000000	97.323176 
1255.000000	97.324684 
1254.000000	97.323075 
1253.000000	97.323784 
1252.000000	97.327879 
1251.000000	97.330153 
1250.000000	97.325835 
1249.000000	97.317127 
1248.000000	97.310771 
1247.000000	97.310090 
1246.000000	97.312284 
1245.000000	97.313666 
1244.000000	97.314160 
1243.000000	97.315401 
1242.000000	97.317420 
1241.000000	97.319244 
1240.000000	97.320591 
1239.000000	97.320723 
1238.000000	97.317339 
1237.000000	97.309033 
1236.000000	97.297808 
1235.000000	97.286971 
1234.000000	97.277198 
1233.000000	97.266525 
1232.000000	97.253443 
1231.000000	97.237902 
1230.000000	97.220033 
1229.000000	97.199978 
1228.000000	97.178394 
1227.000000	97.155010 
1226.000000	97.127121 
1225.000000	97.091591 
1224.000000	97.048264 
1223.000000	96.999681 
1222.000000	96.947687 
1221.000000	96.892134 
1220.000000	96.832737 
1219.000000	96.769989 
1218.000000	96.703843 
1217.000000	96.633318 
1216.000000	96.557580 
1215.000000	96.476013 
1214.000000	96.388135 
1213.000000	96.295939 
1212.000000	96.205250 
1211.000000	96.120657 
1210.000000	96.038831 
1209.000000	95.951080 
1208.000000	95.853647 
1207.000000	95.751907 
1206.000000	95.653066 
1205.000000	95.557849 
1204.000000	95.461343 
1203.000000	95.359447 
1202.000000	95.252668 
1201.000000	95.145277 
1200.000000	95.041733 
1199.000000	94.942488 
1198.000000	94.843143 
1197.000000	94.739658 
1196.000000	94.633521 
1195.000000	94.529003 
1194.000000	94.426382 
1193.000000	94.321737 
1192.000000	94.213161 
1191.000000	94.102877 
1190.000000	93.992766 
1189.000000	93.881778 
1188.000000	93.768437 
1187.000000	93.652334 
1186.000000	93.532866 
1185.000000	93.410040 
1184.000000	93.286408 
1183.000000	93.164336 
1182.000000	93.041686 
1181.000000	92.914244 
1180.000000	92.781681 
1179.000000	92.646325 
1178.000000	92.506919 
1177.000000	92.359528 
1176.000000	92.204384 
1175.000000	92.045747 
1174.000000	91.884961 
1173.000000	91.720164 
1172.000000	91.553142 
1171.000000	91.388978 
1170.000000	91.227812 
1169.000000	91.064836 
1168.000000	90.900494 
1167.000000	90.743679 
1166.000000	90.603712 
1165.000000	90.487596 
1164.000000	90.406695 
1163.000000	90.375485 
1162.000000	90.397754 
1161.000000	90.459264 
1160.000000	90.536114 
1159.000000	90.604676 
1158.000000	90.643911 
1157.000000	90.638751 
1156.000000	90.586877 
1155.000000	90.497829 
1154.000000	90.383168 
1153.000000	90.251356 
1152.000000	90.111583 
1151.000000	89.973717 
1150.000000	89.840966 
1149.000000	89.709519 
1148.000000	89.577997 
1147.000000	89.449917 
1146.000000	89.324692 
1145.000000	89.194981 
1144.000000	89.056834 
1143.000000	88.914924 
1142.000000	88.774150 
1141.000000	88.633377 
1140.000000	88.490846 
1139.000000	88.348191 
1138.000000	88.205752 
1137.000000	88.061289 
1136.000000	87.916098 
1135.000000	87.774507 
1134.000000	87.634609 
1133.000000	87.488099 
1132.000000	87.332352 
1131.000000	87.174124 
1130.000000	87.018363 
1129.000000	86.862199 
1128.000000	86.703044 
1127.000000	86.543064 
1126.000000	86.382087 
1125.000000	86.215606 
1124.000000	86.043748 
1123.000000	85.873014 
1122.000000	85.705616 
1121.000000	85.536830 
1120.000000	85.366414 
1119.000000	85.201778 
1118.000000	85.045684 
1117.000000	84.892247 
1116.000000	84.739551 
1115.000000	84.594704 
1114.000000	84.461195 
1113.000000	84.332287 
1112.000000	84.201977 
1111.000000	84.071669 
1110.000000	83.941923 
1109.000000	83.809407 
1108.000000	83.675467 
1107.000000	83.545723 
1106.000000	83.418137 
1105.000000	83.283561 
1104.000000	83.140664 
1103.000000	82.997878 
1102.000000	82.858017 
1101.000000	82.715911 
1100.000000	82.572735 
1099.000000	82.437992 
1098.000000	82.313843 
1097.000000	82.191089 
1096.000000	82.065149 
1095.000000	81.941181 
1094.000000	81.820440 
1093.000000	81.696937 
1092.000000	81.571665 
1091.000000	81.454855 
1090.000000	81.349918 
1089.000000	81.249684 
1088.000000	81.151483 
1087.000000	81.060379 
1086.000000	80.974818 
1085.000000	80.885789 
1084.000000	80.793461 
1083.000000	80.707968 
1082.000000	80.630463 
1081.000000	80.550402 
1080.000000	80.464706 
1079.000000	80.381767 
1078.000000	80.302661 
1077.000000	80.216119 
1076.000000	80.116134 
1075.000000	80.006839 
1074.000000	79.886603 
1073.000000	79.745553 
1072.000000	79.582177 
1071.000000	79.403529 
1070.000000	79.205293 
1069.000000	78.971594 
1068.000000	78.700182 
1067.000000	78.409451 
1066.000000	78.115074 
1065.000000	77.817722 
1064.000000	77.518946 
1063.000000	77.227830 
1062.000000	76.943761 
1061.000000	76.652704 
1060.000000	76.349523 
1059.000000	76.046200 
1058.000000	75.750912 
1057.000000	75.457220 
1056.000000	75.160371 
1055.000000	74.864946 
1054.000000	74.569357 
1053.000000	74.262268 
1052.000000	73.942538 
1051.000000	73.623239 
1050.000000	73.307785 
1049.000000	72.983790 
1048.000000	72.647717 
1047.000000	72.311521 
1046.000000	71.979560 
1045.000000	71.643311 
1044.000000	71.302569 
1043.000000	70.968024 
1042.000000	70.639124 
1041.000000	70.303122 
1040.000000	69.960761 
1039.000000	69.629306 
1038.000000	69.315591 
1037.000000	69.010649 
1036.000000	68.715074 
1035.000000	68.443227 
1034.000000	68.196918 
1033.000000	67.961650 
1032.000000	67.734480 
1031.000000	67.528546 
1030.000000	67.344617 
1029.000000	67.166705 
1028.000000	66.992386 
1027.000000	66.838744 
1026.000000	66.710658 
1025.000000	66.591378 
1024.000000	66.471752 
1023.000000	66.360522 
1022.000000	66.257993 
1021.000000	66.148485 
1020.000000	66.027571 
1019.000000	65.909441 
1018.000000	65.799192 
1017.000000	65.684909 
1016.000000	65.564297 
1015.000000	65.451510 
1014.000000	65.349919 
1013.000000	65.245511 
1012.000000	65.134637 
1011.000000	65.031169 
1010.000000	64.939284 
1009.000000	64.846985 
1008.000000	64.753612 
1007.000000	64.675938 
1006.000000	64.619782 
1005.000000	64.572925 
1004.000000	64.532221 
1003.000000	64.509439 
1002.000000	64.503902 
1001.000000	64.498592 
1000.000000	64.490827 
999.000000	 64.498130 
998.000000	 64.526130 
997.000000	 64.559247 
996.000000	 64.590800 
995.000000	 64.634095 
994.000000	 64.695247 
993.000000	 64.762391 
992.000000	 64.829521 
991.000000	 64.904455 
990.000000	 64.986473 
989.000000	 65.063338 
988.000000	 65.137267 
987.000000	 65.226809 
986.000000	 65.336974 
985.000000	 65.454777 
984.000000	 65.579195 
983.000000	 65.726339 
982.000000	 65.898427 
981.000000	 66.077118 
980.000000	 66.255311 
979.000000	 66.447342 
978.000000	 66.659940 
977.000000	 66.881712 
976.000000	 67.109415 
975.000000	 67.356548 
974.000000	 67.626650 
973.000000	 67.904697 
972.000000	 68.183850 
971.000000	 68.475359 
970.000000	 68.783413 
969.000000	 69.095032 
968.000000	 69.402975 
967.000000	 69.715104 
966.000000	 70.033958 
965.000000	 70.350658 
964.000000	 70.665416 
963.000000	 70.990252 
962.000000	 71.324761 
961.000000	 71.652356 
960.000000	 71.966768 
959.000000	 72.279380 
958.000000	 72.594502 
957.000000	 72.900508 
956.000000	 73.192060 
955.000000	 73.478860 
954.000000	 73.765688 
953.000000	 74.044499 
952.000000	 74.311948 
951.000000	 74.574324 
950.000000	 74.830497 
949.000000	 75.070356 
948.000000	 75.293872 
947.000000	 75.511001 
946.000000	 75.719932 
945.000000	 75.907359 
944.000000	 76.073548 
943.000000	 76.234834 
942.000000	 76.397307 
941.000000	 76.550702 
940.000000	 76.693094 
939.000000	 76.838003 
938.000000	 76.990772 
937.000000	 77.140624 
936.000000	 77.283305 
935.000000	 77.429681 
934.000000	 77.584698 
933.000000	 77.738998 
932.000000	 77.888715 
931.000000	 78.042789 
930.000000	 78.203403 
929.000000	 78.359434 
928.000000	 78.506802 
927.000000	 78.655696 
926.000000	 78.809977 
925.000000	 78.957762 
924.000000	 79.089547 
923.000000	 79.208574 
922.000000	 79.317989 
921.000000	 79.415603 
920.000000	 79.506381 
919.000000	 79.601702 
918.000000	 79.700549 
917.000000	 79.789181 
916.000000	 79.864810 
915.000000	 79.942711 
914.000000	 80.035932 
913.000000	 80.145976 
912.000000	 80.276718 
911.000000	 80.437812 
910.000000	 80.629498 
909.000000	 80.842847 
908.000000	 81.078812 
907.000000	 81.347903 
906.000000	 81.648345 
905.000000	 81.964566 
904.000000	 82.289620 
903.000000	 82.628589 
902.000000	 82.977981 
901.000000	 83.323747 
900.000000	 83.662974 
899.000000	 84.006581 
898.000000	 84.357185 
897.000000	 84.704099 
896.000000	 85.042264 
895.000000	 85.375636 
894.000000	 85.699668 
893.000000	 86.001549 
892.000000	 86.281427 
891.000000	 86.553771 
890.000000	 86.823698 
889.000000	 87.079819 
888.000000	 87.313413 
887.000000	 87.526708 
886.000000	 87.720449 
885.000000	 87.892268 
884.000000	 88.049729 
883.000000	 88.205873 
882.000000	 88.359768 
881.000000	 88.501867 
880.000000	 88.640194 
879.000000	 88.797856 
878.000000	 88.980956 
877.000000	 89.173554 
876.000000	 89.369180 
875.000000	 89.581384 
874.000000	 89.816988 
873.000000	 90.066089 
872.000000	 90.326833 
871.000000	 90.613082 
870.000000	 90.925920 
869.000000	 91.240699 
868.000000	 91.534472 
867.000000	 91.807771 
866.000000	 92.070327 
865.000000	 92.323681 
864.000000	 92.568034 
863.000000	 92.810133 
862.000000	 93.052950 
861.000000	 93.289315 
860.000000	 93.514104 
859.000000	 93.731541 
858.000000	 93.944172 
857.000000	 94.146261 
856.000000	 94.333887 
855.000000	 94.509991 
854.000000	 94.674132 
853.000000	 94.818886 
852.000000	 94.942218 
851.000000	 95.053259 
850.000000	 95.161467 
849.000000	 95.269721 
848.000000	 95.380001 
847.000000	 95.492982 
846.000000	 95.598878 
845.000000	 95.682026 
844.000000	 95.738844 
843.000000	 95.779832 
842.000000	 95.811425 
841.000000	 95.828498 
840.000000	 95.827084 
839.000000	 95.810216 
838.000000	 95.778152 
837.000000	 95.727961 
836.000000	 95.667649 
835.000000	 95.615968 
834.000000	 95.581415 
833.000000	 95.554543 
832.000000	 95.527339 
831.000000	 95.506584 
830.000000	 95.501044 
829.000000	 95.509503 
828.000000	 95.530453 
827.000000	 95.570235 
826.000000	 95.630912 
825.000000	 95.701678 
824.000000	 95.771763 
823.000000	 95.840505 
822.000000	 95.907869 
821.000000	 95.967920 
820.000000	 96.016726 
819.000000	 96.053672 
818.000000	 96.071866 
817.000000	 96.059699 
816.000000	 96.014207 
815.000000	 95.941095 
814.000000	 95.838765 
813.000000	 95.693216 
812.000000	 95.490338 
811.000000	 95.220510 
810.000000	 94.868911 
809.000000	 94.416563 
808.000000	 93.858488 
807.000000	 93.211494 
806.000000	 92.500748 
805.000000	 91.750749 
804.000000	 90.992592 
803.000000	 90.262356 
802.000000	 89.583664 
801.000000	 88.968261 
800.000000	 88.440420 
799.000000	 88.039606 
798.000000	 87.787722 
797.000000	 87.671303 
796.000000	 87.663098 
795.000000	 87.740680 
794.000000	 87.877600 
793.000000	 88.040330 
792.000000	 88.205261 
791.000000	 88.362143 
790.000000	 88.496238 
789.000000	 88.586043 
788.000000	 88.622243 
787.000000	 88.608701 
786.000000	 88.540548 
785.000000	 88.401805 
784.000000	 88.190221 
783.000000	 87.925609 
782.000000	 87.630573 
781.000000	 87.325877 
780.000000	 87.049523 
779.000000	 86.853065 
778.000000	 86.766018 
777.000000	 86.783044 
776.000000	 86.891471 
775.000000	 87.085984 
774.000000	 87.348348 
773.000000	 87.640663 
772.000000	 87.932696 
771.000000	 88.215885 
770.000000	 88.482798 
769.000000	 88.716586 
768.000000	 88.910621 
767.000000	 89.076298 
766.000000	 89.221134 
765.000000	 89.340253 
764.000000	 89.438804 
763.000000	 89.539308 
762.000000	 89.653617 
761.000000	 89.768426 
760.000000	 89.871789 
759.000000	 89.974253 
758.000000	 90.090476 
757.000000	 90.219640 
756.000000	 90.358282 
755.000000	 90.513020 
754.000000	 90.683634 
753.000000	 90.849145 
752.000000	 90.987358 
751.000000	 91.097839 
750.000000	 91.195078 
749.000000	 91.291790 
748.000000	 91.398761 
747.000000	 91.526374 
746.000000	 91.673513 
745.000000	 91.826125 
744.000000	 91.977010 
743.000000	 92.135897 
742.000000	 92.311578 
741.000000	 92.497243 
740.000000	 92.682543 
739.000000	 92.866946 
738.000000	 93.051590 
737.000000	 93.229559 
736.000000	 93.393136 
735.000000	 93.540802 
734.000000	 93.670928 
733.000000	 93.780006 
732.000000	 93.872557 
731.000000	 93.960450 
730.000000	 94.045683 
729.000000	 94.114922 
728.000000	 94.159789 
727.000000	 94.191816 
726.000000	 94.230483 
725.000000	 94.288429 
724.000000	 94.371353 
723.000000	 94.477815 
722.000000	 94.594208 
721.000000	 94.703831 
720.000000	 94.806742 
719.000000	 94.916275 
718.000000	 95.032955 
717.000000	 95.140496 
716.000000	 95.229323 
715.000000	 95.306389 
714.000000	 95.379098 
713.000000	 95.446313 
712.000000	 95.511074 
711.000000	 95.583481 
710.000000	 95.662607 
709.000000	 95.733396 
708.000000	 95.787326 
707.000000	 95.829988 
706.000000	 95.860225 
705.000000	 95.862036 
704.000000	 95.825541 
703.000000	 95.753003 
702.000000	 95.635996 
701.000000	 95.447140 
700.000000	 95.166266 
699.000000	 94.803265 
698.000000	 94.388781 
697.000000	 93.965988 
696.000000	 93.600449 
695.000000	 93.365665 
694.000000	 93.298890 
693.000000	 93.379683 
692.000000	 93.558042 
691.000000	 93.792169 
690.000000	 94.050910 
689.000000	 94.304114 
688.000000	 94.530913 
687.000000	 94.726428 
686.000000	 94.892381 
685.000000	 95.031763 
684.000000	 95.155805 
683.000000	 95.278690 
682.000000	 95.397510 
681.000000	 95.497547 
680.000000	 95.581366 
679.000000	 95.674027 
678.000000	 95.787008 
677.000000	 95.903245 
676.000000	 96.015863 
675.000000	 96.137034 
674.000000	 96.262845 
673.000000	 96.367930 
672.000000	 96.444809 
671.000000	 96.534616 
670.000000	 96.696971 
669.000000	 96.962437 
668.000000	 97.207151 
667.000000	 97.261464 
666.000000	 97.200031 
665.000000	 97.145278 
664.000000	 97.115188 
663.000000	 97.116770 
662.000000	 97.155081 
661.000000	 97.210198 
660.000000	 97.265087 
659.000000	 97.326225 
658.000000	 97.393538 
657.000000	 97.437436 
656.000000	 97.441563 
655.000000	 97.419019 
654.000000	 97.377545 
653.000000	 97.309964 
652.000000	 97.235526 
651.000000	 97.206557 
650.000000	 97.241597 

