4000.000000	96.661987 
3999.000000	96.661671 
3998.000000	96.661312 
3997.000000	96.660945 
3996.000000	96.660569 
3995.000000	96.660176 
3994.000000	96.659791 
3993.000000	96.659426 
3992.000000	96.659058 
3991.000000	96.658688 
3990.000000	96.658389 
3989.000000	96.658215 
3988.000000	96.658105 
3987.000000	96.657952 
3986.000000	96.657725 
3985.000000	96.657503 
3984.000000	96.657365 
3983.000000	96.657300 
3982.000000	96.657259 
3981.000000	96.657207 
3980.000000	96.657086 
3979.000000	96.656786 
3978.000000	96.656266 
3977.000000	96.655651 
3976.000000	96.655149 
3975.000000	96.654825 
3974.000000	96.654555 
3973.000000	96.654167 
3972.000000	96.653597 
3971.000000	96.652903 
3970.000000	96.652219 
3969.000000	96.651684 
3968.000000	96.651358 
3967.000000	96.651175 
3966.000000	96.650993 
3965.000000	96.650665 
3964.000000	96.650142 
3963.000000	96.649475 
3962.000000	96.648774 
3961.000000	96.648133 
3960.000000	96.647560 
3959.000000	96.647013 
3958.000000	96.646446 
3957.000000	96.645843 
3956.000000	96.645210 
3955.000000	96.644559 
3954.000000	96.643900 
3953.000000	96.643242 
3952.000000	96.642593 
3951.000000	96.641950 
3950.000000	96.641313 
3949.000000	96.640677 
3948.000000	96.640048 
3947.000000	96.639440 
3946.000000	96.638855 
3945.000000	96.638274 
3944.000000	96.637659 
3943.000000	96.636986 
3942.000000	96.636266 
3941.000000	96.635547 
3940.000000	96.634857 
3939.000000	96.634162 
3938.000000	96.633455 
3937.000000	96.632856 
3936.000000	96.632469 
3935.000000	96.632104 
3934.000000	96.631364 
3933.000000	96.630055 
3932.000000	96.628494 
3931.000000	96.627173 
3930.000000	96.626298 
3929.000000	96.625951 
3928.000000	96.626214 
3927.000000	96.626782 
3926.000000	96.626723 
3925.000000	96.625423 
3924.000000	96.623471 
3923.000000	96.621897 
3922.000000	96.620843 
3921.000000	96.619913 
3920.000000	96.619074 
3919.000000	96.618568 
3918.000000	96.618153 
3917.000000	96.617411 
3916.000000	96.616544 
3915.000000	96.616121 
3914.000000	96.616173 
3913.000000	96.616249 
3912.000000	96.616040 
3911.000000	96.615640 
3910.000000	96.615078 
3909.000000	96.614290 
3908.000000	96.613291 
3907.000000	96.612183 
3906.000000	96.610924 
3905.000000	96.609463 
3904.000000	96.608017 
3903.000000	96.606875 
3902.000000	96.606075 
3901.000000	96.605466 
3900.000000	96.604925 
3899.000000	96.604397 
3898.000000	96.603835 
3897.000000	96.603243 
3896.000000	96.602649 
3895.000000	96.602035 
3894.000000	96.601402 
3893.000000	96.600761 
3892.000000	96.600125 
3891.000000	96.599503 
3890.000000	96.598905 
3889.000000	96.598336 
3888.000000	96.597788 
3887.000000	96.597248 
3886.000000	96.596713 
3885.000000	96.596195 
3884.000000	96.595701 
3883.000000	96.595223 
3882.000000	96.594746 
3881.000000	96.594277 
3880.000000	96.593840 
3879.000000	96.593448 
3878.000000	96.593088 
3877.000000	96.592733 
3876.000000	96.592360 
3875.000000	96.591965 
3874.000000	96.591558 
3873.000000	96.591154 
3872.000000	96.590755 
3871.000000	96.590358 
3870.000000	96.589980 
3869.000000	96.589657 
3868.000000	96.589407 
3867.000000	96.589211 
3866.000000	96.589042 
3865.000000	96.588898 
3864.000000	96.588789 
3863.000000	96.588703 
3862.000000	96.588614 
3861.000000	96.588506 
3860.000000	96.588383 
3859.000000	96.588244 
3858.000000	96.588087 
3857.000000	96.587919 
3856.000000	96.587756 
3855.000000	96.587606 
3854.000000	96.587472 
3853.000000	96.587370 
3852.000000	96.587312 
3851.000000	96.587292 
3850.000000	96.587295 
3849.000000	96.587314 
3848.000000	96.587340 
3847.000000	96.587364 
3846.000000	96.587378 
3845.000000	96.587374 
3844.000000	96.587351 
3843.000000	96.587316 
3842.000000	96.587283 
3841.000000	96.587266 
3840.000000	96.587272 
3839.000000	96.587296 
3838.000000	96.587326 
3837.000000	96.587355 
3836.000000	96.587387 
3835.000000	96.587439 
3834.000000	96.587526 
3833.000000	96.587660 
3832.000000	96.587839 
3831.000000	96.588058 
3830.000000	96.588305 
3829.000000	96.588570 
3828.000000	96.588844 
3827.000000	96.589110 
3826.000000	96.589351 
3825.000000	96.589569 
3824.000000	96.589777 
3823.000000	96.589980 
3822.000000	96.590180 
3821.000000	96.590393 
3820.000000	96.590651 
3819.000000	96.590970 
3818.000000	96.591332 
3817.000000	96.591712 
3816.000000	96.592105 
3815.000000	96.592516 
3814.000000	96.592933 
3813.000000	96.593323 
3812.000000	96.593672 
3811.000000	96.593990 
3810.000000	96.594292 
3809.000000	96.594577 
3808.000000	96.594829 
3807.000000	96.595047 
3806.000000	96.595251 
3805.000000	96.595465 
3804.000000	96.595698 
3803.000000	96.595944 
3802.000000	96.596195 
3801.000000	96.596463 
3800.000000	96.596745 
3799.000000	96.597017 
3798.000000	96.597258 
3797.000000	96.597469 
3796.000000	96.597659 
3795.000000	96.597815 
3794.000000	96.597904 
3793.000000	96.597898 
3792.000000	96.597790 
3791.000000	96.597586 
3790.000000	96.597281 
3789.000000	96.596867 
3788.000000	96.596342 
3787.000000	96.595708 
3786.000000	96.594975 
3785.000000	96.594171 
3784.000000	96.593331 
3783.000000	96.592462 
3782.000000	96.591593 
3781.000000	96.590736 
3780.000000	96.589824 
3779.000000	96.588923 
3778.000000	96.588199 
3777.000000	96.587520 
3776.000000	96.586455 
3775.000000	96.584840 
3774.000000	96.583112 
3773.000000	96.581815 
3772.000000	96.580670 
3771.000000	96.578883 
3770.000000	96.576507 
3769.000000	96.574554 
3768.000000	96.573389 
3767.000000	96.572283 
3766.000000	96.570574 
3765.000000	96.568683 
3764.000000	96.567575 
3763.000000	96.567215 
3762.000000	96.566326 
3761.000000	96.564129 
3760.000000	96.561592 
3759.000000	96.560126 
3758.000000	96.559067 
3757.000000	96.556944 
3756.000000	96.553749 
3755.000000	96.550300 
3754.000000	96.546626 
3753.000000	96.542401 
3752.000000	96.538925 
3751.000000	96.537717 
3750.000000	96.537307 
3749.000000	96.535364 
3748.000000	96.532957 
3747.000000	96.532169 
3746.000000	96.531758 
3745.000000	96.530014 
3744.000000	96.530001 
3743.000000	96.532959 
3742.000000	96.535101 
3741.000000	96.533816 
3740.000000	96.530355 
3739.000000	96.528202 
3738.000000	96.528451 
3737.000000	96.528368 
3736.000000	96.526079 
3735.000000	96.523977 
3734.000000	96.524511 
3733.000000	96.526109 
3732.000000	96.526404 
3731.000000	96.525604 
3730.000000	96.524978 
3729.000000	96.524477 
3728.000000	96.522921 
3727.000000	96.520376 
3726.000000	96.518977 
3725.000000	96.519548 
3724.000000	96.520030 
3723.000000	96.518841 
3722.000000	96.517280 
3721.000000	96.517241 
3720.000000	96.518449 
3719.000000	96.519365 
3718.000000	96.518525 
3717.000000	96.515820 
3716.000000	96.512198 
3715.000000	96.507771 
3714.000000	96.502007 
3713.000000	96.495731 
3712.000000	96.491478 
3711.000000	96.490599 
3710.000000	96.490952 
3709.000000	96.489703 
3708.000000	96.485820 
3707.000000	96.479987 
3706.000000	96.474115 
3705.000000	96.470041 
3704.000000	96.468023 
3703.000000	96.466324 
3702.000000	96.462549 
3701.000000	96.455629 
3700.000000	96.446529 
3699.000000	96.437103 
3698.000000	96.428238 
3697.000000	96.420352 
3696.000000	96.414894 
3695.000000	96.412035 
3694.000000	96.409040 
3693.000000	96.403814 
3692.000000	96.397517 
3691.000000	96.392104 
3690.000000	96.387072 
3689.000000	96.382186 
3688.000000	96.378820 
3687.000000	96.376934 
3686.000000	96.374232 
3685.000000	96.368133 
3684.000000	96.359083 
3683.000000	96.351108 
3682.000000	96.346479 
3681.000000	96.341400 
3680.000000	96.331822 
3679.000000	96.319738 
3678.000000	96.309498 
3677.000000	96.298502 
3676.000000	96.283190 
3675.000000	96.269484 
3674.000000	96.262142 
3673.000000	96.257986 
3672.000000	96.251496 
3671.000000	96.240476 
3670.000000	96.230194 
3669.000000	96.226229 
3668.000000	96.224531 
3667.000000	96.218722 
3666.000000	96.209146 
3665.000000	96.200031 
3664.000000	96.193790 
3663.000000	96.188961 
3662.000000	96.181882 
3661.000000	96.170357 
3660.000000	96.155848 
3659.000000	96.141135 
3658.000000	96.127145 
3657.000000	96.112272 
3656.000000	96.097411 
3655.000000	96.085258 
3654.000000	96.075770 
3653.000000	96.066418 
3652.000000	96.053571 
3651.000000	96.035500 
3650.000000	96.016005 
3649.000000	96.000105 
3648.000000	95.988027 
3647.000000	95.979542 
3646.000000	95.976333 
3645.000000	95.977523 
3644.000000	95.978672 
3643.000000	95.976488 
3642.000000	95.971613 
3641.000000	95.966719 
3640.000000	95.961617 
3639.000000	95.953388 
3638.000000	95.941912 
3637.000000	95.929919 
3636.000000	95.917361 
3635.000000	95.899592 
3634.000000	95.875886 
3633.000000	95.853750 
3632.000000	95.840466 
3631.000000	95.831657 
3630.000000	95.814689 
3629.000000	95.793794 
3628.000000	95.785542 
3627.000000	95.787003 
3626.000000	95.784977 
3625.000000	95.778534 
3624.000000	95.776400 
3623.000000	95.784701 
3622.000000	95.798426 
3621.000000	95.804269 
3620.000000	95.794371 
3619.000000	95.775285 
3618.000000	95.758836 
3617.000000	95.750707 
3616.000000	95.750783 
3615.000000	95.754868 
3614.000000	95.758246 
3613.000000	95.760474 
3612.000000	95.763475 
3611.000000	95.766298 
3610.000000	95.766571 
3609.000000	95.765945 
3608.000000	95.770095 
3607.000000	95.781264 
3606.000000	95.794620 
3605.000000	95.805444 
3604.000000	95.814038 
3603.000000	95.822479 
3602.000000	95.830589 
3601.000000	95.836439 
3600.000000	95.840108 
3599.000000	95.841945 
3598.000000	95.840523 
3597.000000	95.834874 
3596.000000	95.827253 
3595.000000	95.820552 
3594.000000	95.816800 
3593.000000	95.816428 
3592.000000	95.819084 
3591.000000	95.824111 
3590.000000	95.828430 
3589.000000	95.826735 
3588.000000	95.818381 
3587.000000	95.810832 
3586.000000	95.810317 
3585.000000	95.815727 
3584.000000	95.823493 
3583.000000	95.831185 
3582.000000	95.837292 
3581.000000	95.840221 
3580.000000	95.839452 
3579.000000	95.836238 
3578.000000	95.832728 
3577.000000	95.830527 
3576.000000	95.829743 
3575.000000	95.829244 
3574.000000	95.827605 
3573.000000	95.824591 
3572.000000	95.821049 
3571.000000	95.818103 
3570.000000	95.815122 
3569.000000	95.809066 
3568.000000	95.798636 
3567.000000	95.788499 
3566.000000	95.783896 
3565.000000	95.784204 
3564.000000	95.786082 
3563.000000	95.788249 
3562.000000	95.791372 
3561.000000	95.795748 
3560.000000	95.800204 
3559.000000	95.803106 
3558.000000	95.803622 
3557.000000	95.802368 
3556.000000	95.800862 
3555.000000	95.800264 
3554.000000	95.800233 
3553.000000	95.799483 
3552.000000	95.797359 
3551.000000	95.794245 
3550.000000	95.790890 
3549.000000	95.787936 
3548.000000	95.785888 
3547.000000	95.784830 
3546.000000	95.784132 
3545.000000	95.783106 
3544.000000	95.782070 
3543.000000	95.782007 
3542.000000	95.783163 
3541.000000	95.784947 
3540.000000	95.786763 
3539.000000	95.788221 
3538.000000	95.788873 
3537.000000	95.788435 
3536.000000	95.787220 
3535.000000	95.785823 
3534.000000	95.784688 
3533.000000	95.784010 
3532.000000	95.783929 
3531.000000	95.784391 
3530.000000	95.784969 
3529.000000	95.785138 
3528.000000	95.784795 
3527.000000	95.784260 
3526.000000	95.783906 
3525.000000	95.783873 
3524.000000	95.784070 
3523.000000	95.784339 
3522.000000	95.784549 
3521.000000	95.784655 
3520.000000	95.784684 
3519.000000	95.784672 
3518.000000	95.784645 
3517.000000	95.784615 
3516.000000	95.784583 
3515.000000	95.784547 
3514.000000	95.784503 
3513.000000	95.784445 
3512.000000	95.784369 
3511.000000	95.784276 
3510.000000	95.784175 
3509.000000	95.784075 
3508.000000	95.783981 
3507.000000	95.783884 
3506.000000	95.783763 
3505.000000	95.783596 
3504.000000	95.783370 
3503.000000	95.783089 
3502.000000	95.782766 
3501.000000	95.782414 
3500.000000	95.782035 
3499.000000	95.781622 
3498.000000	95.781158 
3497.000000	95.780629 
3496.000000	95.780033 
3495.000000	95.779379 
3494.000000	95.778685 
3493.000000	95.777969 
3492.000000	95.777236 
3491.000000	95.776482 
3490.000000	95.775693 
3489.000000	95.774857 
3488.000000	95.773969 
3487.000000	95.773036 
3486.000000	95.772066 
3485.000000	95.771067 
3484.000000	95.770037 
3483.000000	95.768966 
3482.000000	95.767828 
3481.000000	95.766603 
3480.000000	95.765294 
3479.000000	95.763935 
3478.000000	95.762569 
3477.000000	95.761218 
3476.000000	95.759851 
3475.000000	95.758414 
3474.000000	95.756856 
3473.000000	95.755185 
3472.000000	95.753485 
3471.000000	95.751871 
3470.000000	95.750405 
3469.000000	95.749061 
3468.000000	95.747725 
3467.000000	95.746279 
3466.000000	95.744656 
3465.000000	95.742839 
3464.000000	95.740847 
3463.000000	95.738718 
3462.000000	95.736556 
3461.000000	95.734518 
3460.000000	95.732660 
3459.000000	95.730832 
3458.000000	95.728797 
3457.000000	95.726485 
3456.000000	95.724111 
3455.000000	95.722000 
3454.000000	95.720318 
3453.000000	95.718973 
3452.000000	95.717737 
3451.000000	95.716372 
3450.000000	95.714705 
3449.000000	95.712686 
3448.000000	95.710444 
3447.000000	95.708272 
3446.000000	95.706373 
3445.000000	95.704716 
3444.000000	95.703135 
3443.000000	95.701494 
3442.000000	95.699757 
3441.000000	95.697936 
3440.000000	95.696068 
3439.000000	95.694246 
3438.000000	95.692576 
3437.000000	95.691069 
3436.000000	95.689630 
3435.000000	95.688173 
3434.000000	95.686714 
3433.000000	95.685307 
3432.000000	95.683960 
3431.000000	95.682641 
3430.000000	95.681328 
3429.000000	95.680014 
3428.000000	95.678674 
3427.000000	95.677271 
3426.000000	95.675812 
3425.000000	95.674384 
3424.000000	95.673090 
3423.000000	95.671952 
3422.000000	95.670906 
3421.000000	95.669848 
3420.000000	95.668734 
3419.000000	95.667592 
3418.000000	95.666478 
3417.000000	95.665443 
3416.000000	95.664536 
3415.000000	95.663772 
3414.000000	95.663073 
3413.000000	95.662300 
3412.000000	95.661379 
3411.000000	95.660383 
3410.000000	95.659499 
3409.000000	95.658862 
3408.000000	95.658460 
3407.000000	95.658147 
3406.000000	95.657758 
3405.000000	95.657220 
3404.000000	95.656571 
3403.000000	95.655918 
3402.000000	95.655366 
3401.000000	95.654984 
3400.000000	95.654813 
3399.000000	95.654834 
3398.000000	95.654934 
3397.000000	95.654967 
3396.000000	95.654873 
3395.000000	95.654727 
3394.000000	95.654663 
3393.000000	95.654750 
3392.000000	95.654938 
3391.000000	95.655110 
3390.000000	95.655192 
3389.000000	95.655223 
3388.000000	95.655346 
3387.000000	95.655686 
3386.000000	95.656256 
3385.000000	95.656940 
3384.000000	95.657560 
3383.000000	95.658014 
3382.000000	95.658365 
3381.000000	95.658798 
3380.000000	95.659429 
3379.000000	95.660202 
3378.000000	95.661031 
3377.000000	95.661969 
3376.000000	95.663126 
3375.000000	95.664425 
3374.000000	95.665584 
3373.000000	95.666404 
3372.000000	95.666984 
3371.000000	95.667663 
3370.000000	95.668694 
3369.000000	95.670026 
3368.000000	95.671408 
3367.000000	95.672625 
3366.000000	95.673624 
3365.000000	95.674479 
3364.000000	95.675334 
3363.000000	95.676338 
3362.000000	95.677574 
3361.000000	95.679020 
3360.000000	95.680573 
3359.000000	95.682100 
3358.000000	95.683512 
3357.000000	95.684823 
3356.000000	95.686162 
3355.000000	95.687688 
3354.000000	95.689452 
3353.000000	95.691365 
3352.000000	95.693248 
3351.000000	95.694932 
3350.000000	95.696374 
3349.000000	95.697667 
3348.000000	95.698967 
3347.000000	95.700406 
3346.000000	95.702003 
3345.000000	95.703673 
3344.000000	95.705278 
3343.000000	95.706742 
3342.000000	95.708115 
3341.000000	95.709499 
3340.000000	95.710953 
3339.000000	95.712457 
3338.000000	95.713958 
3337.000000	95.715426 
3336.000000	95.716858 
3335.000000	95.718264 
3334.000000	95.719657 
3333.000000	95.721052 
3332.000000	95.722470 
3331.000000	95.723919 
3330.000000	95.725397 
3329.000000	95.726886 
3328.000000	95.728371 
3327.000000	95.729848 
3326.000000	95.731325 
3325.000000	95.732815 
3324.000000	95.734325 
3323.000000	95.735849 
3322.000000	95.737372 
3321.000000	95.738876 
3320.000000	95.740352 
3319.000000	95.741800 
3318.000000	95.743233 
3317.000000	95.744667 
3316.000000	95.746114 
3315.000000	95.747570 
3314.000000	95.749021 
3313.000000	95.750446 
3312.000000	95.751837 
3311.000000	95.753205 
3310.000000	95.754572 
3309.000000	95.755959 
3308.000000	95.757375 
3307.000000	95.758808 
3306.000000	95.760236 
3305.000000	95.761640 
3304.000000	95.763019 
3303.000000	95.764392 
3302.000000	95.765785 
3301.000000	95.767216 
3300.000000	95.768687 
3299.000000	95.770181 
3298.000000	95.771674 
3297.000000	95.773153 
3296.000000	95.774621 
3295.000000	95.776098 
3294.000000	95.777610 
3293.000000	95.779170 
3292.000000	95.780777 
3291.000000	95.782410 
3290.000000	95.784038 
3289.000000	95.785634 
3288.000000	95.787192 
3287.000000	95.788726 
3286.000000	95.790263 
3285.000000	95.791824 
3284.000000	95.793410 
3283.000000	95.795008 
3282.000000	95.796599 
3281.000000	95.798171 
3280.000000	95.799729 
3279.000000	95.801289 
3278.000000	95.802880 
3277.000000	95.804523 
3276.000000	95.806226 
3275.000000	95.807971 
3274.000000	95.809726 
3273.000000	95.811470 
3272.000000	95.813201 
3271.000000	95.814945 
3270.000000	95.816724 
3269.000000	95.818548 
3268.000000	95.820403 
3267.000000	95.822260 
3266.000000	95.824101 
3265.000000	95.825926 
3264.000000	95.827758 
3263.000000	95.829625 
3262.000000	95.831545 
3261.000000	95.833518 
3260.000000	95.835521 
3259.000000	95.837526 
3258.000000	95.839514 
3257.000000	95.841484 
3256.000000	95.843456 
3255.000000	95.845456 
3254.000000	95.847501 
3253.000000	95.849589 
3252.000000	95.851699 
3251.000000	95.853803 
3250.000000	95.855874 
3249.000000	95.857907 
3248.000000	95.859916 
3247.000000	95.861930 
3246.000000	95.863976 
3245.000000	95.866060 
3244.000000	95.868166 
3243.000000	95.870265 
3242.000000	95.872341 
3241.000000	95.874396 
3240.000000	95.876456 
3239.000000	95.878547 
3238.000000	95.880689 
3237.000000	95.882873 
3236.000000	95.885074 
3235.000000	95.887250 
3234.000000	95.889372 
3233.000000	95.891438 
3232.000000	95.893477 
3231.000000	95.895528 
3230.000000	95.897617 
3229.000000	95.899740 
3228.000000	95.901868 
3227.000000	95.903976 
3226.000000	95.906052 
3225.000000	95.908110 
3224.000000	95.910187 
3223.000000	95.912328 
3222.000000	95.914543 
3221.000000	95.916789 
3220.000000	95.918973 
3219.000000	95.921009 
3218.000000	95.922884 
3217.000000	95.924683 
3216.000000	95.926524 
3215.000000	95.928484 
3214.000000	95.930575 
3213.000000	95.932743 
3212.000000	95.934875 
3211.000000	95.936855 
3210.000000	95.938649 
3209.000000	95.940331 
3208.000000	95.942044 
3207.000000	95.943911 
3206.000000	95.945953 
3205.000000	95.948094 
3204.000000	95.950229 
3203.000000	95.952307 
3202.000000	95.954347 
3201.000000	95.956406 
3200.000000	95.958534 
3199.000000	95.960747 
3198.000000	95.963010 
3197.000000	95.965260 
3196.000000	95.967437 
3195.000000	95.969526 
3194.000000	95.971583 
3193.000000	95.973711 
3192.000000	95.975981 
3191.000000	95.978374 
3190.000000	95.980801 
3189.000000	95.983182 
3188.000000	95.985498 
3187.000000	95.987772 
3186.000000	95.990052 
3185.000000	95.992381 
3184.000000	95.994776 
3183.000000	95.997224 
3182.000000	95.999698 
3181.000000	96.002175 
3180.000000	96.004633 
3179.000000	96.007067 
3178.000000	96.009492 
3177.000000	96.011937 
3176.000000	96.014419 
3175.000000	96.016937 
3174.000000	96.019469 
3173.000000	96.021981 
3172.000000	96.024454 
3171.000000	96.026886 
3170.000000	96.029293 
3169.000000	96.031705 
3168.000000	96.034140 
3167.000000	96.036597 
3166.000000	96.039053 
3165.000000	96.041480 
3164.000000	96.043867 
3163.000000	96.046225 
3162.000000	96.048583 
3161.000000	96.050966 
3160.000000	96.053381 
3159.000000	96.055817 
3158.000000	96.058250 
3157.000000	96.060661 
3156.000000	96.063044 
3155.000000	96.065409 
3154.000000	96.067770 
3153.000000	96.070138 
3152.000000	96.072512 
3151.000000	96.074877 
3150.000000	96.077210 
3149.000000	96.079495 
3148.000000	96.081736 
3147.000000	96.083957 
3146.000000	96.086186 
3145.000000	96.088439 
3144.000000	96.090710 
3143.000000	96.092967 
3142.000000	96.095178 
3141.000000	96.097322 
3140.000000	96.099405 
3139.000000	96.101452 
3138.000000	96.103498 
3137.000000	96.105566 
3136.000000	96.107659 
3135.000000	96.109763 
3134.000000	96.111858 
3133.000000	96.113938 
3132.000000	96.116014 
3131.000000	96.118109 
3130.000000	96.120245 
3129.000000	96.122430 
3128.000000	96.124657 
3127.000000	96.126904 
3126.000000	96.129145 
3125.000000	96.131361 
3124.000000	96.133554 
3123.000000	96.135737 
3122.000000	96.137924 
3121.000000	96.140118 
3120.000000	96.142304 
3119.000000	96.144457 
3118.000000	96.146562 
3117.000000	96.148620 
3116.000000	96.150652 
3115.000000	96.152682 
3114.000000	96.154726 
3113.000000	96.156784 
3112.000000	96.158846 
3111.000000	96.160899 
3110.000000	96.162935 
3109.000000	96.164954 
3108.000000	96.166963 
3107.000000	96.168972 
3106.000000	96.170984 
3105.000000	96.172989 
3104.000000	96.174968 
3103.000000	96.176904 
3102.000000	96.178798 
3101.000000	96.180665 
3100.000000	96.182534 
3099.000000	96.184429 
3098.000000	96.186356 
3097.000000	96.188305 
3096.000000	96.190258 
3095.000000	96.192191 
3094.000000	96.194081 
3093.000000	96.195920 
3092.000000	96.197737 
3091.000000	96.199576 
3090.000000	96.201448 
3089.000000	96.203308 
3088.000000	96.205076 
3087.000000	96.206697 
3086.000000	96.208174 
3085.000000	96.209571 
3084.000000	96.210961 
3083.000000	96.212381 
3082.000000	96.213827 
3081.000000	96.215284 
3080.000000	96.216735 
3079.000000	96.218129 
3078.000000	96.219404 
3077.000000	96.220621 
3076.000000	96.221995 
3075.000000	96.223674 
3074.000000	96.225517 
3073.000000	96.227184 
3072.000000	96.228487 
3071.000000	96.229496 
3070.000000	96.230354 
3069.000000	96.231207 
3068.000000	96.232272 
3067.000000	96.233685 
3066.000000	96.235188 
3065.000000	96.236226 
3064.000000	96.236489 
3063.000000	96.236208 
3062.000000	96.235914 
3061.000000	96.236065 
3060.000000	96.236897 
3059.000000	96.238339 
3058.000000	96.239974 
3057.000000	96.241262 
3056.000000	96.241889 
3055.000000	96.241871 
3054.000000	96.241372 
3053.000000	96.240679 
3052.000000	96.240273 
3051.000000	96.240501 
3050.000000	96.241089 
3049.000000	96.241268 
3048.000000	96.240562 
3047.000000	96.239259 
3046.000000	96.238040 
3045.000000	96.237348 
3044.000000	96.237198 
3043.000000	96.237380 
3042.000000	96.237577 
3041.000000	96.237340 
3040.000000	96.236243 
3039.000000	96.234242 
3038.000000	96.231890 
3037.000000	96.230007 
3036.000000	96.228940 
3035.000000	96.228166 
3034.000000	96.226732 
3033.000000	96.224128 
3032.000000	96.220635 
3031.000000	96.217023 
3030.000000	96.214015 
3029.000000	96.211981 
3028.000000	96.210811 
3027.000000	96.209794 
3026.000000	96.207864 
3025.000000	96.204343 
3024.000000	96.199546 
3023.000000	96.194624 
3022.000000	96.190654 
3021.000000	96.188062 
3020.000000	96.186660 
3019.000000	96.185743 
3018.000000	96.184075 
3017.000000	96.180460 
3016.000000	96.174818 
3015.000000	96.168573 
3014.000000	96.163718 
3013.000000	96.161253 
3012.000000	96.160410 
3011.000000	96.159074 
3010.000000	96.155185 
3009.000000	96.148224 
3008.000000	96.139725 
3007.000000	96.132212 
3006.000000	96.127283 
3005.000000	96.124720 
3004.000000	96.123032 
3003.000000	96.120544 
3002.000000	96.116233 
3001.000000	96.110335 
3000.000000	96.104402 
2999.000000	96.100228 
2998.000000	96.098338 
2997.000000	96.097625 
2996.000000	96.096417 
2995.000000	96.093502 
2994.000000	96.088290 
2993.000000	96.080901 
2992.000000	96.072588 
2991.000000	96.065510 
2990.000000	96.061371 
2989.000000	96.060165 
2988.000000	96.060429 
2987.000000	96.060378 
2986.000000	96.058933 
2985.000000	96.056385 
2984.000000	96.054429 
2983.000000	96.055115 
2982.000000	96.059109 
2981.000000	96.064826 
2980.000000	96.069279 
2979.000000	96.069922 
2978.000000	96.066233 
2977.000000	96.060269 
2976.000000	96.055758 
2975.000000	96.055723 
2974.000000	96.060363 
2973.000000	96.067057 
2972.000000	96.072444 
2971.000000	96.074711 
2970.000000	96.074223 
2969.000000	96.072826 
2968.000000	96.072756 
2967.000000	96.075425 
2966.000000	96.080531 
2965.000000	96.086267 
2964.000000	96.090620 
2963.000000	96.092710 
2962.000000	96.093089 
2961.000000	96.093182 
2960.000000	96.094500 
2959.000000	96.097879 
2958.000000	96.102935 
2957.000000	96.108168 
2956.000000	96.111914 
2955.000000	96.113483 
2954.000000	96.113549 
2953.000000	96.113610 
2952.000000	96.115040 
2951.000000	96.118248 
2950.000000	96.122433 
2949.000000	96.126090 
2948.000000	96.128138 
2947.000000	96.128688 
2946.000000	96.128752 
2945.000000	96.129382 
2944.000000	96.130969 
2943.000000	96.133242 
2942.000000	96.135609 
2941.000000	96.137471 
2940.000000	96.138518 
2939.000000	96.138883 
2938.000000	96.139078 
2937.000000	96.139652 
2936.000000	96.140809 
2935.000000	96.142341 
2934.000000	96.143858 
2933.000000	96.145063 
2932.000000	96.145880 
2931.000000	96.146442 
2930.000000	96.147035 
2929.000000	96.147954 
2928.000000	96.149284 
2927.000000	96.150824 
2926.000000	96.152277 
2925.000000	96.153485 
2924.000000	96.154491 
2923.000000	96.155469 
2922.000000	96.156600 
2921.000000	96.157966 
2920.000000	96.159513 
2919.000000	96.161105 
2918.000000	96.162604 
2917.000000	96.163916 
2916.000000	96.165030 
2915.000000	96.166050 
2914.000000	96.167160 
2913.000000	96.168500 
2912.000000	96.170071 
2911.000000	96.171750 
2910.000000	96.173374 
2909.000000	96.174881 
2908.000000	96.176334 
2907.000000	96.177869 
2906.000000	96.179584 
2905.000000	96.181491 
2904.000000	96.183519 
2903.000000	96.185582 
2902.000000	96.187648 
2901.000000	96.189754 
2900.000000	96.191985 
2899.000000	96.194396 
2898.000000	96.196986 
2897.000000	96.199718 
2896.000000	96.202536 
2895.000000	96.205386 
2894.000000	96.208236 
2893.000000	96.211102 
2892.000000	96.214026 
2891.000000	96.217046 
2890.000000	96.220170 
2889.000000	96.223381 
2888.000000	96.226649 
2887.000000	96.229945 
2886.000000	96.233247 
2885.000000	96.236557 
2884.000000	96.239904 
2883.000000	96.243325 
2882.000000	96.246845 
2881.000000	96.250454 
2880.000000	96.254123 
2879.000000	96.257819 
2878.000000	96.261528 
2877.000000	96.265258 
2876.000000	96.269031 
2875.000000	96.272867 
2874.000000	96.276771 
2873.000000	96.280731 
2872.000000	96.284716 
2871.000000	96.288699 
2870.000000	96.292670 
2869.000000	96.296644 
2868.000000	96.300657 
2867.000000	96.304737 
2866.000000	96.308891 
2865.000000	96.313094 
2864.000000	96.317312 
2863.000000	96.321520 
2862.000000	96.325717 
2861.000000	96.329925 
2860.000000	96.334164 
2859.000000	96.338437 
2858.000000	96.342722 
2857.000000	96.346983 
2856.000000	96.351190 
2855.000000	96.355328 
2854.000000	96.359406 
2853.000000	96.363447 
2852.000000	96.367478 
2851.000000	96.371509 
2850.000000	96.375526 
2849.000000	96.379496 
2848.000000	96.383390 
2847.000000	96.387201 
2846.000000	96.390946 
2845.000000	96.394660 
2844.000000	96.398373 
2843.000000	96.402087 
2842.000000	96.405779 
2841.000000	96.409407 
2840.000000	96.412936 
2839.000000	96.416356 
2838.000000	96.419689 
2837.000000	96.422972 
2836.000000	96.426235 
2835.000000	96.429478 
2834.000000	96.432676 
2833.000000	96.435795 
2832.000000	96.438811 
2831.000000	96.441727 
2830.000000	96.444572 
2829.000000	96.447378 
2828.000000	96.450164 
2827.000000	96.452920 
2826.000000	96.455611 
2825.000000	96.458197 
2824.000000	96.460655 
2823.000000	96.462993 
2822.000000	96.465243 
2821.000000	96.467446 
2820.000000	96.469624 
2819.000000	96.471768 
2818.000000	96.473849 
2817.000000	96.475838 
2816.000000	96.477730 
2815.000000	96.479547 
2814.000000	96.481330 
2813.000000	96.483110 
2812.000000	96.484896 
2811.000000	96.486671 
2810.000000	96.488406 
2809.000000	96.490077 
2808.000000	96.491683 
2807.000000	96.493249 
2806.000000	96.494812 
2805.000000	96.496394 
2804.000000	96.497990 
2803.000000	96.499566 
2802.000000	96.501083 
2801.000000	96.502520 
2800.000000	96.503888 
2799.000000	96.505226 
2798.000000	96.506573 
2797.000000	96.507948 
2796.000000	96.509336 
2795.000000	96.510702 
2794.000000	96.512008 
2793.000000	96.513242 
2792.000000	96.514420 
2791.000000	96.515586 
2790.000000	96.516783 
2789.000000	96.518030 
2788.000000	96.519310 
2787.000000	96.520579 
2786.000000	96.521796 
2785.000000	96.522949 
2784.000000	96.524062 
2783.000000	96.525185 
2782.000000	96.526358 
2781.000000	96.527596 
2780.000000	96.528872 
2779.000000	96.530139 
2778.000000	96.531352 
2777.000000	96.532497 
2776.000000	96.533597 
2775.000000	96.534696 
2774.000000	96.535825 
2773.000000	96.536986 
2772.000000	96.538148 
2771.000000	96.539269 
2770.000000	96.540323 
2769.000000	96.541321 
2768.000000	96.542300 
2767.000000	96.543303 
2766.000000	96.544350 
2765.000000	96.545430 
2764.000000	96.546505 
2763.000000	96.547532 
2762.000000	96.548489 
2761.000000	96.549389 
2760.000000	96.550274 
2759.000000	96.551188 
2758.000000	96.552149 
2757.000000	96.553139 
2756.000000	96.554112 
2755.000000	96.555030 
2754.000000	96.555886 
2753.000000	96.556708 
2752.000000	96.557541 
2751.000000	96.558419 
2750.000000	96.559345 
2749.000000	96.560287 
2748.000000	96.561198 
2747.000000	96.562042 
2746.000000	96.562810 
2745.000000	96.563537 
2744.000000	96.564276 
2743.000000	96.565067 
2742.000000	96.565913 
2741.000000	96.566776 
2740.000000	96.567608 
2739.000000	96.568376 
2738.000000	96.569083 
2737.000000	96.569765 
2736.000000	96.570470 
2735.000000	96.571228 
2734.000000	96.572038 
2733.000000	96.572860 
2732.000000	96.573650 
2731.000000	96.574381 
2730.000000	96.575067 
2729.000000	96.575747 
2728.000000	96.576460 
2727.000000	96.577219 
2726.000000	96.578000 
2725.000000	96.578759 
2724.000000	96.579457 
2723.000000	96.580085 
2722.000000	96.580665 
2721.000000	96.581244 
2720.000000	96.581868 
2719.000000	96.582554 
2718.000000	96.583282 
2717.000000	96.584005 
2716.000000	96.584679 
2715.000000	96.585292 
2714.000000	96.585870 
2713.000000	96.586459 
2712.000000	96.587094 
2711.000000	96.587775 
2710.000000	96.588469 
2709.000000	96.589131 
2708.000000	96.589736 
2707.000000	96.590287 
2706.000000	96.590819 
2705.000000	96.591371 
2704.000000	96.591964 
2703.000000	96.592590 
2702.000000	96.593211 
2701.000000	96.593781 
2700.000000	96.594280 
2699.000000	96.594717 
2698.000000	96.595125 
2697.000000	96.595541 
2696.000000	96.595978 
2695.000000	96.596421 
2694.000000	96.596834 
2693.000000	96.597181 
2692.000000	96.597449 
2691.000000	96.597659 
2690.000000	96.597851 
2689.000000	96.598064 
2688.000000	96.598307 
2687.000000	96.598555 
2686.000000	96.598766 
2685.000000	96.598909 
2684.000000	96.598982 
2683.000000	96.599015 
2682.000000	96.599047 
2681.000000	96.599105 
2680.000000	96.599181 
2679.000000	96.599243 
2678.000000	96.599246 
2677.000000	96.599163 
2676.000000	96.598999 
2675.000000	96.598790 
2674.000000	96.598578 
2673.000000	96.598389 
2672.000000	96.598212 
2671.000000	96.598009 
2670.000000	96.597738 
2669.000000	96.597382 
2668.000000	96.596960 
2667.000000	96.596515 
2666.000000	96.596083 
2665.000000	96.595673 
2664.000000	96.595263 
2663.000000	96.594817 
2662.000000	96.594308 
2661.000000	96.593737 
2660.000000	96.593130 
2659.000000	96.592526 
2658.000000	96.591950 
2657.000000	96.591402 
2656.000000	96.590856 
2655.000000	96.590278 
2654.000000	96.589649 
2653.000000	96.588978 
2652.000000	96.588305 
2651.000000	96.587671 
2650.000000	96.587098 
2649.000000	96.586568 
2648.000000	96.586040 
2647.000000	96.585476 
2646.000000	96.584865 
2645.000000	96.584233 
2644.000000	96.583627 
2643.000000	96.583085 
2642.000000	96.582615 
2641.000000	96.582186 
2640.000000	96.581749 
2639.000000	96.581268 
2638.000000	96.580749 
2637.000000	96.580228 
2636.000000	96.579755 
2635.000000	96.579353 
2634.000000	96.579006 
2633.000000	96.578669 
2632.000000	96.578297 
2631.000000	96.577870 
2630.000000	96.577409 
2629.000000	96.576966 
2628.000000	96.576591 
2627.000000	96.576302 
2626.000000	96.576076 
2625.000000	96.575865 
2624.000000	96.575627 
2623.000000	96.575354 
2622.000000	96.575078 
2621.000000	96.574848 
2620.000000	96.574701 
2619.000000	96.574634 
2618.000000	96.574611 
2617.000000	96.574585 
2616.000000	96.574529 
2615.000000	96.574453 
2614.000000	96.574398 
2613.000000	96.574412 
2612.000000	96.574515 
2611.000000	96.574685 
2610.000000	96.574863 
2609.000000	96.574989 
2608.000000	96.575039 
2607.000000	96.575040 
2606.000000	96.575052 
2605.000000	96.575129 
2604.000000	96.575282 
2603.000000	96.575470 
2602.000000	96.575628 
2601.000000	96.575709 
2600.000000	96.575716 
2599.000000	96.575703 
2598.000000	96.575744 
2597.000000	96.575890 
2596.000000	96.576138 
2595.000000	96.576434 
2594.000000	96.576707 
2593.000000	96.576919 
2592.000000	96.577086 
2591.000000	96.577270 
2590.000000	96.577537 
2589.000000	96.577912 
2588.000000	96.578364 
2587.000000	96.578822 
2586.000000	96.579216 
2585.000000	96.579518 
2584.000000	96.579758 
2583.000000	96.579997 
2582.000000	96.580294 
2581.000000	96.580665 
2580.000000	96.581076 
2579.000000	96.581465 
2578.000000	96.581778 
2577.000000	96.582007 
2576.000000	96.582197 
2575.000000	96.582420 
2574.000000	96.582724 
2573.000000	96.583103 
2572.000000	96.583500 
2571.000000	96.583844 
2570.000000	96.584088 
2569.000000	96.584247 
2568.000000	96.584390 
2567.000000	96.584599 
2566.000000	96.584922 
2565.000000	96.585336 
2564.000000	96.585768 
2563.000000	96.586143 
2562.000000	96.586427 
2561.000000	96.586654 
2560.000000	96.586902 
2559.000000	96.587242 
2558.000000	96.587689 
2557.000000	96.588184 
2556.000000	96.588625 
2555.000000	96.588927 
2554.000000	96.589070 
2553.000000	96.589104 
2552.000000	96.589121 
2551.000000	96.589199 
2550.000000	96.589357 
2549.000000	96.589548 
2548.000000	96.589689 
2547.000000	96.589719 
2546.000000	96.589644 
2545.000000	96.589538 
2544.000000	96.589499 
2543.000000	96.589588 
2542.000000	96.589793 
2541.000000	96.590048 
2540.000000	96.590271 
2539.000000	96.590415 
2538.000000	96.590488 
2537.000000	96.590543 
2536.000000	96.590647 
2535.000000	96.590837 
2534.000000	96.591090 
2533.000000	96.591331 
2532.000000	96.591486 
2531.000000	96.591526 
2530.000000	96.591490 
2529.000000	96.591462 
2528.000000	96.591518 
2527.000000	96.591684 
2526.000000	96.591920 
2525.000000	96.592147 
2524.000000	96.592299 
2523.000000	96.592360 
2522.000000	96.592379 
2521.000000	96.592437 
2520.000000	96.592598 
2519.000000	96.592866 
2518.000000	96.593185 
2517.000000	96.593468 
2516.000000	96.593657 
2515.000000	96.593762 
2514.000000	96.593859 
2513.000000	96.594049 
2512.000000	96.594397 
2511.000000	96.594895 
2510.000000	96.595469 
2509.000000	96.596022 
2508.000000	96.596497 
2507.000000	96.596903 
2506.000000	96.597305 
2505.000000	96.597784 
2504.000000	96.598378 
2503.000000	96.599054 
2502.000000	96.599723 
2501.000000	96.600298 
2500.000000	96.600753 
2499.000000	96.601130 
2498.000000	96.601515 
2497.000000	96.601976 
2496.000000	96.602534 
2495.000000	96.603152 
2494.000000	96.603760 
2493.000000	96.604297 
2492.000000	96.604749 
2491.000000	96.605160 
2490.000000	96.605613 
2489.000000	96.606166 
2488.000000	96.606821 
2487.000000	96.607513 
2486.000000	96.608157 
2485.000000	96.608700 
2484.000000	96.609148 
2483.000000	96.609558 
2482.000000	96.609999 
2481.000000	96.610510 
2480.000000	96.611073 
2479.000000	96.611629 
2478.000000	96.612111 
2477.000000	96.612492 
2476.000000	96.612797 
2475.000000	96.613088 
2474.000000	96.613431 
2473.000000	96.613855 
2472.000000	96.614334 
2471.000000	96.614805 
2470.000000	96.615206 
2469.000000	96.615518 
2468.000000	96.615775 
2467.000000	96.616043 
2466.000000	96.616376 
2465.000000	96.616784 
2464.000000	96.617224 
2463.000000	96.617630 
2462.000000	96.617950 
2461.000000	96.618184 
2460.000000	96.618379 
2459.000000	96.618605 
2458.000000	96.618908 
2457.000000	96.619281 
2456.000000	96.619669 
2455.000000	96.620009 
2454.000000	96.620270 
2453.000000	96.620474 
2452.000000	96.620683 
2451.000000	96.620964 
2450.000000	96.621349 
2449.000000	96.621823 
2448.000000	96.622328 
2447.000000	96.622800 
2446.000000	96.623207 
2445.000000	96.623575 
2444.000000	96.623964 
2443.000000	96.624435 
2442.000000	96.625007 
2441.000000	96.625651 
2440.000000	96.626313 
2439.000000	96.626947 
2438.000000	96.627551 
2437.000000	96.628164 
2436.000000	96.628840 
2435.000000	96.629611 
2434.000000	96.630466 
2433.000000	96.631361 
2432.000000	96.632242 
2431.000000	96.633080 
2430.000000	96.633876 
2429.000000	96.634665 
2428.000000	96.635488 
2427.000000	96.636365 
2426.000000	96.637277 
2425.000000	96.638175 
2424.000000	96.639019 
2423.000000	96.639799 
2422.000000	96.640553 
2421.000000	96.641354 
2420.000000	96.642273 
2419.000000	96.643340 
2418.000000	96.644526 
2417.000000	96.645760 
2416.000000	96.646976 
2415.000000	96.648148 
2414.000000	96.649300 
2413.000000	96.650479 
2412.000000	96.651722 
2411.000000	96.653023 
2410.000000	96.654324 
2409.000000	96.655539 
2408.000000	96.656605 
2407.000000	96.657521 
2406.000000	96.658340 
2405.000000	96.659143 
2404.000000	96.659978 
2403.000000	96.660841 
2402.000000	96.661672 
2401.000000	96.662403 
2400.000000	96.662996 
2399.000000	96.663468 
2398.000000	96.663876 
2397.000000	96.664277 
2396.000000	96.664689 
2395.000000	96.665087 
2394.000000	96.665415 
2393.000000	96.665631 
2392.000000	96.665725 
2391.000000	96.665718 
2390.000000	96.665641 
2389.000000	96.665518 
2388.000000	96.665345 
2387.000000	96.665091 
2386.000000	96.664703 
2385.000000	96.664146 
2384.000000	96.663429 
2383.000000	96.662608 
2382.000000	96.661760 
2381.000000	96.660929 
2380.000000	96.660104 
2379.000000	96.659213 
2378.000000	96.658160 
2377.000000	96.656871 
2376.000000	96.655343 
2375.000000	96.653642 
2374.000000	96.651862 
2373.000000	96.650064 
2372.000000	96.648248 
2371.000000	96.646359 
2370.000000	96.644327 
2369.000000	96.642115 
2368.000000	96.639744 
2367.000000	96.637295 
2366.000000	96.634864 
2365.000000	96.632512 
2364.000000	96.630210 
2363.000000	96.627863 
2362.000000	96.625375 
2361.000000	96.622723 
2360.000000	96.619977 
2359.000000	96.617257 
2358.000000	96.614656 
2357.000000	96.612187 
2356.000000	96.609784 
2355.000000	96.607344 
2354.000000	96.604796 
2353.000000	96.602141 
2352.000000	96.599433 
2351.000000	96.596735 
2350.000000	96.594071 
2349.000000	96.591435 
2348.000000	96.588801 
2347.000000	96.586155 
2346.000000	96.583496 
2345.000000	96.580860 
2344.000000	96.578318 
2343.000000	96.575945 
2342.000000	96.573776 
2341.000000	96.571768 
2340.000000	96.569821 
2339.000000	96.567827 
2338.000000	96.565729 
2337.000000	96.563557 
2336.000000	96.561395 
2335.000000	96.559328 
2334.000000	96.557381 
2333.000000	96.555505 
2332.000000	96.553615 
2331.000000	96.551640 
2330.000000	96.549572 
2329.000000	96.547471 
2328.000000	96.545435 
2327.000000	96.543551 
2326.000000	96.541847 
2325.000000	96.540288 
2324.000000	96.538803 
2323.000000	96.537335 
2322.000000	96.535877 
2321.000000	96.534484 
2320.000000	96.533240 
2319.000000	96.532194 
2318.000000	96.531314 
2317.000000	96.530492 
2316.000000	96.529608 
2315.000000	96.528599 
2314.000000	96.527495 
2313.000000	96.526397 
2312.000000	96.525411 
2311.000000	96.524587 
2310.000000	96.523895 
2309.000000	96.523259 
2308.000000	96.522623 
2307.000000	96.521985 
2306.000000	96.521395 
2305.000000	96.520913 
2304.000000	96.520572 
2303.000000	96.520355 
2302.000000	96.520189 
2301.000000	96.519979 
2300.000000	96.519653 
2299.000000	96.519210 
2298.000000	96.518721 
2297.000000	96.518298 
2296.000000	96.518034 
2295.000000	96.517957 
2294.000000	96.518013 
2293.000000	96.518119 
2292.000000	96.518217 
2291.000000	96.518317 
2290.000000	96.518491 
2289.000000	96.518815 
2288.000000	96.519322 
2287.000000	96.519972 
2286.000000	96.520670 
2285.000000	96.521312 
2284.000000	96.521843 
2283.000000	96.522280 
2282.000000	96.522691 
2281.000000	96.523149 
2280.000000	96.523674 
2279.000000	96.524223 
2278.000000	96.524712 
2277.000000	96.525076 
2276.000000	96.525308 
2275.000000	96.525480 
2274.000000	96.525697 
2273.000000	96.526039 
2272.000000	96.526505 
2271.000000	96.527014 
2270.000000	96.527442 
2269.000000	96.527698 
2268.000000	96.527779 
2267.000000	96.527770 
2266.000000	96.527779 
2265.000000	96.527856 
2264.000000	96.527956 
2263.000000	96.527975 
2262.000000	96.527814 
2261.000000	96.527438 
2260.000000	96.526901 
2259.000000	96.526314 
2258.000000	96.525783 
2257.000000	96.525351 
2256.000000	96.524974 
2255.000000	96.524543 
2254.000000	96.523948 
2253.000000	96.523136 
2252.000000	96.522144 
2251.000000	96.521076 
2250.000000	96.520035 
2249.000000	96.519046 
2248.000000	96.518045 
2247.000000	96.516926 
2246.000000	96.515614 
2245.000000	96.514116 
2244.000000	96.512522 
2243.000000	96.510962 
2242.000000	96.509529 
2241.000000	96.508225 
2240.000000	96.506956 
2239.000000	96.505589 
2238.000000	96.504042 
2237.000000	96.502332 
2236.000000	96.500569 
2235.000000	96.498878 
2234.000000	96.497320 
2233.000000	96.495849 
2232.000000	96.494346 
2231.000000	96.492695 
2230.000000	96.490860 
2229.000000	96.488910 
2228.000000	96.486985 
2227.000000	96.485214 
2226.000000	96.483630 
2225.000000	96.482141 
2224.000000	96.480594 
2223.000000	96.478881 
2222.000000	96.477012 
2221.000000	96.475106 
2220.000000	96.473313 
2219.000000	96.471725 
2218.000000	96.470329 
2217.000000	96.469019 
2216.000000	96.467658 
2215.000000	96.466158 
2214.000000	96.464529 
2213.000000	96.462879 
2212.000000	96.461353 
2211.000000	96.460043 
2210.000000	96.458920 
2209.000000	96.457839 
2208.000000	96.456626 
2207.000000	96.455189 
2206.000000	96.453575 
2205.000000	96.451930 
2204.000000	96.450395 
2203.000000	96.449016 
2202.000000	96.447725 
2201.000000	96.446383 
2200.000000	96.444878 
2199.000000	96.443200 
2198.000000	96.441469 
2197.000000	96.439873 
2196.000000	96.438559 
2195.000000	96.437550 
2194.000000	96.436734 
2193.000000	96.435937 
2192.000000	96.435041 
2191.000000	96.434047 
2190.000000	96.433078 
2189.000000	96.432293 
2188.000000	96.431793 
2187.000000	96.431553 
2186.000000	96.431437 
2185.000000	96.431287 
2184.000000	96.431036 
2183.000000	96.430765 
2182.000000	96.430654 
2181.000000	96.430859 
2180.000000	96.431423 
2179.000000	96.432254 
2178.000000	96.433194 
2177.000000	96.434111 
2176.000000	96.434974 
2175.000000	96.435863 
2174.000000	96.436925 
2173.000000	96.438284 
2172.000000	96.439968 
2171.000000	96.441892 
2170.000000	96.443894 
2169.000000	96.445838 
2168.000000	96.447702 
2167.000000	96.449612 
2166.000000	96.451775 
2165.000000	96.454356 
2164.000000	96.457377 
2163.000000	96.460727 
2162.000000	96.464250 
2161.000000	96.467844 
2160.000000	96.471519 
2159.000000	96.475369 
2158.000000	96.479492 
2157.000000	96.483901 
2156.000000	96.488483 
2155.000000	96.493037 
2154.000000	96.497375 
2153.000000	96.501421 
2152.000000	96.505249 
2151.000000	96.509030 
2150.000000	96.512921 
2149.000000	96.516975 
2148.000000	96.521120 
2147.000000	96.525209 
2146.000000	96.529108 
2145.000000	96.532779 
2144.000000	96.536304 
2143.000000	96.539831 
2142.000000	96.543462 
2141.000000	96.547170 
2140.000000	96.550812 
2139.000000	96.554219 
2138.000000	96.557302 
2137.000000	96.560098 
2136.000000	96.562731 
2135.000000	96.565334 
2134.000000	96.567965 
2133.000000	96.570577 
2132.000000	96.573039 
2131.000000	96.575224 
2130.000000	96.577082 
2129.000000	96.578668 
2128.000000	96.580112 
2127.000000	96.581541 
2126.000000	96.583001 
2125.000000	96.584420 
2124.000000	96.585644 
2123.000000	96.586525 
2122.000000	96.587010 
2121.000000	96.587163 
2120.000000	96.587118 
2119.000000	96.586991 
2118.000000	96.586813 
2117.000000	96.586523 
2116.000000	96.586024 
2115.000000	96.585255 
2114.000000	96.584252 
2113.000000	96.583146 
2112.000000	96.582097 
2111.000000	96.581207 
2110.000000	96.580458 
2109.000000	96.579726 
2108.000000	96.578857 
2107.000000	96.577767 
2106.000000	96.576485 
2105.000000	96.575126 
2104.000000	96.573814 
2103.000000	96.572603 
2102.000000	96.571444 
2101.000000	96.570216 
2100.000000	96.568810 
2099.000000	96.567214 
2098.000000	96.565534 
2097.000000	96.563924 
2096.000000	96.562482 
2095.000000	96.561184 
2094.000000	96.559897 
2093.000000	96.558454 
2092.000000	96.556751 
2091.000000	96.554807 
2090.000000	96.552751 
2089.000000	96.550744 
2088.000000	96.548880 
2087.000000	96.547126 
2086.000000	96.545345 
2085.000000	96.543382 
2084.000000	96.541172 
2083.000000	96.538779 
2082.000000	96.536359 
2081.000000	96.534075 
2080.000000	96.532008 
2079.000000	96.530113 
2078.000000	96.528252 
2077.000000	96.526274 
2076.000000	96.524110 
2075.000000	96.521824 
2074.000000	96.519572 
2073.000000	96.517496 
2072.000000	96.515630 
2071.000000	96.513871 
2070.000000	96.512041 
2069.000000	96.509995 
2068.000000	96.507719 
2067.000000	96.505341 
2066.000000	96.503048 
2065.000000	96.500977 
2064.000000	96.499136 
2063.000000	96.497412 
2062.000000	96.495652 
2061.000000	96.493757 
2060.000000	96.491744 
2059.000000	96.489729 
2058.000000	96.487851 
2057.000000	96.486171 
2056.000000	96.484619 
2055.000000	96.483025 
2054.000000	96.481224 
2053.000000	96.479166 
2052.000000	96.476969 
2051.000000	96.474866 
2050.000000	96.473076 
2049.000000	96.471677 
2048.000000	96.470573 
2047.000000	96.469561 
2046.000000	96.468461 
2045.000000	96.467229 
2044.000000	96.465992 
2043.000000	96.464972 
2042.000000	96.464343 
2041.000000	96.464112 
2040.000000	96.464104 
2039.000000	96.464066 
2038.000000	96.463806 
2037.000000	96.463295 
2036.000000	96.462667 
2035.000000	96.462133 
2034.000000	96.461840 
2033.000000	96.461770 
2032.000000	96.461736 
2031.000000	96.461503 
2030.000000	96.460933 
2029.000000	96.460088 
2028.000000	96.459199 
2027.000000	96.458522 
2026.000000	96.458175 
2025.000000	96.458058 
2024.000000	96.457919 
2023.000000	96.457511 
2022.000000	96.456732 
2021.000000	96.455670 
2020.000000	96.454531 
2019.000000	96.453509 
2018.000000	96.452672 
2017.000000	96.451928 
2016.000000	96.451089 
2015.000000	96.450011 
2014.000000	96.448693 
2013.000000	96.447303 
2012.000000	96.446094 
2011.000000	96.445250 
2010.000000	96.444767 
2009.000000	96.444424 
2008.000000	96.443911 
2007.000000	96.443009 
2006.000000	96.441724 
2005.000000	96.440265 
2004.000000	96.438896 
2003.000000	96.437770 
2002.000000	96.436841 
2001.000000	96.435890 
2000.000000	96.434661 
1999.000000	96.433029 
1998.000000	96.431089 
1997.000000	96.429116 
1996.000000	96.427399 
1995.000000	96.426075 
1994.000000	96.425061 
1993.000000	96.424131 
1992.000000	96.423068 
1991.000000	96.421805 
1990.000000	96.420476 
1989.000000	96.419333 
1988.000000	96.418589 
1987.000000	96.418276 
1986.000000	96.418216 
1985.000000	96.418134 
1984.000000	96.417833 
1983.000000	96.417319 
1982.000000	96.416796 
1981.000000	96.416537 
1980.000000	96.416731 
1979.000000	96.417369 
1978.000000	96.418265 
1977.000000	96.419164 
1976.000000	96.419905 
1975.000000	96.420519 
1974.000000	96.421201 
1973.000000	96.422182 
1972.000000	96.423571 
1971.000000	96.425276 
1970.000000	96.427053 
1969.000000	96.428654 
1968.000000	96.429984 
1967.000000	96.431166 
1966.000000	96.432470 
1965.000000	96.434143 
1964.000000	96.436260 
1963.000000	96.438687 
1962.000000	96.441159 
1961.000000	96.443439 
1960.000000	96.445449 
1959.000000	96.447310 
1958.000000	96.449261 
1957.000000	96.451499 
1956.000000	96.454055 
1955.000000	96.456765 
1954.000000	96.459372 
1953.000000	96.461688 
1952.000000	96.463712 
1951.000000	96.465616 
1950.000000	96.467627 
1949.000000	96.469879 
1948.000000	96.472332 
1947.000000	96.474793 
1946.000000	96.477032 
1945.000000	96.478920 
1944.000000	96.480518 
1943.000000	96.482036 
1942.000000	96.483701 
1941.000000	96.485605 
1940.000000	96.487656 
1939.000000	96.489649 
1938.000000	96.491394 
1937.000000	96.492825 
1936.000000	96.494037 
1935.000000	96.495218 
1934.000000	96.496528 
1933.000000	96.497989 
1932.000000	96.499471 
1931.000000	96.500770 
1930.000000	96.501734 
1929.000000	96.502353 
1928.000000	96.502765 
1927.000000	96.503166 
1926.000000	96.503672 
1925.000000	96.504248 
1924.000000	96.504732 
1923.000000	96.504953 
1922.000000	96.504832 
1921.000000	96.504430 
1920.000000	96.503904 
1919.000000	96.503437 
1918.000000	96.503135 
1917.000000	96.502972 
1916.000000	96.502801 
1915.000000	96.502454 
1914.000000	96.501855 
1913.000000	96.501062 
1912.000000	96.500223 
1911.000000	96.499479 
1910.000000	96.498865 
1909.000000	96.498291 
1908.000000	96.497600 
1907.000000	96.496663 
1906.000000	96.495459 
1905.000000	96.494086 
1904.000000	96.492712 
1903.000000	96.491478 
1902.000000	96.490416 
1901.000000	96.489426 
1900.000000	96.488351 
1899.000000	96.487082 
1898.000000	96.485632 
1897.000000	96.484123 
1896.000000	96.482706 
1895.000000	96.481474 
1894.000000	96.480407 
1893.000000	96.479396 
1892.000000	96.478315 
1891.000000	96.477116 
1890.000000	96.475873 
1889.000000	96.474747 
1888.000000	96.473882 
1887.000000	96.473304 
1886.000000	96.472909 
1885.000000	96.472532 
1884.000000	96.472060 
1883.000000	96.471504 
1882.000000	96.470989 
1881.000000	96.470675 
1880.000000	96.470662 
1879.000000	96.470939 
1878.000000	96.471396 
1877.000000	96.471897 
1876.000000	96.472357 
1875.000000	96.472798 
1874.000000	96.473338 
1873.000000	96.474115 
1872.000000	96.475192 
1871.000000	96.476521 
1870.000000	96.477972 
1869.000000	96.479423 
1868.000000	96.480830 
1867.000000	96.482255 
1866.000000	96.483822 
1865.000000	96.485643 
1864.000000	96.487760 
1863.000000	96.490123 
1862.000000	96.492618 
1861.000000	96.495124 
1860.000000	96.497589 
1859.000000	96.500058 
1858.000000	96.502644 
1857.000000	96.505441 
1856.000000	96.508452 
1855.000000	96.511587 
1854.000000	96.514713 
1853.000000	96.517725 
1852.000000	96.520606 
1851.000000	96.523434 
1850.000000	96.526320 
1849.000000	96.529339 
1848.000000	96.532470 
1847.000000	96.535605 
1846.000000	96.538596 
1845.000000	96.541353 
1844.000000	96.543917 
1843.000000	96.546444 
1842.000000	96.549081 
1841.000000	96.551865 
1840.000000	96.554704 
1839.000000	96.557437 
1838.000000	96.559912 
1837.000000	96.562071 
1836.000000	96.563969 
1835.000000	96.565740 
1834.000000	96.567497 
1833.000000	96.569255 
1832.000000	96.570926 
1831.000000	96.572370 
1830.000000	96.573494 
1829.000000	96.574319 
1828.000000	96.574962 
1827.000000	96.575563 
1826.000000	96.576215 
1825.000000	96.576934 
1824.000000	96.577644 
1823.000000	96.578216 
1822.000000	96.578548 
1821.000000	96.578635 
1820.000000	96.578573 
1819.000000	96.578498 
1818.000000	96.578511 
1817.000000	96.578619 
1816.000000	96.578734 
1815.000000	96.578727 
1814.000000	96.578510 
1813.000000	96.578097 
1812.000000	96.577580 
1811.000000	96.577072 
1810.000000	96.576636 
1809.000000	96.576255 
1808.000000	96.575847 
1807.000000	96.575330 
1806.000000	96.574683 
1805.000000	96.573959 
1804.000000	96.573267 
1803.000000	96.572721 
1802.000000	96.572385 
1801.000000	96.572221 
1800.000000	96.572110 
1799.000000	96.571940 
1798.000000	96.571695 
1797.000000	96.571477 
1796.000000	96.571431 
1795.000000	96.571653 
1794.000000	96.572133 
1793.000000	96.572770 
1792.000000	96.573448 
1791.000000	96.574120 
1790.000000	96.574829 
1789.000000	96.575670 
1788.000000	96.576737 
1787.000000	96.578067 
1786.000000	96.579619 
1785.000000	96.581304 
1784.000000	96.583019 
1783.000000	96.584701 
1782.000000	96.586346 
1781.000000	96.588026 
1780.000000	96.589857 
1779.000000	96.591908 
1778.000000	96.594143 
1777.000000	96.596413 
1776.000000	96.598537 
1775.000000	96.600420 
1774.000000	96.602091 
1773.000000	96.603668 
1772.000000	96.605302 
1771.000000	96.607093 
1770.000000	96.609041 
1769.000000	96.611076 
1768.000000	96.613130 
1767.000000	96.615180 
1766.000000	96.617251 
1765.000000	96.619396 
1764.000000	96.621654 
1763.000000	96.624022 
1762.000000	96.626445 
1761.000000	96.628829 
1760.000000	96.631062 
1759.000000	96.633085 
1758.000000	96.634936 
1757.000000	96.636726 
1756.000000	96.638559 
1755.000000	96.640443 
1754.000000	96.642289 
1753.000000	96.643986 
1752.000000	96.645501 
1751.000000	96.646906 
1750.000000	96.648338 
1749.000000	96.649893 
1748.000000	96.651577 
1747.000000	96.653301 
1746.000000	96.654935 
1745.000000	96.656362 
1744.000000	96.657536 
1743.000000	96.658487 
1742.000000	96.659292 
1741.000000	96.660032 
1740.000000	96.660746 
1739.000000	96.661402 
1738.000000	96.661899 
1737.000000	96.662132 
1736.000000	96.662083 
1735.000000	96.661845 
1734.000000	96.661618 
1733.000000	96.661607 
1732.000000	96.661855 
1731.000000	96.662251 
1730.000000	96.662644 
1729.000000	96.662930 
1728.000000	96.663098 
1727.000000	96.663198 
1726.000000	96.663267 
1725.000000	96.663317 
1724.000000	96.663325 
1723.000000	96.663227 
1722.000000	96.662945 
1721.000000	96.662425 
1720.000000	96.661673 
1719.000000	96.660748 
1718.000000	96.659755 
1717.000000	96.658806 
1716.000000	96.657922 
1715.000000	96.657024 
1714.000000	96.656010 
1713.000000	96.654822 
1712.000000	96.653467 
1711.000000	96.652002 
1710.000000	96.650487 
1709.000000	96.648928 
1708.000000	96.647249 
1707.000000	96.645332 
1706.000000	96.643091 
1705.000000	96.640542 
1704.000000	96.637797 
1703.000000	96.635009 
1702.000000	96.632300 
1701.000000	96.629706 
1700.000000	96.627192 
1699.000000	96.624663 
1698.000000	96.622028 
1697.000000	96.619282 
1696.000000	96.616509 
1695.000000	96.613828 
1694.000000	96.611296 
1693.000000	96.608858 
1692.000000	96.606380 
1691.000000	96.603716 
1690.000000	96.600784 
1689.000000	96.597624 
1688.000000	96.594368 
1687.000000	96.591141 
1686.000000	96.587985 
1685.000000	96.584843 
1684.000000	96.581654 
1683.000000	96.578439 
1682.000000	96.575244 
1681.000000	96.572133 
1680.000000	96.569201 
1679.000000	96.566523 
1678.000000	96.564071 
1677.000000	96.561728 
1676.000000	96.559365 
1675.000000	96.556911 
1674.000000	96.554366 
1673.000000	96.551797 
1672.000000	96.549286 
1671.000000	96.546882 
1670.000000	96.544572 
1669.000000	96.542310 
1668.000000	96.540052 
1667.000000	96.537780 
1666.000000	96.535512 
1665.000000	96.533299 
1664.000000	96.531205 
1663.000000	96.529265 
1662.000000	96.527459 
1661.000000	96.525708 
1660.000000	96.523927 
1659.000000	96.522063 
1658.000000	96.520122 
1657.000000	96.518172 
1656.000000	96.516311 
1655.000000	96.514586 
1654.000000	96.512922 
1653.000000	96.511227 
1652.000000	96.509490 
1651.000000	96.507727 
1650.000000	96.505992 
1649.000000	96.504364 
1648.000000	96.502892 
1647.000000	96.501589 
1646.000000	96.500436 
1645.000000	96.499371 
1644.000000	96.498332 
1643.000000	96.497332 
1642.000000	96.496450 
1641.000000	96.495753 
1640.000000	96.495247 
1639.000000	96.494874 
1638.000000	96.494523 
1637.000000	96.494067 
1636.000000	96.493467 
1635.000000	96.492851 
1634.000000	96.492407 
1633.000000	96.492240 
1632.000000	96.492339 
1631.000000	96.492623 
1630.000000	96.492984 
1629.000000	96.493342 
1628.000000	96.493694 
1627.000000	96.494118 
1626.000000	96.494713 
1625.000000	96.495533 
1624.000000	96.496565 
1623.000000	96.497761 
1622.000000	96.499066 
1621.000000	96.500454 
1620.000000	96.501952 
1619.000000	96.503622 
1618.000000	96.505519 
1617.000000	96.507667 
1616.000000	96.510064 
1615.000000	96.512673 
1614.000000	96.515422 
1613.000000	96.518266 
1612.000000	96.521227 
1611.000000	96.524389 
1610.000000	96.527813 
1609.000000	96.531503 
1608.000000	96.535422 
1607.000000	96.539495 
1606.000000	96.543634 
1605.000000	96.547794 
1604.000000	96.551998 
1603.000000	96.556331 
1602.000000	96.560888 
1601.000000	96.565650 
1600.000000	96.570491 
1599.000000	96.575284 
1598.000000	96.579950 
1597.000000	96.584484 
1596.000000	96.588963 
1595.000000	96.593504 
1594.000000	96.598194 
1593.000000	96.603000 
1592.000000	96.607777 
1591.000000	96.612372 
1590.000000	96.616717 
1589.000000	96.620841 
1588.000000	96.624836 
1587.000000	96.628795 
1586.000000	96.632755 
1585.000000	96.636680 
1584.000000	96.640492 
1583.000000	96.644088 
1582.000000	96.647352 
1581.000000	96.650239 
1580.000000	96.652854 
1579.000000	96.655388 
1578.000000	96.657981 
1577.000000	96.660466 
1576.000000	96.662381 
1575.000000	96.663496 
1574.000000	96.663862 
1573.000000	96.663697 
1572.000000	96.663300 
1571.000000	96.662799 
1570.000000	96.662008 
1569.000000	96.660662 
1568.000000	96.658643 
1567.000000	96.655759 
1566.000000	96.651906 
1565.000000	96.647242 
1564.000000	96.642188 
1563.000000	96.636972 
1562.000000	96.631573 
1561.000000	96.625793 
1560.000000	96.619006 
1559.000000	96.610731 
1558.000000	96.601514 
1557.000000	96.592070 
1556.000000	96.582356 
1555.000000	96.572366 
1554.000000	96.562007 
1553.000000	96.551053 
1552.000000	96.539190 
1551.000000	96.526212 
1550.000000	96.512275 
1549.000000	96.497810 
1548.000000	96.483120 
1547.000000	96.468188 
1546.000000	96.452776 
1545.000000	96.436604 
1544.000000	96.419547 
1543.000000	96.401637 
1542.000000	96.382956 
1541.000000	96.363475 
1540.000000	96.343376 
1539.000000	96.323112 
1538.000000	96.302475 
1537.000000	96.281048 
1536.000000	96.258760 
1535.000000	96.235771 
1534.000000	96.212311 
1533.000000	96.188560 
1532.000000	96.164551 
1531.000000	96.140224 
1530.000000	96.115447 
1529.000000	96.090100 
1528.000000	96.064162 
1527.000000	96.037728 
1526.000000	96.010958 
1525.000000	95.983981 
1524.000000	95.956829 
1523.000000	95.929420 
1522.000000	95.901627 
1521.000000	95.873382 
1520.000000	95.844718 
1519.000000	95.815725 
1518.000000	95.786521 
1517.000000	95.757248 
1516.000000	95.727977 
1515.000000	95.698609 
1514.000000	95.668973 
1513.000000	95.638976 
1512.000000	95.608653 
1511.000000	95.578138 
1510.000000	95.547609 
1509.000000	95.517194 
1508.000000	95.486899 
1507.000000	95.456613 
1506.000000	95.426235 
1505.000000	95.395716 
1504.000000	95.365065 
1503.000000	95.334363 
1502.000000	95.303710 
1501.000000	95.273156 
1500.000000	95.242646 
1499.000000	95.212033 
1498.000000	95.181195 
1497.000000	95.150133 
1496.000000	95.118976 
1495.000000	95.087914 
1494.000000	95.057084 
1493.000000	95.026507 
1492.000000	94.996105 
1491.000000	94.965748 
1490.000000	94.935336 
1489.000000	94.904897 
1488.000000	94.874577 
1487.000000	94.844554 
1486.000000	94.814948 
1485.000000	94.785764 
1484.000000	94.756901 
1483.000000	94.728229 
1482.000000	94.699712 
1481.000000	94.671286 
1480.000000	94.642927 
1479.000000	94.614766 
1478.000000	94.587052 
1477.000000	94.560096 
1476.000000	94.533961 
1475.000000	94.508137 
1474.000000	94.481265 
1473.000000	94.452163 
1472.000000	94.423013 
1471.000000	94.397762 
1470.000000	94.377176 
1469.000000	94.359056 
1468.000000	94.340722 
1467.000000	94.319979 
1466.000000	94.295129 
1465.000000	94.266719 
1464.000000	94.240049 
1463.000000	94.219545 
1462.000000	94.204456 
1461.000000	94.191400 
1460.000000	94.176826 
1459.000000	94.155412 
1458.000000	94.118739 
1457.000000	94.073200 
1456.000000	94.045459 
1455.000000	94.042071 
1454.000000	94.047927 
1453.000000	94.051884 
1452.000000	94.050225 
1451.000000	94.041783 
1450.000000	94.026403 
1449.000000	94.008314 
1448.000000	93.995706 
1447.000000	93.995968 
1446.000000	94.006546 
1445.000000	94.018163 
1444.000000	94.023433 
1443.000000	94.018738 
1442.000000	94.006412 
1441.000000	93.992927 
1440.000000	93.984479 
1439.000000	93.982028 
1438.000000	93.983306 
1437.000000	93.986526 
1436.000000	93.994044 
1435.000000	94.003910 
1434.000000	94.010322 
1433.000000	94.015056 
1432.000000	94.026217 
1431.000000	94.048210 
1430.000000	94.075949 
1429.000000	94.101094 
1428.000000	94.117801 
1427.000000	94.125638 
1426.000000	94.127942 
1425.000000	94.132790 
1424.000000	94.151109 
1423.000000	94.183275 
1422.000000	94.217036 
1421.000000	94.240578 
1420.000000	94.249845 
1419.000000	94.250163 
1418.000000	94.258551 
1417.000000	94.286848 
1416.000000	94.331919 
1415.000000	94.382839 
1414.000000	94.427775 
1413.000000	94.460839 
1412.000000	94.484187 
1411.000000	94.504260 
1410.000000	94.527465 
1409.000000	94.557898 
1408.000000	94.595096 
1407.000000	94.635023 
1406.000000	94.672382 
1405.000000	94.704594 
1404.000000	94.733912 
1403.000000	94.763364 
1402.000000	94.794394 
1401.000000	94.828046 
1400.000000	94.865038 
1399.000000	94.904061 
1398.000000	94.941891 
1397.000000	94.976365 
1396.000000	95.008264 
1395.000000	95.040734 
1394.000000	95.076543 
1393.000000	95.115719 
1392.000000	95.156212 
1391.000000	95.195699 
1390.000000	95.232845 
1389.000000	95.267555 
1388.000000	95.300830 
1387.000000	95.334525 
1386.000000	95.370048 
1385.000000	95.407334 
1384.000000	95.445280 
1383.000000	95.482433 
1382.000000	95.517654 
1381.000000	95.550663 
1380.000000	95.582274 
1379.000000	95.613935 
1378.000000	95.646718 
1377.000000	95.680567 
1376.000000	95.714385 
1375.000000	95.746842 
1374.000000	95.777313 
1373.000000	95.806388 
1372.000000	95.835102 
1371.000000	95.864158 
1370.000000	95.893844 
1369.000000	95.924056 
1368.000000	95.954211 
1367.000000	95.983138 
1366.000000	96.009753 
1365.000000	96.033942 
1364.000000	96.056681 
1363.000000	96.079687 
1362.000000	96.104455 
1361.000000	96.131052 
1360.000000	96.157971 
1359.000000	96.183300 
1358.000000	96.206037 
1357.000000	96.226496 
1356.000000	96.246015 
1355.000000	96.266064 
1354.000000	96.287289 
1353.000000	96.309169 
1352.000000	96.330158 
1351.000000	96.348777 
1350.000000	96.364695 
1349.000000	96.378968 
1348.000000	96.393234 
1347.000000	96.408546 
1346.000000	96.424869 
1345.000000	96.441217 
1344.000000	96.456186 
1343.000000	96.468868 
1342.000000	96.479585 
1341.000000	96.489554 
1340.000000	96.500036 
1339.000000	96.511553 
1338.000000	96.523757 
1337.000000	96.535833 
1336.000000	96.546968 
1335.000000	96.556837 
1334.000000	96.565704 
1333.000000	96.574114 
1332.000000	96.582459 
1331.000000	96.590795 
1330.000000	96.598905 
1329.000000	96.606452 
1328.000000	96.613180 
1327.000000	96.619115 
1326.000000	96.624503 
1325.000000	96.629591 
1324.000000	96.634480 
1323.000000	96.639140 
1322.000000	96.643462 
1321.000000	96.647312 
1320.000000	96.650597 
1319.000000	96.653308 
1318.000000	96.655549 
1317.000000	96.657487 
1316.000000	96.659245 
1315.000000	96.660839 
1314.000000	96.662189 
1313.000000	96.663189 
1312.000000	96.663794 
1311.000000	96.664063 
1310.000000	96.664145 
1309.000000	96.664210 
1308.000000	96.664369 
1307.000000	96.664616 
1306.000000	96.664852 
1305.000000	96.664955 
1304.000000	96.664870 
1303.000000	96.664654 
1302.000000	96.664444 
1301.000000	96.664376 
1300.000000	96.664501 
1299.000000	96.664755 
1298.000000	96.664991 
1297.000000	96.665067 
1296.000000	96.664939 
1295.000000	96.664684 
1294.000000	96.664454 
1293.000000	96.664376 
1292.000000	96.664468 
1291.000000	96.664635 
1290.000000	96.664734 
1289.000000	96.664670 
1288.000000	96.664456 
1287.000000	96.664201 
1286.000000	96.664044 
1285.000000	96.664064 
1284.000000	96.664226 
1283.000000	96.664404 
1282.000000	96.664451 
1281.000000	96.664290 
1280.000000	96.663964 
1279.000000	96.663590 
1278.000000	96.663137 
1277.000000	96.662888 
1276.000000	96.663870 
1275.000000	96.666523 
1274.000000	96.669066 
1273.000000	96.668370 
1272.000000	96.662909 
1271.000000	96.655033 
1270.000000	96.650416 
1269.000000	96.654368 
1268.000000	96.666945 
1267.000000	96.680670 
1266.000000	96.684487 
1265.000000	96.672394 
1264.000000	96.649743 
1263.000000	96.631169 
1262.000000	96.630739 
1261.000000	96.651373 
1260.000000	96.681612 
1259.000000	96.702149 
1258.000000	96.697816 
1257.000000	96.667500 
1256.000000	96.626110 
1255.000000	96.596933 
1254.000000	96.597020 
1253.000000	96.624268 
1252.000000	96.656494 
1251.000000	96.665226 
1250.000000	96.635784 
1249.000000	96.578646 
1248.000000	96.522806 
1247.000000	96.495804 
1246.000000	96.505576 
1245.000000	96.536572 
1244.000000	96.560179 
1243.000000	96.551486 
1242.000000	96.504144 
1241.000000	96.435626 
1240.000000	96.377638 
1239.000000	96.355644 
1238.000000	96.371258 
1237.000000	96.400833 
1236.000000	96.410651 
1235.000000	96.377197 
1234.000000	96.301220 
1233.000000	96.208550 
1232.000000	96.135411 
1231.000000	96.105108 
1230.000000	96.111851 
1229.000000	96.124687 
1228.000000	96.107743 
1227.000000	96.041061 
1226.000000	95.930929 
1225.000000	95.806587 
1224.000000	95.703963 
1223.000000	95.642767 
1222.000000	95.611534 
1221.000000	95.574333 
1220.000000	95.495547 
1219.000000	95.363180 
1218.000000	95.195408 
1217.000000	95.028733 
1216.000000	94.895775 
1215.000000	94.805328 
1214.000000	94.736685 
1213.000000	94.653731 
1212.000000	94.529054 
1211.000000	94.360131 
1210.000000	94.169113 
1209.000000	93.989717 
1208.000000	93.849025 
1207.000000	93.751260 
1206.000000	93.672552 
1205.000000	93.574513 
1204.000000	93.430192 
1203.000000	93.242322 
1202.000000	93.040614 
1201.000000	92.862481 
1200.000000	92.730594 
1199.000000	92.638982 
1198.000000	92.555767 
1197.000000	92.443726 
1196.000000	92.284924 
1195.000000	92.091066 
1194.000000	91.894228 
1193.000000	91.726814 
1192.000000	91.603148 
1191.000000	91.510274 
1190.000000	91.413587 
1189.000000	91.278436 
1188.000000	91.093812 
1187.000000	90.879022 
1186.000000	90.669717 
1185.000000	90.495833 
1184.000000	90.365124 
1183.000000	90.257865 
1182.000000	90.136225 
1181.000000	89.968176 
1180.000000	89.750120 
1179.000000	89.508342 
1178.000000	89.279163 
1177.000000	89.086471 
1176.000000	88.930504 
1175.000000	88.787271 
1174.000000	88.619082 
1173.000000	88.398499 
1172.000000	88.130837 
1171.000000	87.851972 
1170.000000	87.601759 
1169.000000	87.399148 
1168.000000	87.236874 
1167.000000	87.089195 
1166.000000	86.925904 
1165.000000	86.735078 
1164.000000	86.542395 
1163.000000	86.401540 
1162.000000	86.356281 
1161.000000	86.408769 
1160.000000	86.517425 
1159.000000	86.617342 
1158.000000	86.649418 
1157.000000	86.587560 
1156.000000	86.449765 
1155.000000	86.282784 
1154.000000	86.128967 
1153.000000	86.001647 
1152.000000	85.885337 
1151.000000	85.750733 
1150.000000	85.572660 
1149.000000	85.348562 
1148.000000	85.107063 
1147.000000	84.891871 
1146.000000	84.728959 
1145.000000	84.608366 
1144.000000	84.495731 
1143.000000	84.355836 
1142.000000	84.169957 
1141.000000	83.945551 
1140.000000	83.715360 
1139.000000	83.518154 
1138.000000	83.370270 
1137.000000	83.254583 
1136.000000	83.136062 
1135.000000	82.984813 
1134.000000	82.790261 
1133.000000	82.566464 
1132.000000	82.347035 
1131.000000	82.164443 
1130.000000	82.025211 
1129.000000	81.905924 
1128.000000	81.773554 
1127.000000	81.607132 
1126.000000	81.405578 
1125.000000	81.186630 
1124.000000	80.979761 
1123.000000	80.808951 
1122.000000	80.674151 
1121.000000	80.551195 
1120.000000	80.411038 
1119.000000	80.238176 
1118.000000	80.035845 
1117.000000	79.823363 
1116.000000	79.629248 
1115.000000	79.475357 
1114.000000	79.358568 
1113.000000	79.250080 
1112.000000	79.116598 
1111.000000	78.942432 
1110.000000	78.735978 
1109.000000	78.525070 
1108.000000	78.345227 
1107.000000	78.217584 
1106.000000	78.128231 
1105.000000	78.034341 
1104.000000	77.897433 
1103.000000	77.709602 
1102.000000	77.492251 
1101.000000	77.282586 
1100.000000	77.118562 
1099.000000	77.016997 
1098.000000	76.954813 
1097.000000	76.880114 
1096.000000	76.752034 
1095.000000	76.568839 
1094.000000	76.362959 
1093.000000	76.180576 
1092.000000	76.060968 
1091.000000	76.012493 
1090.000000	75.997743 
1089.000000	75.955212 
1088.000000	75.847732 
1087.000000	75.688381 
1086.000000	75.523765 
1085.000000	75.402702 
1084.000000	75.354053 
1083.000000	75.369835 
1082.000000	75.399803 
1081.000000	75.380612 
1080.000000	75.285745 
1079.000000	75.144996 
1078.000000	75.016498 
1077.000000	74.946197 
1076.000000	74.946088 
1075.000000	74.987020 
1074.000000	75.005582 
1073.000000	74.939969 
1072.000000	74.775408 
1071.000000	74.552502 
1070.000000	74.330356 
1069.000000	74.145612 
1068.000000	73.999720 
1067.000000	73.862879 
1066.000000	73.684840 
1065.000000	73.425767 
1064.000000	73.094036 
1063.000000	72.747995 
1062.000000	72.452591 
1061.000000	72.236312 
1060.000000	72.084387 
1059.000000	71.953044 
1058.000000	71.787390 
1057.000000	71.550884 
1056.000000	71.256327 
1055.000000	70.962700 
1054.000000	70.731832 
1053.000000	70.586698 
1052.000000	70.503658 
1051.000000	70.426560 
1050.000000	70.290714 
1049.000000	70.062816 
1048.000000	69.774094 
1047.000000	69.502118 
1046.000000	69.308713 
1045.000000	69.198413 
1044.000000	69.127989 
1043.000000	69.036653 
1042.000000	68.873251 
1041.000000	68.625464 
1040.000000	68.338069 
1039.000000	68.088378 
1038.000000	67.928517 
1037.000000	67.851776 
1036.000000	67.808717 
1035.000000	67.741057 
1034.000000	67.607973 
1033.000000	67.410671 
1032.000000	67.202814 
1031.000000	67.057129 
1030.000000	67.006890 
1029.000000	67.024098 
1028.000000	67.050598 
1027.000000	67.035634 
1026.000000	66.952370 
1025.000000	66.811620 
1024.000000	66.669422 
1023.000000	66.595154 
1022.000000	66.612916 
1021.000000	66.680723 
1020.000000	66.728859 
1019.000000	66.707174 
1018.000000	66.604467 
1017.000000	66.453665 
1016.000000	66.325112 
1015.000000	66.285472 
1014.000000	66.341940 
1013.000000	66.434350 
1012.000000	66.487370 
1011.000000	66.462094 
1010.000000	66.366851 
1009.000000	66.248136 
1008.000000	66.175026 
1007.000000	66.200651 
1006.000000	66.317058 
1005.000000	66.457002 
1004.000000	66.548352 
1003.000000	66.561511 
1002.000000	66.515078 
1001.000000	66.462128 
1000.000000	66.469914 
999.000000	 66.579560 
998.000000	 66.766461 
997.000000	 66.952978 
996.000000	 67.070971 
995.000000	 67.108125 
994.000000	 67.103229 
993.000000	 67.118610 
992.000000	 67.212400 
991.000000	 67.404107 
990.000000	 67.650420 
989.000000	 67.870586 
988.000000	 68.009569 
987.000000	 68.074355 
986.000000	 68.117424 
985.000000	 68.202589 
984.000000	 68.378100 
983.000000	 68.649319 
982.000000	 68.963144 
981.000000	 69.238052 
980.000000	 69.426670 
979.000000	 69.547877 
978.000000	 69.663398 
977.000000	 69.835506 
976.000000	 70.097454 
975.000000	 70.435299 
974.000000	 70.787859 
973.000000	 71.083860 
972.000000	 71.295948 
971.000000	 71.458148 
970.000000	 71.633810 
969.000000	 71.873044 
968.000000	 72.189766 
967.000000	 72.555170 
966.000000	 72.908178 
965.000000	 73.192876 
964.000000	 73.400844 
963.000000	 73.575798 
962.000000	 73.776948 
961.000000	 74.039476 
960.000000	 74.360039 
959.000000	 74.701856 
958.000000	 75.012399 
957.000000	 75.255168 
956.000000	 75.437172 
955.000000	 75.603953 
954.000000	 75.804621 
953.000000	 76.059565 
952.000000	 76.353677 
951.000000	 76.648876 
950.000000	 76.905417 
949.000000	 77.106541 
948.000000	 77.270579 
947.000000	 77.436933 
946.000000	 77.636342 
945.000000	 77.872160 
944.000000	 78.124985 
943.000000	 78.368630 
942.000000	 78.585003 
941.000000	 78.773746 
940.000000	 78.951381 
939.000000	 79.138789 
938.000000	 79.346880 
937.000000	 79.572349 
936.000000	 79.803436 
935.000000	 80.027448 
934.000000	 80.236494 
933.000000	 80.431257 
932.000000	 80.620393 
931.000000	 80.815156 
930.000000	 81.022719 
929.000000	 81.242350 
928.000000	 81.465862 
927.000000	 81.681646 
926.000000	 81.880871 
925.000000	 82.063251 
924.000000	 82.238506 
923.000000	 82.421043 
922.000000	 82.619638 
921.000000	 82.831047 
920.000000	 83.042960 
919.000000	 83.241378 
918.000000	 83.417054 
917.000000	 83.571052 
916.000000	 83.718094 
915.000000	 83.880516 
914.000000	 84.072053 
913.000000	 84.286331 
912.000000	 84.500874 
911.000000	 84.691769 
910.000000	 84.848722 
909.000000	 84.983965 
908.000000	 85.128740 
907.000000	 85.313806 
906.000000	 85.546392 
905.000000	 85.803909 
904.000000	 86.049165 
903.000000	 86.253271 
902.000000	 86.411772 
901.000000	 86.549087 
900.000000	 86.707752 
899.000000	 86.921744 
898.000000	 87.189730 
897.000000	 87.472270 
896.000000	 87.718323 
895.000000	 87.898599 
894.000000	 88.022105 
893.000000	 88.131184 
892.000000	 88.278770 
891.000000	 88.494877 
890.000000	 88.761580 
889.000000	 89.019700 
888.000000	 89.207584 
887.000000	 89.300624 
886.000000	 89.324571 
885.000000	 89.341000 
884.000000	 89.412240 
883.000000	 89.560874 
882.000000	 89.751055 
881.000000	 89.912574 
880.000000	 89.993453 
879.000000	 89.996238 
878.000000	 89.974614 
877.000000	 90.002533 
876.000000	 90.136316 
875.000000	 90.382874 
874.000000	 90.689644 
873.000000	 90.974674 
872.000000	 91.183264 
871.000000	 91.322809 
870.000000	 91.450491 
869.000000	 91.631935 
868.000000	 91.901185 
867.000000	 92.239098 
866.000000	 92.578901 
865.000000	 92.843543 
864.000000	 92.996429 
863.000000	 93.067745 
862.000000	 93.136229 
861.000000	 93.280947 
860.000000	 93.535274 
859.000000	 93.865304 
858.000000	 94.183093 
857.000000	 94.396629 
856.000000	 94.470565 
855.000000	 94.454643 
854.000000	 94.456836 
853.000000	 94.575300 
852.000000	 94.833078 
851.000000	 95.158138 
850.000000	 95.425150 
849.000000	 95.537864 
848.000000	 95.495898 
847.000000	 95.397025 
846.000000	 95.373744 
845.000000	 95.509704 
844.000000	 95.789851 
843.000000	 96.106596 
842.000000	 96.317490 
841.000000	 96.331908 
840.000000	 96.175163 
839.000000	 95.978167 
838.000000	 95.892860 
837.000000	 95.994319 
836.000000	 96.239021 
835.000000	 96.494884 
834.000000	 96.615548 
833.000000	 96.525947 
832.000000	 96.277723 
831.000000	 96.031321 
830.000000	 95.957983 
829.000000	 96.122320 
828.000000	 96.435755 
827.000000	 96.711492 
826.000000	 96.779032 
825.000000	 96.591876 
824.000000	 96.265804 
823.000000	 96.011200 
822.000000	 95.987912 
821.000000	 96.192280 
820.000000	 96.468261 
819.000000	 96.614081 
818.000000	 96.498592 
817.000000	 96.131551 
816.000000	 95.658531 
815.000000	 95.274132 
814.000000	 95.093669 
813.000000	 95.071091 
812.000000	 95.026390 
811.000000	 94.754626 
810.000000	 94.141487 
809.000000	 93.227254 
808.000000	 92.187739 
807.000000	 91.231486 
806.000000	 90.466004 
805.000000	 89.833928 
804.000000	 89.172454 
803.000000	 88.337188 
802.000000	 87.301384 
801.000000	 86.189401 
800.000000	 85.230548 
799.000000	 84.636107 
798.000000	 84.463101 
797.000000	 84.576219 
796.000000	 84.744324 
795.000000	 84.782618 
794.000000	 84.642753 
793.000000	 84.425211 
792.000000	 84.313535 
791.000000	 84.444700 
790.000000	 84.792836 
789.000000	 85.170769 
788.000000	 85.354773 
787.000000	 85.219735 
786.000000	 84.795406 
785.000000	 84.242072 
784.000000	 83.766951 
783.000000	 83.505070 
782.000000	 83.431968 
781.000000	 83.391949 
780.000000	 83.229060 
779.000000	 82.904182 
778.000000	 82.517241 
777.000000	 82.250975 
776.000000	 82.276379 
775.000000	 82.648397 
774.000000	 83.249864 
773.000000	 83.849492 
772.000000	 84.249041 
771.000000	 84.401174 
770.000000	 84.417228 
769.000000	 84.483074 
768.000000	 84.742744 
767.000000	 85.208201 
766.000000	 85.747889 
765.000000	 86.174042 
764.000000	 86.371268 
763.000000	 86.367724 
762.000000	 86.307863 
761.000000	 86.361049 
760.000000	 86.623569 
759.000000	 87.062213 
758.000000	 87.533089 
757.000000	 87.874932 
756.000000	 88.016370 
755.000000	 88.015829 
754.000000	 88.010822 
753.000000	 88.122974 
752.000000	 88.385847 
751.000000	 88.734225 
750.000000	 89.052443 
749.000000	 89.249948 
748.000000	 89.315626 
747.000000	 89.317070 
746.000000	 89.351916 
745.000000	 89.486624 
744.000000	 89.720116 
743.000000	 89.991795 
742.000000	 90.225395 
741.000000	 90.379289 
740.000000	 90.468037 
739.000000	 90.542030 
738.000000	 90.646924 
737.000000	 90.795617 
736.000000	 90.970014 
735.000000	 91.141862 
734.000000	 91.290192 
733.000000	 91.405546 
732.000000	 91.488981 
731.000000	 91.554620 
730.000000	 91.628757 
729.000000	 91.734620 
728.000000	 91.873082 
727.000000	 92.019017 
726.000000	 92.135931 
725.000000	 92.199975 
724.000000	 92.218596 
723.000000	 92.229206 
722.000000	 92.277707 
721.000000	 92.388649 
720.000000	 92.545356 
719.000000	 92.695571 
718.000000	 92.784009 
717.000000	 92.790693 
716.000000	 92.745505 
715.000000	 92.711061 
714.000000	 92.743969 
713.000000	 92.858016 
712.000000	 93.016038 
711.000000	 93.152806 
710.000000	 93.212914 
709.000000	 93.190984 
708.000000	 93.132569 
707.000000	 93.103382 
706.000000	 93.145290 
705.000000	 93.247656 
704.000000	 93.356512 
703.000000	 93.410071 
702.000000	 93.376398 
701.000000	 93.270939 
700.000000	 93.144226 
699.000000	 93.053549 
698.000000	 93.030557 
697.000000	 93.063663 
696.000000	 93.114216 
695.000000	 93.148325 
694.000000	 93.157893 
693.000000	 93.163120 
692.000000	 93.197493 
691.000000	 93.281079 
690.000000	 93.403044 
689.000000	 93.531873 
688.000000	 93.638580 
687.000000	 93.714324 
686.000000	 93.769915 
685.000000	 93.822494 
684.000000	 93.884808 
683.000000	 93.959036 
682.000000	 94.039338 
681.000000	 94.119319 
680.000000	 94.196007 
679.000000	 94.270045 
678.000000	 94.343048 
677.000000	 94.415961 
676.000000	 94.490257 
675.000000	 94.567695 
674.000000	 94.648641 
673.000000	 94.731542 
672.000000	 94.813926 
671.000000	 94.894088 
670.000000	 94.972038 
669.000000	 95.049557 
668.000000	 95.129440 
667.000000	 95.213376 
666.000000	 95.300454 
665.000000	 95.388369 
664.000000	 95.475068 
663.000000	 95.559694 
662.000000	 95.643104 
661.000000	 95.727508 
660.000000	 95.815217 
659.000000	 95.907163 
658.000000	 96.002185 
657.000000	 96.097649 
656.000000	 96.191074 
655.000000	 96.281661 
654.000000	 96.370804 
653.000000	 96.461257 
652.000000	 96.555444 
651.000000	 96.653947 
650.000000	 96.755158 

