4000.000000	96.376788 
3999.000000	96.376357 
3998.000000	96.373010 
3997.000000	96.367582 
3996.000000	96.362244 
3995.000000	96.358633 
3994.000000	96.357228 
3993.000000	96.357420 
3992.000000	96.357930 
3991.000000	96.358123 
3990.000000	96.358474 
3989.000000	96.359529 
3988.000000	96.360874 
3987.000000	96.361539 
3986.000000	96.361203 
3985.000000	96.360468 
3984.000000	96.360032 
3983.000000	96.360182 
3982.000000	96.361068 
3981.000000	96.362725 
3980.000000	96.364431 
3979.000000	96.364697 
3978.000000	96.362657 
3977.000000	96.359212 
3976.000000	96.356193 
3975.000000	96.354351 
3974.000000	96.352827 
3973.000000	96.350602 
3972.000000	96.347654 
3971.000000	96.344659 
3970.000000	96.342308 
3969.000000	96.340947 
3968.000000	96.340462 
3967.000000	96.340307 
3966.000000	96.339836 
3965.000000	96.338670 
3964.000000	96.336849 
3963.000000	96.334799 
3962.000000	96.333168 
3961.000000	96.332457 
3960.000000	96.332482 
3959.000000	96.332500 
3958.000000	96.332080 
3957.000000	96.331332 
3956.000000	96.330363 
3955.000000	96.328841 
3954.000000	96.326430 
3953.000000	96.323333 
3952.000000	96.320228 
3951.000000	96.317862 
3950.000000	96.316557 
3949.000000	96.316037 
3948.000000	96.315626 
3947.000000	96.314835 
3946.000000	96.313653 
3945.000000	96.312364 
3944.000000	96.311316 
3943.000000	96.310814 
3942.000000	96.310978 
3941.000000	96.311641 
3940.000000	96.312229 
3939.000000	96.311923 
3938.000000	96.310379 
3937.000000	96.307904 
3936.000000	96.305062 
3935.000000	96.302271 
3934.000000	96.300076 
3933.000000	96.299334 
3932.000000	96.300263 
3931.000000	96.301592 
3930.000000	96.301427 
3929.000000	96.299194 
3928.000000	96.296192 
3927.000000	96.293952 
3926.000000	96.292788 
3925.000000	96.292347 
3924.000000	96.292429 
3923.000000	96.292414 
3922.000000	96.290915 
3921.000000	96.287585 
3920.000000	96.284506 
3919.000000	96.284123 
3918.000000	96.286373 
3917.000000	96.289109 
3916.000000	96.290878 
3915.000000	96.291778 
3914.000000	96.291800 
3913.000000	96.290567 
3912.000000	96.288545 
3911.000000	96.286114 
3910.000000	96.283260 
3909.000000	96.279571 
3908.000000	96.275543 
3907.000000	96.272106 
3906.000000	96.269664 
3905.000000	96.267850 
3904.000000	96.266517 
3903.000000	96.266258 
3902.000000	96.267423 
3901.000000	96.269185 
3900.000000	96.270448 
3899.000000	96.271008 
3898.000000	96.271046 
3897.000000	96.270545 
3896.000000	96.269499 
3895.000000	96.268289 
3894.000000	96.267300 
3893.000000	96.266480 
3892.000000	96.265573 
3891.000000	96.264555 
3890.000000	96.263581 
3889.000000	96.262663 
3888.000000	96.261773 
3887.000000	96.260907 
3886.000000	96.260067 
3885.000000	96.259255 
3884.000000	96.258470 
3883.000000	96.257701 
3882.000000	96.256938 
3881.000000	96.256188 
3880.000000	96.255462 
3879.000000	96.254756 
3878.000000	96.254043 
3877.000000	96.253297 
3876.000000	96.252511 
3875.000000	96.251709 
3874.000000	96.250932 
3873.000000	96.250206 
3872.000000	96.249536 
3871.000000	96.248913 
3870.000000	96.248343 
3869.000000	96.247849 
3868.000000	96.247439 
3867.000000	96.247086 
3866.000000	96.246761 
3865.000000	96.246464 
3864.000000	96.246200 
3863.000000	96.245944 
3862.000000	96.245654 
3861.000000	96.245311 
3860.000000	96.244931 
3859.000000	96.244538 
3858.000000	96.244149 
3857.000000	96.243786 
3856.000000	96.243483 
3855.000000	96.243270 
3854.000000	96.243147 
3853.000000	96.243112 
3852.000000	96.243201 
3851.000000	96.243459 
3850.000000	96.243867 
3849.000000	96.244372 
3848.000000	96.244921 
3847.000000	96.245479 
3846.000000	96.246026 
3845.000000	96.246557 
3844.000000	96.247069 
3843.000000	96.247561 
3842.000000	96.248045 
3841.000000	96.248540 
3840.000000	96.249063 
3839.000000	96.249614 
3838.000000	96.250181 
3837.000000	96.250765 
3836.000000	96.251385 
3835.000000	96.252065 
3834.000000	96.252809 
3833.000000	96.253601 
3832.000000	96.254421 
3831.000000	96.255253 
3830.000000	96.256087 
3829.000000	96.256918 
3828.000000	96.257739 
3827.000000	96.258537 
3826.000000	96.259306 
3825.000000	96.260055 
3824.000000	96.260797 
3823.000000	96.261529 
3822.000000	96.262243 
3821.000000	96.262949 
3820.000000	96.263694 
3819.000000	96.264513 
3818.000000	96.265389 
3817.000000	96.266279 
3816.000000	96.267167 
3815.000000	96.268067 
3814.000000	96.268981 
3813.000000	96.269880 
3812.000000	96.270732 
3811.000000	96.271527 
3810.000000	96.272262 
3809.000000	96.272898 
3808.000000	96.273400 
3807.000000	96.273777 
3806.000000	96.274091 
3805.000000	96.274413 
3804.000000	96.274768 
3803.000000	96.275146 
3802.000000	96.275545 
3801.000000	96.275979 
3800.000000	96.276465 
3799.000000	96.276984 
3798.000000	96.277489 
3797.000000	96.277944 
3796.000000	96.278335 
3795.000000	96.278655 
3794.000000	96.278884 
3793.000000	96.279001 
3792.000000	96.279016 
3791.000000	96.278935 
3790.000000	96.278782 
3789.000000	96.278510 
3788.000000	96.277990 
3787.000000	96.277254 
3786.000000	96.276418 
3785.000000	96.275470 
3784.000000	96.274578 
3783.000000	96.274236 
3782.000000	96.274376 
3781.000000	96.274117 
3780.000000	96.272936 
3779.000000	96.271530 
3778.000000	96.271291 
3777.000000	96.271984 
3776.000000	96.271382 
3775.000000	96.268409 
3774.000000	96.265151 
3773.000000	96.263793 
3772.000000	96.263485 
3771.000000	96.261674 
3770.000000	96.257757 
3769.000000	96.253735 
3768.000000	96.251404 
3767.000000	96.249687 
3766.000000	96.246955 
3765.000000	96.244119 
3764.000000	96.243414 
3763.000000	96.244598 
3762.000000	96.244358 
3761.000000	96.241081 
3760.000000	96.237181 
3759.000000	96.234576 
3758.000000	96.231915 
3757.000000	96.227452 
3756.000000	96.221775 
3755.000000	96.215614 
3754.000000	96.208695 
3753.000000	96.202401 
3752.000000	96.199612 
3751.000000	96.198304 
3750.000000	96.192220 
3749.000000	96.183088 
3748.000000	96.179393 
3747.000000	96.182185 
3746.000000	96.185727 
3745.000000	96.185738 
3744.000000	96.182261 
3743.000000	96.182606 
3742.000000	96.188344 
3741.000000	96.189111 
3740.000000	96.181483 
3739.000000	96.171550 
3738.000000	96.164139 
3737.000000	96.159802 
3736.000000	96.160906 
3735.000000	96.171607 
3734.000000	96.187582 
3733.000000	96.195888 
3732.000000	96.190595 
3731.000000	96.178938 
3730.000000	96.170496 
3729.000000	96.165275 
3728.000000	96.158770 
3727.000000	96.152464 
3726.000000	96.152176 
3725.000000	96.158808 
3724.000000	96.165479 
3723.000000	96.167180 
3722.000000	96.165915 
3721.000000	96.165269 
3720.000000	96.165362 
3719.000000	96.162324 
3718.000000	96.153855 
3717.000000	96.142711 
3716.000000	96.133234 
3715.000000	96.125000 
3714.000000	96.114272 
3713.000000	96.101020 
3712.000000	96.088356 
3711.000000	96.077505 
3710.000000	96.068936 
3709.000000	96.062189 
3708.000000	96.054973 
3707.000000	96.045732 
3706.000000	96.035334 
3705.000000	96.025100 
3704.000000	96.015053 
3703.000000	96.004301 
3702.000000	95.990451 
3701.000000	95.971668 
3700.000000	95.951091 
3699.000000	95.931925 
3698.000000	95.912307 
3697.000000	95.892128 
3696.000000	95.876061 
3695.000000	95.865329 
3694.000000	95.853582 
3693.000000	95.837179 
3692.000000	95.823810 
3691.000000	95.822963 
3690.000000	95.829912 
3689.000000	95.826878 
3688.000000	95.809988 
3687.000000	95.797060 
3686.000000	95.796810 
3685.000000	95.796533 
3684.000000	95.787128 
3683.000000	95.773053 
3682.000000	95.758203 
3681.000000	95.736459 
3680.000000	95.703658 
3679.000000	95.670199 
3678.000000	95.644060 
3677.000000	95.617539 
3676.000000	95.576203 
3675.000000	95.524350 
3674.000000	95.492369 
3673.000000	95.485768 
3672.000000	95.473950 
3671.000000	95.446648 
3670.000000	95.420058 
3669.000000	95.404735 
3668.000000	95.397014 
3667.000000	95.385551 
3666.000000	95.365302 
3665.000000	95.341326 
3664.000000	95.318516 
3663.000000	95.293779 
3662.000000	95.261508 
3661.000000	95.221510 
3660.000000	95.179811 
3659.000000	95.141773 
3658.000000	95.104836 
3657.000000	95.061212 
3656.000000	95.007207 
3655.000000	94.953900 
3654.000000	94.909662 
3653.000000	94.864363 
3652.000000	94.809528 
3651.000000	94.756182 
3650.000000	94.715800 
3649.000000	94.680980 
3648.000000	94.644056 
3647.000000	94.615069 
3646.000000	94.604196 
3645.000000	94.604464 
3644.000000	94.601365 
3643.000000	94.587812 
3642.000000	94.568028 
3641.000000	94.546861 
3640.000000	94.522017 
3639.000000	94.488601 
3638.000000	94.449256 
3637.000000	94.412042 
3636.000000	94.376297 
3635.000000	94.332691 
3634.000000	94.279541 
3633.000000	94.229142 
3632.000000	94.190128 
3631.000000	94.157799 
3630.000000	94.127487 
3629.000000	94.097385 
3628.000000	94.071265 
3627.000000	94.060543 
3626.000000	94.058235 
3625.000000	94.047603 
3624.000000	94.030827 
3623.000000	94.019710 
3622.000000	94.016892 
3621.000000	94.016482 
3620.000000	94.014546 
3619.000000	94.010284 
3618.000000	94.006847 
3617.000000	94.012226 
3616.000000	94.030477 
3615.000000	94.059054 
3614.000000	94.093577 
3613.000000	94.129066 
3612.000000	94.159848 
3611.000000	94.180874 
3610.000000	94.191735 
3609.000000	94.201199 
3608.000000	94.220725 
3607.000000	94.251874 
3606.000000	94.285018 
3605.000000	94.309876 
3604.000000	94.325665 
3603.000000	94.339254 
3602.000000	94.354647 
3601.000000	94.369214 
3600.000000	94.379602 
3599.000000	94.385265 
3598.000000	94.387799 
3597.000000	94.392316 
3596.000000	94.403088 
3595.000000	94.419205 
3594.000000	94.434368 
3593.000000	94.442136 
3592.000000	94.439397 
3591.000000	94.427337 
3590.000000	94.412466 
3589.000000	94.407180 
3588.000000	94.420708 
3587.000000	94.448056 
3586.000000	94.475304 
3585.000000	94.493003 
3584.000000	94.501160 
3583.000000	94.505603 
3582.000000	94.511310 
3581.000000	94.518482 
3580.000000	94.523936 
3579.000000	94.525410 
3578.000000	94.522944 
3577.000000	94.518477 
3576.000000	94.513837 
3575.000000	94.509202 
3574.000000	94.503125 
3573.000000	94.493311 
3572.000000	94.478161 
3571.000000	94.458256 
3570.000000	94.437458 
3569.000000	94.423083 
3568.000000	94.422859 
3567.000000	94.437275 
3566.000000	94.457164 
3565.000000	94.472016 
3564.000000	94.477819 
3563.000000	94.477380 
3562.000000	94.476198 
3561.000000	94.477670 
3560.000000	94.480964 
3559.000000	94.482699 
3558.000000	94.480354 
3557.000000	94.474466 
3556.000000	94.468364 
3555.000000	94.465104 
3554.000000	94.464724 
3553.000000	94.464400 
3552.000000	94.461300 
3551.000000	94.454962 
3550.000000	94.446938 
3549.000000	94.439451 
3548.000000	94.435129 
3547.000000	94.435895 
3546.000000	94.440928 
3545.000000	94.446813 
3544.000000	94.450523 
3543.000000	94.451373 
3542.000000	94.450083 
3541.000000	94.447435 
3540.000000	94.444190 
3539.000000	94.441188 
3538.000000	94.439147 
3537.000000	94.438213 
3536.000000	94.437784 
3535.000000	94.436987 
3534.000000	94.435345 
3533.000000	94.433150 
3532.000000	94.431138 
3531.000000	94.429789 
3530.000000	94.428809 
3529.000000	94.427408 
3528.000000	94.425163 
3527.000000	94.422511 
3526.000000	94.420311 
3525.000000	94.419155 
3524.000000	94.419065 
3523.000000	94.419564 
3522.000000	94.419895 
3521.000000	94.419406 
3520.000000	94.418077 
3519.000000	94.416398 
3518.000000	94.414841 
3517.000000	94.413439 
3516.000000	94.411871 
3515.000000	94.409944 
3514.000000	94.407856 
3513.000000	94.405940 
3512.000000	94.404309 
3511.000000	94.402930 
3510.000000	94.401816 
3509.000000	94.400934 
3508.000000	94.399945 
3507.000000	94.398272 
3506.000000	94.395508 
3505.000000	94.391888 
3504.000000	94.388409 
3503.000000	94.386193 
3502.000000	94.385640 
3501.000000	94.386041 
3500.000000	94.385936 
3499.000000	94.384218 
3498.000000	94.380874 
3497.000000	94.376889 
3496.000000	94.373279 
3495.000000	94.370162 
3494.000000	94.367055 
3493.000000	94.363835 
3492.000000	94.360880 
3491.000000	94.358339 
3490.000000	94.355747 
3489.000000	94.352650 
3488.000000	94.349342 
3487.000000	94.346523 
3486.000000	94.344211 
3485.000000	94.341502 
3484.000000	94.337624 
3483.000000	94.333056 
3482.000000	94.329321 
3481.000000	94.327558 
3480.000000	94.327318 
3479.000000	94.326918 
3478.000000	94.324959 
3477.000000	94.321305 
3476.000000	94.316667 
3475.000000	94.311599 
3474.000000	94.306246 
3473.000000	94.300744 
3472.000000	94.295176 
3471.000000	94.289324 
3470.000000	94.283016 
3469.000000	94.276584 
3468.000000	94.270685 
3467.000000	94.265768 
3466.000000	94.261973 
3465.000000	94.259079 
3464.000000	94.256077 
3463.000000	94.251328 
3462.000000	94.243980 
3461.000000	94.235191 
3460.000000	94.227327 
3459.000000	94.221542 
3458.000000	94.216818 
3457.000000	94.211505 
3456.000000	94.205191 
3455.000000	94.198925 
3454.000000	94.193663 
3453.000000	94.189188 
3452.000000	94.184553 
3451.000000	94.179185 
3450.000000	94.173234 
3449.000000	94.167226 
3448.000000	94.161652 
3447.000000	94.156648 
3446.000000	94.151791 
3445.000000	94.146369 
3444.000000	94.140120 
3443.000000	94.133758 
3442.000000	94.128465 
3441.000000	94.124725 
3440.000000	94.121870 
3439.000000	94.118672 
3438.000000	94.114233 
3437.000000	94.108340 
3436.000000	94.101606 
3435.000000	94.095575 
3434.000000	94.091856 
3433.000000	94.090814 
3432.000000	94.091080 
3431.000000	94.090640 
3430.000000	94.088456 
3429.000000	94.084730 
3428.000000	94.079853 
3427.000000	94.073743 
3426.000000	94.066653 
3425.000000	94.060003 
3424.000000	94.055398 
3423.000000	94.052875 
3422.000000	94.050869 
3421.000000	94.048166 
3420.000000	94.045071 
3419.000000	94.042297 
3418.000000	94.039619 
3417.000000	94.036423 
3416.000000	94.032884 
3415.000000	94.029621 
3414.000000	94.026577 
3413.000000	94.023184 
3412.000000	94.019492 
3411.000000	94.016348 
3410.000000	94.014442 
3409.000000	94.013733 
3408.000000	94.013658 
3407.000000	94.013269 
3406.000000	94.011483 
3405.000000	94.007980 
3404.000000	94.003853 
3403.000000	94.000691 
3402.000000	93.998928 
3401.000000	93.997666 
3400.000000	93.996058 
3399.000000	93.994213 
3398.000000	93.992509 
3397.000000	93.990654 
3396.000000	93.988078 
3395.000000	93.985140 
3394.000000	93.983227 
3393.000000	93.983224 
3392.000000	93.984298 
3391.000000	93.984645 
3390.000000	93.983514 
3389.000000	93.981967 
3388.000000	93.981560 
3387.000000	93.982796 
3386.000000	93.984967 
3385.000000	93.986834 
3384.000000	93.987179 
3383.000000	93.985441 
3382.000000	93.982464 
3381.000000	93.980150 
3380.000000	93.979523 
3379.000000	93.979622 
3378.000000	93.979116 
3377.000000	93.978573 
3376.000000	93.979776 
3375.000000	93.982994 
3374.000000	93.986256 
3373.000000	93.987606 
3372.000000	93.987254 
3371.000000	93.986948 
3370.000000	93.987990 
3369.000000	93.990253 
3368.000000	93.992624 
3367.000000	93.993961 
3366.000000	93.993967 
3365.000000	93.993504 
3364.000000	93.993897 
3363.000000	93.995651 
3362.000000	93.998058 
3361.000000	94.000116 
3360.000000	94.001545 
3359.000000	94.002714 
3358.000000	94.003990 
3357.000000	94.005517 
3356.000000	94.007348 
3355.000000	94.009421 
3354.000000	94.011530 
3353.000000	94.013558 
3352.000000	94.015637 
3351.000000	94.017871 
3350.000000	94.020038 
3349.000000	94.021774 
3348.000000	94.023055 
3347.000000	94.024343 
3346.000000	94.026132 
3345.000000	94.028451 
3344.000000	94.030852 
3343.000000	94.032867 
3342.000000	94.034447 
3341.000000	94.035896 
3340.000000	94.037513 
3339.000000	94.039315 
3338.000000	94.041184 
3337.000000	94.043065 
3336.000000	94.044959 
3335.000000	94.046877 
3334.000000	94.048841 
3333.000000	94.050888 
3332.000000	94.053009 
3331.000000	94.055144 
3330.000000	94.057238 
3329.000000	94.059298 
3328.000000	94.061365 
3327.000000	94.063455 
3326.000000	94.065554 
3325.000000	94.067649 
3324.000000	94.069739 
3323.000000	94.071826 
3322.000000	94.073909 
3321.000000	94.075984 
3320.000000	94.078057 
3319.000000	94.080132 
3318.000000	94.082214 
3317.000000	94.084303 
3316.000000	94.086393 
3315.000000	94.088478 
3314.000000	94.090550 
3313.000000	94.092608 
3312.000000	94.094658 
3311.000000	94.096707 
3310.000000	94.098764 
3309.000000	94.100831 
3308.000000	94.102908 
3307.000000	94.104981 
3306.000000	94.107032 
3305.000000	94.109062 
3304.000000	94.111084 
3303.000000	94.113122 
3302.000000	94.115190 
3301.000000	94.117289 
3300.000000	94.119409 
3299.000000	94.121528 
3298.000000	94.123628 
3297.000000	94.125714 
3296.000000	94.127814 
3295.000000	94.129959 
3294.000000	94.132159 
3293.000000	94.134410 
3292.000000	94.136689 
3291.000000	94.138947 
3290.000000	94.141130 
3289.000000	94.143226 
3288.000000	94.145279 
3287.000000	94.147327 
3286.000000	94.149359 
3285.000000	94.151378 
3284.000000	94.153441 
3283.000000	94.155563 
3282.000000	94.157675 
3281.000000	94.159738 
3280.000000	94.161841 
3279.000000	94.164069 
3278.000000	94.166368 
3277.000000	94.168634 
3276.000000	94.170886 
3275.000000	94.173200 
3274.000000	94.175545 
3273.000000	94.177861 
3272.000000	94.180212 
3271.000000	94.182704 
3270.000000	94.185328 
3269.000000	94.187950 
3268.000000	94.190443 
3267.000000	94.192782 
3266.000000	94.195086 
3265.000000	94.197569 
3264.000000	94.200372 
3263.000000	94.203419 
3262.000000	94.206402 
3261.000000	94.209086 
3260.000000	94.211503 
3259.000000	94.213850 
3258.000000	94.216242 
3257.000000	94.218713 
3256.000000	94.221341 
3255.000000	94.224165 
3254.000000	94.227066 
3253.000000	94.229863 
3252.000000	94.232528 
3251.000000	94.235182 
3250.000000	94.237925 
3249.000000	94.240747 
3248.000000	94.243596 
3247.000000	94.246461 
3246.000000	94.249379 
3245.000000	94.252395 
3244.000000	94.255529 
3243.000000	94.258745 
3242.000000	94.261967 
3241.000000	94.265153 
3240.000000	94.268322 
3239.000000	94.271496 
3238.000000	94.274686 
3237.000000	94.277964 
3236.000000	94.281441 
3235.000000	94.285132 
3234.000000	94.288875 
3233.000000	94.292470 
3232.000000	94.295867 
3231.000000	94.299187 
3230.000000	94.302622 
3229.000000	94.306238 
3228.000000	94.309962 
3227.000000	94.313710 
3226.000000	94.317515 
3225.000000	94.321465 
3224.000000	94.325548 
3223.000000	94.329619 
3222.000000	94.333574 
3221.000000	94.337520 
3220.000000	94.341630 
3219.000000	94.345827 
3218.000000	94.349812 
3217.000000	94.353482 
3216.000000	94.357185 
3215.000000	94.361354 
3214.000000	94.365964 
3213.000000	94.370561 
3212.000000	94.374914 
3211.000000	94.379243 
3210.000000	94.383660 
3209.000000	94.387938 
3208.000000	94.392059 
3207.000000	94.396466 
3206.000000	94.401403 
3205.000000	94.406514 
3204.000000	94.411427 
3203.000000	94.416351 
3202.000000	94.421655 
3201.000000	94.427213 
3200.000000	94.432564 
3199.000000	94.437553 
3198.000000	94.442458 
3197.000000	94.447582 
3196.000000	94.452976 
3195.000000	94.458491 
3194.000000	94.463872 
3193.000000	94.468897 
3192.000000	94.473666 
3191.000000	94.478672 
3190.000000	94.484309 
3189.000000	94.490345 
3188.000000	94.496158 
3187.000000	94.501508 
3186.000000	94.506739 
3185.000000	94.512247 
3184.000000	94.517990 
3183.000000	94.523635 
3182.000000	94.529016 
3181.000000	94.534294 
3180.000000	94.539698 
3179.000000	94.545283 
3178.000000	94.551015 
3177.000000	94.556979 
3176.000000	94.563311 
3175.000000	94.569974 
3174.000000	94.576739 
3173.000000	94.583426 
3172.000000	94.589924 
3171.000000	94.596049 
3170.000000	94.601649 
3169.000000	94.606891 
3168.000000	94.612289 
3167.000000	94.618184 
3166.000000	94.624430 
3165.000000	94.630639 
3164.000000	94.636631 
3163.000000	94.642502 
3162.000000	94.648369 
3161.000000	94.654239 
3160.000000	94.660138 
3159.000000	94.666180 
3158.000000	94.672433 
3157.000000	94.678843 
3156.000000	94.685295 
3155.000000	94.691663 
3154.000000	94.697801 
3153.000000	94.703654 
3152.000000	94.709390 
3151.000000	94.715253 
3150.000000	94.721252 
3149.000000	94.727164 
3148.000000	94.732884 
3147.000000	94.738606 
3146.000000	94.744589 
3145.000000	94.750901 
3144.000000	94.757448 
3143.000000	94.764057 
3142.000000	94.770446 
3141.000000	94.776354 
3140.000000	94.781812 
3139.000000	94.787232 
3138.000000	94.792978 
3137.000000	94.798948 
3136.000000	94.804788 
3135.000000	94.810377 
3134.000000	94.815923 
3133.000000	94.821632 
3132.000000	94.827492 
3131.000000	94.833384 
3130.000000	94.839215 
3129.000000	94.844975 
3128.000000	94.850849 
3127.000000	94.857189 
3126.000000	94.864109 
3125.000000	94.871190 
3124.000000	94.877853 
3123.000000	94.883970 
3122.000000	94.889763 
3121.000000	94.895334 
3120.000000	94.900687 
3119.000000	94.906052 
3118.000000	94.911720 
3117.000000	94.917580 
3116.000000	94.923230 
3115.000000	94.928613 
3114.000000	94.934172 
3113.000000	94.940333 
3112.000000	94.947160 
3111.000000	94.954491 
3110.000000	94.961954 
3109.000000	94.968883 
3108.000000	94.974718 
3107.000000	94.979587 
3106.000000	94.984119 
3105.000000	94.988634 
3104.000000	94.993065 
3103.000000	94.997645 
3102.000000	95.002910 
3101.000000	95.008896 
3100.000000	95.014942 
3099.000000	95.020533 
3098.000000	95.025876 
3097.000000	95.031432 
3096.000000	95.037314 
3095.000000	95.043399 
3094.000000	95.049642 
3093.000000	95.055969 
3092.000000	95.062147 
3091.000000	95.067946 
3090.000000	95.073208 
3089.000000	95.077816 
3088.000000	95.081847 
3087.000000	95.085824 
3086.000000	95.090491 
3085.000000	95.096061 
3084.000000	95.101864 
3083.000000	95.107002 
3082.000000	95.111307 
3081.000000	95.115489 
3080.000000	95.120334 
3079.000000	95.125884 
3078.000000	95.131515 
3077.000000	95.136695 
3076.000000	95.141457 
3075.000000	95.146104 
3074.000000	95.150705 
3073.000000	95.155087 
3072.000000	95.159217 
3071.000000	95.163268 
3070.000000	95.167346 
3069.000000	95.171449 
3068.000000	95.175661 
3067.000000	95.180105 
3066.000000	95.184658 
3065.000000	95.188969 
3064.000000	95.192835 
3063.000000	95.196367 
3062.000000	95.199764 
3061.000000	95.203137 
3060.000000	95.206657 
3059.000000	95.210616 
3058.000000	95.215146 
3057.000000	95.220041 
3056.000000	95.224912 
3055.000000	95.229415 
3054.000000	95.233323 
3053.000000	95.236593 
3052.000000	95.239576 
3051.000000	95.242944 
3050.000000	95.247098 
3049.000000	95.251765 
3048.000000	95.256210 
3047.000000	95.259974 
3046.000000	95.263135 
3045.000000	95.265999 
3044.000000	95.268851 
3043.000000	95.272036 
3042.000000	95.275855 
3041.000000	95.280138 
3040.000000	95.284202 
3039.000000	95.287546 
3038.000000	95.290353 
3037.000000	95.293158 
3036.000000	95.296211 
3035.000000	95.299387 
3034.000000	95.302491 
3033.000000	95.305369 
3032.000000	95.307901 
3031.000000	95.310197 
3030.000000	95.312651 
3029.000000	95.315500 
3028.000000	95.318388 
3027.000000	95.320635 
3026.000000	95.322050 
3025.000000	95.323265 
3024.000000	95.325132 
3023.000000	95.327911 
3022.000000	95.331214 
3021.000000	95.334616 
3020.000000	95.338150 
3019.000000	95.342120 
3018.000000	95.346452 
3017.000000	95.350363 
3016.000000	95.352902 
3015.000000	95.354008 
3014.000000	95.354936 
3013.000000	95.357381 
3012.000000	95.361989 
3011.000000	95.367711 
3010.000000	95.372633 
3009.000000	95.375568 
3008.000000	95.376745 
3007.000000	95.377273 
3006.000000	95.378028 
3005.000000	95.379156 
3004.000000	95.380612 
3003.000000	95.382669 
3002.000000	95.385636 
3001.000000	95.389319 
3000.000000	95.393015 
2999.000000	95.395925 
2998.000000	95.397524 
2997.000000	95.397741 
2996.000000	95.397134 
2995.000000	95.396765 
2994.000000	95.397512 
2993.000000	95.399378 
2992.000000	95.401513 
2991.000000	95.402903 
2990.000000	95.403056 
2989.000000	95.402275 
2988.000000	95.401502 
2987.000000	95.401799 
2986.000000	95.403826 
2985.000000	95.407832 
2984.000000	95.413848 
2983.000000	95.421366 
2982.000000	95.428906 
2981.000000	95.434654 
2980.000000	95.437958 
2979.000000	95.439775 
2978.000000	95.441365 
2977.000000	95.443025 
2976.000000	95.444567 
2975.000000	95.446445 
2974.000000	95.449553 
2973.000000	95.454065 
2972.000000	95.459100 
2971.000000	95.463530 
2970.000000	95.466723 
2969.000000	95.468691 
2968.000000	95.470035 
2967.000000	95.471696 
2966.000000	95.474365 
2965.000000	95.478116 
2964.000000	95.482713 
2963.000000	95.487895 
2962.000000	95.493113 
2961.000000	95.497526 
2960.000000	95.500844 
2959.000000	95.503841 
2958.000000	95.507498 
2957.000000	95.511922 
2956.000000	95.516473 
2955.000000	95.520480 
2954.000000	95.523361 
2953.000000	95.524818 
2952.000000	95.525805 
2951.000000	95.528583 
2950.000000	95.534453 
2949.000000	95.541679 
2948.000000	95.547003 
2947.000000	95.549271 
2946.000000	95.550249 
2945.000000	95.552053 
2944.000000	95.554958 
2943.000000	95.558092 
2942.000000	95.560724 
2941.000000	95.562128 
2940.000000	95.561565 
2939.000000	95.559508 
2938.000000	95.558032 
2937.000000	95.558884 
2936.000000	95.561719 
2935.000000	95.564946 
2934.000000	95.567523 
2933.000000	95.569116 
2932.000000	95.569411 
2931.000000	95.568584 
2930.000000	95.568129 
2929.000000	95.569776 
2928.000000	95.573497 
2927.000000	95.577485 
2926.000000	95.580271 
2925.000000	95.582206 
2924.000000	95.584535 
2923.000000	95.587844 
2922.000000	95.591746 
2921.000000	95.595532 
2920.000000	95.598784 
2919.000000	95.601584 
2918.000000	95.604343 
2917.000000	95.607290 
2916.000000	95.610082 
2915.000000	95.612172 
2914.000000	95.613560 
2913.000000	95.614893 
2912.000000	95.616685 
2911.000000	95.618662 
2910.000000	95.620059 
2909.000000	95.620563 
2908.000000	95.620835 
2907.000000	95.622019 
2906.000000	95.624642 
2905.000000	95.628187 
2904.000000	95.631618 
2903.000000	95.634362 
2902.000000	95.636718 
2901.000000	95.639265 
2900.000000	95.642204 
2899.000000	95.645280 
2898.000000	95.648228 
2897.000000	95.651040 
2896.000000	95.653751 
2895.000000	95.656183 
2894.000000	95.658107 
2893.000000	95.659657 
2892.000000	95.661381 
2891.000000	95.663770 
2890.000000	95.666806 
2889.000000	95.670047 
2888.000000	95.673081 
2887.000000	95.675805 
2886.000000	95.678235 
2885.000000	95.680354 
2884.000000	95.682302 
2883.000000	95.684505 
2882.000000	95.687292 
2881.000000	95.690439 
2880.000000	95.693349 
2879.000000	95.695833 
2878.000000	95.698363 
2877.000000	95.701391 
2876.000000	95.704729 
2875.000000	95.707878 
2874.000000	95.710719 
2873.000000	95.713486 
2872.000000	95.716194 
2871.000000	95.718568 
2870.000000	95.720557 
2869.000000	95.722501 
2868.000000	95.724669 
2867.000000	95.726964 
2866.000000	95.729219 
2865.000000	95.731464 
2864.000000	95.733724 
2863.000000	95.735924 
2862.000000	95.738218 
2861.000000	95.741070 
2860.000000	95.744633 
2859.000000	95.748341 
2858.000000	95.751548 
2857.000000	95.754376 
2856.000000	95.757480 
2855.000000	95.761139 
2854.000000	95.764921 
2853.000000	95.768209 
2852.000000	95.770715 
2851.000000	95.772496 
2850.000000	95.773884 
2849.000000	95.775429 
2848.000000	95.777638 
2847.000000	95.780559 
2846.000000	95.783751 
2845.000000	95.786737 
2844.000000	95.789418 
2843.000000	95.792040 
2842.000000	95.794863 
2841.000000	95.797837 
2840.000000	95.800490 
2839.000000	95.802281 
2838.000000	95.803240 
2837.000000	95.804244 
2836.000000	95.806356 
2835.000000	95.809849 
2834.000000	95.814068 
2833.000000	95.818196 
2832.000000	95.821980 
2831.000000	95.825493 
2830.000000	95.828556 
2829.000000	95.830836 
2828.000000	95.832443 
2827.000000	95.834021 
2826.000000	95.836078 
2825.000000	95.838490 
2824.000000	95.840844 
2823.000000	95.842995 
2822.000000	95.845054 
2821.000000	95.846993 
2820.000000	95.848622 
2819.000000	95.849954 
2818.000000	95.851321 
2817.000000	95.853043 
2816.000000	95.855120 
2815.000000	95.857318 
2814.000000	95.859381 
2813.000000	95.861106 
2812.000000	95.862374 
2811.000000	95.863294 
2810.000000	95.864276 
2809.000000	95.865756 
2808.000000	95.867821 
2807.000000	95.870190 
2806.000000	95.872465 
2805.000000	95.874418 
2804.000000	95.876061 
2803.000000	95.877557 
2802.000000	95.879121 
2801.000000	95.880903 
2800.000000	95.882882 
2799.000000	95.884888 
2798.000000	95.886751 
2797.000000	95.888421 
2796.000000	95.889963 
2795.000000	95.891487 
2794.000000	95.893079 
2793.000000	95.894768 
2792.000000	95.896525 
2791.000000	95.898285 
2790.000000	95.899998 
2789.000000	95.901661 
2788.000000	95.903308 
2787.000000	95.904970 
2786.000000	95.906653 
2785.000000	95.908351 
2784.000000	95.910046 
2783.000000	95.911726 
2782.000000	95.913390 
2781.000000	95.915051 
2780.000000	95.916729 
2779.000000	95.918437 
2778.000000	95.920169 
2777.000000	95.921899 
2776.000000	95.923603 
2775.000000	95.925284 
2774.000000	95.926976 
2773.000000	95.928695 
2772.000000	95.930394 
2771.000000	95.931997 
2770.000000	95.933522 
2769.000000	95.935133 
2768.000000	95.936998 
2767.000000	95.939100 
2766.000000	95.941220 
2765.000000	95.943178 
2764.000000	95.945006 
2763.000000	95.946813 
2762.000000	95.948533 
2761.000000	95.949983 
2760.000000	95.951154 
2759.000000	95.952326 
2758.000000	95.953825 
2757.000000	95.955677 
2756.000000	95.957580 
2755.000000	95.959214 
2754.000000	95.960564 
2753.000000	95.961874 
2752.000000	95.963302 
2751.000000	95.964758 
2750.000000	95.966132 
2749.000000	95.967513 
2748.000000	95.969030 
2747.000000	95.970566 
2746.000000	95.971839 
2745.000000	95.972784 
2744.000000	95.973669 
2743.000000	95.974790 
2742.000000	95.976144 
2741.000000	95.977505 
2740.000000	95.978733 
2739.000000	95.979894 
2738.000000	95.981101 
2737.000000	95.982364 
2736.000000	95.983616 
2735.000000	95.984828 
2734.000000	95.986054 
2733.000000	95.987355 
2732.000000	95.988716 
2731.000000	95.990057 
2730.000000	95.991336 
2729.000000	95.992600 
2728.000000	95.993928 
2727.000000	95.995305 
2726.000000	95.996598 
2725.000000	95.997682 
2724.000000	95.998573 
2723.000000	95.999412 
2722.000000	96.000343 
2721.000000	96.001419 
2720.000000	96.002640 
2719.000000	96.003992 
2718.000000	96.005414 
2717.000000	96.006760 
2716.000000	96.007884 
2715.000000	96.008791 
2714.000000	96.009673 
2713.000000	96.010683 
2712.000000	96.011732 
2711.000000	96.012646 
2710.000000	96.013454 
2709.000000	96.014380 
2708.000000	96.015524 
2707.000000	96.016762 
2706.000000	96.018009 
2705.000000	96.019357 
2704.000000	96.020779 
2703.000000	96.021930 
2702.000000	96.022568 
2701.000000	96.023099 
2700.000000	96.024340 
2699.000000	96.026650 
2698.000000	96.029437 
2697.000000	96.031616 
2696.000000	96.032548 
2695.000000	96.032388 
2694.000000	96.031815 
2693.000000	96.031505 
2692.000000	96.031778 
2691.000000	96.032560 
2690.000000	96.033542 
2689.000000	96.034339 
2688.000000	96.034594 
2687.000000	96.034145 
2686.000000	96.033302 
2685.000000	96.032825 
2684.000000	96.033325 
2683.000000	96.034595 
2682.000000	96.035799 
2681.000000	96.036377 
2680.000000	96.036467 
2679.000000	96.036453 
2678.000000	96.036562 
2677.000000	96.037064 
2676.000000	96.038268 
2675.000000	96.039836 
2674.000000	96.040604 
2673.000000	96.039815 
2672.000000	96.038261 
2671.000000	96.037461 
2670.000000	96.037730 
2669.000000	96.037921 
2668.000000	96.037164 
2667.000000	96.035976 
2666.000000	96.035242 
2665.000000	96.034777 
2664.000000	96.033702 
2663.000000	96.031894 
2662.000000	96.030224 
2661.000000	96.029337 
2660.000000	96.028821 
2659.000000	96.027889 
2658.000000	96.026466 
2657.000000	96.025229 
2656.000000	96.024751 
2655.000000	96.024948 
2654.000000	96.025283 
2653.000000	96.025273 
2652.000000	96.024808 
2651.000000	96.024168 
2650.000000	96.023811 
2649.000000	96.024036 
2648.000000	96.024747 
2647.000000	96.025485 
2646.000000	96.025706 
2645.000000	96.025161 
2644.000000	96.024045 
2643.000000	96.022913 
2642.000000	96.022315 
2641.000000	96.022379 
2640.000000	96.022838 
2639.000000	96.023335 
2638.000000	96.023681 
2637.000000	96.023842 
2636.000000	96.023845 
2635.000000	96.023769 
2634.000000	96.023731 
2633.000000	96.023772 
2632.000000	96.023785 
2631.000000	96.023660 
2630.000000	96.023431 
2629.000000	96.023227 
2628.000000	96.023135 
2627.000000	96.023143 
2626.000000	96.023226 
2625.000000	96.023388 
2624.000000	96.023618 
2623.000000	96.023865 
2622.000000	96.024074 
2621.000000	96.024230 
2620.000000	96.024341 
2619.000000	96.024426 
2618.000000	96.024514 
2617.000000	96.024627 
2616.000000	96.024773 
2615.000000	96.024942 
2614.000000	96.025125 
2613.000000	96.025306 
2612.000000	96.025473 
2611.000000	96.025626 
2610.000000	96.025766 
2609.000000	96.025898 
2608.000000	96.026023 
2607.000000	96.026140 
2606.000000	96.026247 
2605.000000	96.026336 
2604.000000	96.026398 
2603.000000	96.026432 
2602.000000	96.026441 
2601.000000	96.026436 
2600.000000	96.026426 
2599.000000	96.026417 
2598.000000	96.026401 
2597.000000	96.026372 
2596.000000	96.026327 
2595.000000	96.026273 
2594.000000	96.026222 
2593.000000	96.026184 
2592.000000	96.026165 
2591.000000	96.026173 
2590.000000	96.026208 
2589.000000	96.026264 
2588.000000	96.026327 
2587.000000	96.026399 
2586.000000	96.026505 
2585.000000	96.026658 
2584.000000	96.026843 
2583.000000	96.027032 
2582.000000	96.027205 
2581.000000	96.027337 
2580.000000	96.027407 
2579.000000	96.027431 
2578.000000	96.027499 
2577.000000	96.027717 
2576.000000	96.028110 
2575.000000	96.028566 
2574.000000	96.028895 
2573.000000	96.029003 
2572.000000	96.028979 
2571.000000	96.029013 
2570.000000	96.029164 
2569.000000	96.029329 
2568.000000	96.029426 
2567.000000	96.029532 
2566.000000	96.029757 
2565.000000	96.030063 
2564.000000	96.030351 
2563.000000	96.030632 
2562.000000	96.031014 
2561.000000	96.031593 
2560.000000	96.032435 
2559.000000	96.033532 
2558.000000	96.034687 
2557.000000	96.035582 
2556.000000	96.036077 
2555.000000	96.036312 
2554.000000	96.036593 
2553.000000	96.037100 
2552.000000	96.037752 
2551.000000	96.038396 
2550.000000	96.039014 
2549.000000	96.039608 
2548.000000	96.040040 
2547.000000	96.040239 
2546.000000	96.040453 
2545.000000	96.041029 
2544.000000	96.041934 
2543.000000	96.042704 
2542.000000	96.042955 
2541.000000	96.042763 
2540.000000	96.042593 
2539.000000	96.042866 
2538.000000	96.043635 
2537.000000	96.044625 
2536.000000	96.045479 
2535.000000	96.046028 
2534.000000	96.046326 
2533.000000	96.046501 
2532.000000	96.046680 
2531.000000	96.047008 
2530.000000	96.047591 
2529.000000	96.048311 
2528.000000	96.048856 
2527.000000	96.049027 
2526.000000	96.048972 
2525.000000	96.049033 
2524.000000	96.049420 
2523.000000	96.050133 
2522.000000	96.051051 
2521.000000	96.051961 
2520.000000	96.052605 
2519.000000	96.052869 
2518.000000	96.052883 
2517.000000	96.052742 
2516.000000	96.052248 
2515.000000	96.051253 
2514.000000	96.050330 
2513.000000	96.050475 
2512.000000	96.051980 
2511.000000	96.054163 
2510.000000	96.056160 
2509.000000	96.057731 
2508.000000	96.058953 
2507.000000	96.059725 
2506.000000	96.060028 
2505.000000	96.060326 
2504.000000	96.061188 
2503.000000	96.062568 
2502.000000	96.063777 
2501.000000	96.064324 
2500.000000	96.064408 
2499.000000	96.064571 
2498.000000	96.065054 
2497.000000	96.065709 
2496.000000	96.066372 
2495.000000	96.067000 
2494.000000	96.067521 
2493.000000	96.067833 
2492.000000	96.068013 
2491.000000	96.068345 
2490.000000	96.069014 
2489.000000	96.069900 
2488.000000	96.070662 
2487.000000	96.071093 
2486.000000	96.071276 
2485.000000	96.071430 
2484.000000	96.071662 
2483.000000	96.071906 
2482.000000	96.072075 
2481.000000	96.072172 
2480.000000	96.072255 
2479.000000	96.072389 
2478.000000	96.072648 
2477.000000	96.073094 
2476.000000	96.073649 
2475.000000	96.074060 
2474.000000	96.074135 
2473.000000	96.073958 
2472.000000	96.073817 
2471.000000	96.073865 
2470.000000	96.073986 
2469.000000	96.073982 
2468.000000	96.073806 
2467.000000	96.073548 
2466.000000	96.073256 
2465.000000	96.072925 
2464.000000	96.072721 
2463.000000	96.073063 
2462.000000	96.074263 
2461.000000	96.075985 
2460.000000	96.077283 
2459.000000	96.077470 
2458.000000	96.076731 
2457.000000	96.075782 
2456.000000	96.074866 
2455.000000	96.073669 
2454.000000	96.072226 
2453.000000	96.071194 
2452.000000	96.070989 
2451.000000	96.071241 
2450.000000	96.071463 
2449.000000	96.071670 
2448.000000	96.071877 
2447.000000	96.071630 
2446.000000	96.070703 
2445.000000	96.069673 
2444.000000	96.069101 
2443.000000	96.068777 
2442.000000	96.068631 
2441.000000	96.069451 
2440.000000	96.071725 
2439.000000	96.074600 
2438.000000	96.076995 
2437.000000	96.079182 
2436.000000	96.081980 
2435.000000	96.084909 
2434.000000	96.086505 
2433.000000	96.086282 
2432.000000	96.085286 
2431.000000	96.084872 
2430.000000	96.085668 
2429.000000	96.087689 
2428.000000	96.090485 
2427.000000	96.092957 
2426.000000	96.093863 
2425.000000	96.092987 
2424.000000	96.091763 
2423.000000	96.091522 
2422.000000	96.091583 
2421.000000	96.090830 
2420.000000	96.090006 
2419.000000	96.090762 
2418.000000	96.093292 
2417.000000	96.096513 
2416.000000	96.100006 
2415.000000	96.103955 
2414.000000	96.107692 
2413.000000	96.110014 
2412.000000	96.110754 
2411.000000	96.110617 
2410.000000	96.110089 
2409.000000	96.109754 
2408.000000	96.110765 
2407.000000	96.113663 
2406.000000	96.117245 
2405.000000	96.119735 
2404.000000	96.120742 
2403.000000	96.121140 
2402.000000	96.121622 
2401.000000	96.122466 
2400.000000	96.124173 
2399.000000	96.127185 
2398.000000	96.131246 
2397.000000	96.135881 
2396.000000	96.140922 
2395.000000	96.145664 
2394.000000	96.148400 
2393.000000	96.148250 
2392.000000	96.146900 
2391.000000	96.146891 
2390.000000	96.148336 
2389.000000	96.148773 
2388.000000	96.146275 
2387.000000	96.141299 
2386.000000	96.135577 
2385.000000	96.130843 
2384.000000	96.128897 
2383.000000	96.131404 
2382.000000	96.139221 
2381.000000	96.152506 
2380.000000	96.171352 
2379.000000	96.194819 
2378.000000	96.218819 
2377.000000	96.236654 
2376.000000	96.243113 
2375.000000	96.237609 
2374.000000	96.223357 
2373.000000	96.204946 
2372.000000	96.187542 
2371.000000	96.176661 
2370.000000	96.175825 
2369.000000	96.183691 
2368.000000	96.194082 
2367.000000	96.200204 
2366.000000	96.199798 
2365.000000	96.196337 
2364.000000	96.194728 
2363.000000	96.195813 
2362.000000	96.197505 
2361.000000	96.198670 
2360.000000	96.198225 
2359.000000	96.195425 
2358.000000	96.191357 
2357.000000	96.190532 
2356.000000	96.196320 
2355.000000	96.206280 
2354.000000	96.216963 
2353.000000	96.224289 
2352.000000	96.225904 
2351.000000	96.220099 
2350.000000	96.205657 
2349.000000	96.186582 
2348.000000	96.170790 
2347.000000	96.165968 
2346.000000	96.167290 
2345.000000	96.162829 
2344.000000	96.149954 
2343.000000	96.135944 
2342.000000	96.132341 
2341.000000	96.141242 
2340.000000	96.156011 
2339.000000	96.167123 
2338.000000	96.171541 
2337.000000	96.171934 
2336.000000	96.170622 
2335.000000	96.167628 
2334.000000	96.163353 
2333.000000	96.157322 
2332.000000	96.147189 
2331.000000	96.131990 
2330.000000	96.111112 
2329.000000	96.087619 
2328.000000	96.060304 
2327.000000	96.033663 
2326.000000	96.011600 
2325.000000	95.997962 
2324.000000	95.993428 
2323.000000	95.995731 
2322.000000	96.002303 
2321.000000	96.007360 
2320.000000	96.008323 
2319.000000	96.007265 
2318.000000	96.008471 
2317.000000	96.014067 
2316.000000	96.022068 
2315.000000	96.030593 
2314.000000	96.035027 
2313.000000	96.032426 
2312.000000	96.021572 
2311.000000	96.008647 
2310.000000	95.998307 
2309.000000	95.991469 
2308.000000	95.984672 
2307.000000	95.978868 
2306.000000	95.976105 
2305.000000	95.975706 
2304.000000	95.972929 
2303.000000	95.966651 
2302.000000	95.960543 
2301.000000	95.959448 
2300.000000	95.963233 
2299.000000	95.969523 
2298.000000	95.974680 
2297.000000	95.977530 
2296.000000	95.977738 
2295.000000	95.977600 
2294.000000	95.978435 
2293.000000	95.980125 
2292.000000	95.980593 
2291.000000	95.979528 
2290.000000	95.978613 
2289.000000	95.979736 
2288.000000	95.982960 
2287.000000	95.986954 
2286.000000	95.990583 
2285.000000	95.993462 
2284.000000	95.996143 
2283.000000	95.999078 
2282.000000	96.002082 
2281.000000	96.004113 
2280.000000	96.004460 
2279.000000	96.003243 
2278.000000	96.001607 
2277.000000	96.001142 
2276.000000	96.002885 
2275.000000	96.006296 
2274.000000	96.009608 
2273.000000	96.012221 
2272.000000	96.015728 
2271.000000	96.021440 
2270.000000	96.027286 
2269.000000	96.029647 
2268.000000	96.028053 
2267.000000	96.025913 
2266.000000	96.026180 
2265.000000	96.028347 
2264.000000	96.030215 
2263.000000	96.030442 
2262.000000	96.028252 
2261.000000	96.023141 
2260.000000	96.016556 
2259.000000	96.011870 
2258.000000	96.011256 
2257.000000	96.013829 
2256.000000	96.017997 
2255.000000	96.023654 
2254.000000	96.030418 
2253.000000	96.035398 
2252.000000	96.035637 
2251.000000	96.031574 
2250.000000	96.025984 
2249.000000	96.020756 
2248.000000	96.016195 
2247.000000	96.012820 
2246.000000	96.011233 
2245.000000	96.010279 
2244.000000	96.007952 
2243.000000	96.004251 
2242.000000	96.001386 
2241.000000	96.001021 
2240.000000	96.002748 
2239.000000	96.005148 
2238.000000	96.007033 
2237.000000	96.007725 
2236.000000	96.007154 
2235.000000	96.005905 
2234.000000	96.004701 
2233.000000	96.003800 
2232.000000	96.003157 
2231.000000	96.002777 
2230.000000	96.002492 
2229.000000	96.001813 
2228.000000	96.000508 
2227.000000	95.998971 
2226.000000	95.997689 
2225.000000	95.996641 
2224.000000	95.995553 
2223.000000	95.994413 
2222.000000	95.993421 
2221.000000	95.992620 
2220.000000	95.991883 
2219.000000	95.991139 
2218.000000	95.990398 
2217.000000	95.989659 
2216.000000	95.988920 
2215.000000	95.988183 
2214.000000	95.987457 
2213.000000	95.986766 
2212.000000	95.986146 
2211.000000	95.985630 
2210.000000	95.985227 
2209.000000	95.984909 
2208.000000	95.984620 
2207.000000	95.984309 
2206.000000	95.983956 
2205.000000	95.983563 
2204.000000	95.983135 
2203.000000	95.982673 
2202.000000	95.982181 
2201.000000	95.981664 
2200.000000	95.981131 
2199.000000	95.980606 
2198.000000	95.980133 
2197.000000	95.979612 
2196.000000	95.979001 
2195.000000	95.978329 
2194.000000	95.977615 
2193.000000	95.976980 
2192.000000	95.976870 
2191.000000	95.977783 
2190.000000	95.979499 
2189.000000	95.980938 
2188.000000	95.981342 
2187.000000	95.981112 
2186.000000	95.980910 
2185.000000	95.980432 
2184.000000	95.979343 
2183.000000	95.979097 
2182.000000	95.981908 
2181.000000	95.987452 
2180.000000	95.991966 
2179.000000	95.992286 
2178.000000	95.989429 
2177.000000	95.987543 
2176.000000	95.989341 
2175.000000	95.993712 
2174.000000	95.997509 
2173.000000	95.998976 
2172.000000	95.999389 
2171.000000	96.001557 
2170.000000	96.006402 
2169.000000	96.011009 
2168.000000	96.011225 
2167.000000	96.006598 
2166.000000	96.001049 
2165.000000	95.997426 
2164.000000	95.993350 
2163.000000	95.985461 
2162.000000	95.977112 
2161.000000	95.977504 
2160.000000	95.991981 
2159.000000	96.016396 
2158.000000	96.041066 
2157.000000	96.059858 
2156.000000	96.072555 
2155.000000	96.080137 
2154.000000	96.082454 
2153.000000	96.080809 
2152.000000	96.079358 
2151.000000	96.081152 
2150.000000	96.084103 
2149.000000	96.083814 
2148.000000	96.080382 
2147.000000	96.079401 
2146.000000	96.085022 
2145.000000	96.094759 
2144.000000	96.103113 
2143.000000	96.108195 
2142.000000	96.111842 
2141.000000	96.115008 
2140.000000	96.116889 
2139.000000	96.118570 
2138.000000	96.123892 
2137.000000	96.134977 
2136.000000	96.148585 
2135.000000	96.158488 
2134.000000	96.160676 
2133.000000	96.155981 
2132.000000	96.149040 
2131.000000	96.144625 
2130.000000	96.144377 
2129.000000	96.146576 
2128.000000	96.148926 
2127.000000	96.151082 
2126.000000	96.154012 
2125.000000	96.157791 
2124.000000	96.161288 
2123.000000	96.163528 
2122.000000	96.164142 
2121.000000	96.162851 
2120.000000	96.159557 
2119.000000	96.154853 
2118.000000	96.149787 
2117.000000	96.145389 
2116.000000	96.142277 
2115.000000	96.140032 
2114.000000	96.136739 
2113.000000	96.130548 
2112.000000	96.122907 
2111.000000	96.118581 
2110.000000	96.120572 
2109.000000	96.126315 
2108.000000	96.130495 
2107.000000	96.130898 
2106.000000	96.129511 
2105.000000	96.128850 
2104.000000	96.129767 
2103.000000	96.132097 
2102.000000	96.134552 
2101.000000	96.134279 
2100.000000	96.129429 
2099.000000	96.122716 
2098.000000	96.120103 
2097.000000	96.124719 
2096.000000	96.134081 
2095.000000	96.143071 
2094.000000	96.148390 
2093.000000	96.149778 
2092.000000	96.148598 
2091.000000	96.146790 
2090.000000	96.146065 
2089.000000	96.146669 
2088.000000	96.147166 
2087.000000	96.145977 
2086.000000	96.142859 
2085.000000	96.138824 
2084.000000	96.135173 
2083.000000	96.132694 
2082.000000	96.131371 
2081.000000	96.130714 
2080.000000	96.130777 
2079.000000	96.132549 
2078.000000	96.136545 
2077.000000	96.141116 
2076.000000	96.143507 
2075.000000	96.142869 
2074.000000	96.140903 
2073.000000	96.139146 
2072.000000	96.136859 
2071.000000	96.132777 
2070.000000	96.127672 
2069.000000	96.123855 
2068.000000	96.122674 
2067.000000	96.123542 
2066.000000	96.125001 
2065.000000	96.125796 
2064.000000	96.125119 
2063.000000	96.122735 
2062.000000	96.119436 
2061.000000	96.117001 
2060.000000	96.117013 
2059.000000	96.119693 
2058.000000	96.123696 
2057.000000	96.126909 
2056.000000	96.127862 
2055.000000	96.126372 
2054.000000	96.123388 
2053.000000	96.120499 
2052.000000	96.119106 
2051.000000	96.119592 
2050.000000	96.121198 
2049.000000	96.122733 
2048.000000	96.123686 
2047.000000	96.124649 
2046.000000	96.126487 
2045.000000	96.129318 
2044.000000	96.132377 
2043.000000	96.134680 
2042.000000	96.135753 
2041.000000	96.135894 
2040.000000	96.136014 
2039.000000	96.137070 
2038.000000	96.139414 
2037.000000	96.142422 
2036.000000	96.144823 
2035.000000	96.145697 
2034.000000	96.145390 
2033.000000	96.145472 
2032.000000	96.147438 
2031.000000	96.151163 
2030.000000	96.154656 
2029.000000	96.155807 
2028.000000	96.154365 
2027.000000	96.151856 
2026.000000	96.149679 
2025.000000	96.148385 
2024.000000	96.148752 
2023.000000	96.152160 
2022.000000	96.159016 
2021.000000	96.167178 
2020.000000	96.173126 
2019.000000	96.174786 
2018.000000	96.172524 
2017.000000	96.168373 
2016.000000	96.164804 
2015.000000	96.163107 
2014.000000	96.161864 
2013.000000	96.157760 
2012.000000	96.149619 
2011.000000	96.141409 
2010.000000	96.139184 
2009.000000	96.145099 
2008.000000	96.155709 
2007.000000	96.165793 
2006.000000	96.172928 
2005.000000	96.177340 
2004.000000	96.179578 
2003.000000	96.180061 
2002.000000	96.179691 
2001.000000	96.178765 
2000.000000	96.175841 
1999.000000	96.168701 
1998.000000	96.156875 
1997.000000	96.143334 
1996.000000	96.133185 
1995.000000	96.129953 
1994.000000	96.133003 
1993.000000	96.138060 
1992.000000	96.140677 
1991.000000	96.140164 
1990.000000	96.139655 
1989.000000	96.142322 
1988.000000	96.147775 
1987.000000	96.151891 
1986.000000	96.150310 
1985.000000	96.142603 
1984.000000	96.133095 
1983.000000	96.126934 
1982.000000	96.125473 
1981.000000	96.126369 
1980.000000	96.127947 
1979.000000	96.131214 
1978.000000	96.136675 
1977.000000	96.141765 
1976.000000	96.143681 
1975.000000	96.143434 
1974.000000	96.144661 
1973.000000	96.149491 
1972.000000	96.157031 
1971.000000	96.164887 
1970.000000	96.170586 
1969.000000	96.172210 
1968.000000	96.169365 
1967.000000	96.164104 
1966.000000	96.160102 
1965.000000	96.159856 
1964.000000	96.163379 
1963.000000	96.169141 
1962.000000	96.175200 
1961.000000	96.179831 
1960.000000	96.182006 
1959.000000	96.181889 
1958.000000	96.180932 
1957.000000	96.180961 
1956.000000	96.182673 
1955.000000	96.185158 
1954.000000	96.187043 
1953.000000	96.188029 
1952.000000	96.188702 
1951.000000	96.189373 
1950.000000	96.189971 
1949.000000	96.190988 
1948.000000	96.193566 
1947.000000	96.197856 
1946.000000	96.201920 
1945.000000	96.203396 
1944.000000	96.201889 
1943.000000	96.199090 
1942.000000	96.196893 
1941.000000	96.195796 
1940.000000	96.195484 
1939.000000	96.195543 
1938.000000	96.195516 
1937.000000	96.195278 
1936.000000	96.195344 
1935.000000	96.196110 
1934.000000	96.197022 
1933.000000	96.197405 
1932.000000	96.197739 
1931.000000	96.199223 
1930.000000	96.201783 
1929.000000	96.203559 
1928.000000	96.203453 
1927.000000	96.202246 
1926.000000	96.201413 
1925.000000	96.201276 
1924.000000	96.201237 
1923.000000	96.201036 
1922.000000	96.200319 
1921.000000	96.198494 
1920.000000	96.195852 
1919.000000	96.193665 
1918.000000	96.192534 
1917.000000	96.191323 
1916.000000	96.189180 
1915.000000	96.187039 
1914.000000	96.185812 
1913.000000	96.184846 
1912.000000	96.182850 
1911.000000	96.179868 
1910.000000	96.177230 
1909.000000	96.175946 
1908.000000	96.176122 
1907.000000	96.177006 
1906.000000	96.177375 
1905.000000	96.175951 
1904.000000	96.172478 
1903.000000	96.168505 
1902.000000	96.165738 
1901.000000	96.164090 
1900.000000	96.162497 
1899.000000	96.160676 
1898.000000	96.159256 
1897.000000	96.158350 
1896.000000	96.157278 
1895.000000	96.155730 
1894.000000	96.153634 
1893.000000	96.150488 
1892.000000	96.146407 
1891.000000	96.143206 
1890.000000	96.142691 
1889.000000	96.143919 
1888.000000	96.144094 
1887.000000	96.142631 
1886.000000	96.141242 
1885.000000	96.140518 
1884.000000	96.138985 
1883.000000	96.136022 
1882.000000	96.133293 
1881.000000	96.132381 
1880.000000	96.132856 
1879.000000	96.132874 
1878.000000	96.131491 
1877.000000	96.129878 
1876.000000	96.129694 
1875.000000	96.131216 
1874.000000	96.133202 
1873.000000	96.134119 
1872.000000	96.133729 
1871.000000	96.133112 
1870.000000	96.133176 
1869.000000	96.133669 
1868.000000	96.134287 
1867.000000	96.135976 
1866.000000	96.138974 
1865.000000	96.141403 
1864.000000	96.141730 
1863.000000	96.140959 
1862.000000	96.141192 
1861.000000	96.142885 
1860.000000	96.145083 
1859.000000	96.147592 
1858.000000	96.151102 
1857.000000	96.155695 
1856.000000	96.160641 
1855.000000	96.165095 
1854.000000	96.168048 
1853.000000	96.168413 
1852.000000	96.166984 
1851.000000	96.166288 
1850.000000	96.167808 
1849.000000	96.170785 
1848.000000	96.173696 
1847.000000	96.176305 
1846.000000	96.179294 
1845.000000	96.182704 
1844.000000	96.185530 
1843.000000	96.187328 
1842.000000	96.188800 
1841.000000	96.190417 
1840.000000	96.192287 
1839.000000	96.194463 
1838.000000	96.196700 
1837.000000	96.198195 
1836.000000	96.198486 
1835.000000	96.198433 
1834.000000	96.199245 
1833.000000	96.200967 
1832.000000	96.202774 
1831.000000	96.203941 
1830.000000	96.204481 
1829.000000	96.204995 
1828.000000	96.206011 
1827.000000	96.207802 
1826.000000	96.210430 
1825.000000	96.213419 
1824.000000	96.215547 
1823.000000	96.216201 
1822.000000	96.216014 
1821.000000	96.215792 
1820.000000	96.215842 
1819.000000	96.216491 
1818.000000	96.218566 
1817.000000	96.221761 
1816.000000	96.223861 
1815.000000	96.223669 
1814.000000	96.222718 
1813.000000	96.223486 
1812.000000	96.225810 
1811.000000	96.227018 
1810.000000	96.225881 
1809.000000	96.223630 
1808.000000	96.221964 
1807.000000	96.221403 
1806.000000	96.221323 
1805.000000	96.220769 
1804.000000	96.219522 
1803.000000	96.218701 
1802.000000	96.218993 
1801.000000	96.219601 
1800.000000	96.218865 
1799.000000	96.216864 
1798.000000	96.215964 
1797.000000	96.217315 
1796.000000	96.219807 
1795.000000	96.222164 
1794.000000	96.224297 
1793.000000	96.226658 
1792.000000	96.228970 
1791.000000	96.230773 
1790.000000	96.232052 
1789.000000	96.232673 
1788.000000	96.233054 
1787.000000	96.234327 
1786.000000	96.237125 
1785.000000	96.240186 
1784.000000	96.241583 
1783.000000	96.241568 
1782.000000	96.241632 
1781.000000	96.242945 
1780.000000	96.245282 
1779.000000	96.247615 
1778.000000	96.249742 
1777.000000	96.251970 
1776.000000	96.254483 
1775.000000	96.256827 
1774.000000	96.258362 
1773.000000	96.259054 
1772.000000	96.259525 
1771.000000	96.260538 
1770.000000	96.262507 
1769.000000	96.265235 
1768.000000	96.268210 
1767.000000	96.270717 
1766.000000	96.272403 
1765.000000	96.273658 
1764.000000	96.275025 
1763.000000	96.276743 
1762.000000	96.278664 
1761.000000	96.280591 
1760.000000	96.282411 
1759.000000	96.284145 
1758.000000	96.285841 
1757.000000	96.287471 
1756.000000	96.288914 
1755.000000	96.289542 
1754.000000	96.288925 
1753.000000	96.287527 
1752.000000	96.286914 
1751.000000	96.288063 
1750.000000	96.290026 
1749.000000	96.291074 
1748.000000	96.290919 
1747.000000	96.290325 
1746.000000	96.289446 
1745.000000	96.289140 
1744.000000	96.290677 
1743.000000	96.293791 
1742.000000	96.296366 
1741.000000	96.296483 
1740.000000	96.294145 
1739.000000	96.291802 
1738.000000	96.291919 
1737.000000	96.293609 
1736.000000	96.294133 
1735.000000	96.292499 
1734.000000	96.288221 
1733.000000	96.281366 
1732.000000	96.276857 
1731.000000	96.277978 
1730.000000	96.283173 
1729.000000	96.287424 
1728.000000	96.286733 
1727.000000	96.281608 
1726.000000	96.275263 
1725.000000	96.271140 
1724.000000	96.269049 
1723.000000	96.266998 
1722.000000	96.264849 
1721.000000	96.262438 
1720.000000	96.258013 
1719.000000	96.250253 
1718.000000	96.241368 
1717.000000	96.233480 
1716.000000	96.226075 
1715.000000	96.220366 
1714.000000	96.217388 
1713.000000	96.214000 
1712.000000	96.206879 
1711.000000	96.198147 
1710.000000	96.191540 
1709.000000	96.186348 
1708.000000	96.178965 
1707.000000	96.168385 
1706.000000	96.158461 
1705.000000	96.151964 
1704.000000	96.147025 
1703.000000	96.141102 
1702.000000	96.134208 
1701.000000	96.127077 
1700.000000	96.114997 
1699.000000	96.097490 
1698.000000	96.084006 
1697.000000	96.075977 
1696.000000	96.069628 
1695.000000	96.061153 
1694.000000	96.051233 
1693.000000	96.041636 
1692.000000	96.030581 
1691.000000	96.017777 
1690.000000	96.005469 
1689.000000	95.995415 
1688.000000	95.987259 
1687.000000	95.977839 
1686.000000	95.965293 
1685.000000	95.950261 
1684.000000	95.934971 
1683.000000	95.922857 
1682.000000	95.914303 
1681.000000	95.905813 
1680.000000	95.898082 
1679.000000	95.891997 
1678.000000	95.885589 
1677.000000	95.876738 
1676.000000	95.865733 
1675.000000	95.852544 
1674.000000	95.834834 
1673.000000	95.815289 
1672.000000	95.797702 
1671.000000	95.783750 
1670.000000	95.772458 
1669.000000	95.760079 
1668.000000	95.748250 
1667.000000	95.739985 
1666.000000	95.733413 
1665.000000	95.725348 
1664.000000	95.715214 
1663.000000	95.705954 
1662.000000	95.696474 
1661.000000	95.683211 
1660.000000	95.668007 
1659.000000	95.653412 
1658.000000	95.639818 
1657.000000	95.629006 
1656.000000	95.622574 
1655.000000	95.618542 
1654.000000	95.614346 
1653.000000	95.591763 
1652.000000	95.544577 
1651.000000	95.516248 
1650.000000	95.511176 
1649.000000	95.509869 
1648.000000	95.505310 
1647.000000	95.502152 
1646.000000	95.500756 
1645.000000	95.496976 
1644.000000	95.491763 
1643.000000	95.489319 
1642.000000	95.488118 
1641.000000	95.484481 
1640.000000	95.479788 
1639.000000	95.476882 
1638.000000	95.476580 
1637.000000	95.476896 
1636.000000	95.476269 
1635.000000	95.472059 
1634.000000	95.468620 
1633.000000	95.471736 
1632.000000	95.478011 
1631.000000	95.485396 
1630.000000	95.492873 
1629.000000	95.499203 
1628.000000	95.506541 
1627.000000	95.520597 
1626.000000	95.539951 
1625.000000	95.556891 
1624.000000	95.568122 
1623.000000	95.578716 
1622.000000	95.593062 
1621.000000	95.610290 
1620.000000	95.628571 
1619.000000	95.645104 
1618.000000	95.656715 
1617.000000	95.658487 
1616.000000	95.655161 
1615.000000	95.662498 
1614.000000	95.682758 
1613.000000	95.703996 
1612.000000	95.720201 
1611.000000	95.734857 
1610.000000	95.750684 
1609.000000	95.767461 
1608.000000	95.786561 
1607.000000	95.808228 
1606.000000	95.826160 
1605.000000	95.837527 
1604.000000	95.849435 
1603.000000	95.866954 
1602.000000	95.886831 
1601.000000	95.903890 
1600.000000	95.918109 
1599.000000	95.930870 
1598.000000	95.940642 
1597.000000	95.946996 
1596.000000	95.953202 
1595.000000	95.962330 
1594.000000	95.973080 
1593.000000	95.983264 
1592.000000	95.994559 
1591.000000	96.009274 
1590.000000	96.024947 
1589.000000	96.037500 
1588.000000	96.047419 
1587.000000	96.058161 
1586.000000	96.069211 
1585.000000	96.076159 
1584.000000	96.080704 
1583.000000	96.087059 
1582.000000	96.093468 
1581.000000	96.097581 
1580.000000	96.102627 
1579.000000	96.110259 
1578.000000	96.116636 
1577.000000	96.119434 
1576.000000	96.120736 
1575.000000	96.126328 
1574.000000	96.138656 
1573.000000	96.153336 
1572.000000	96.166711 
1571.000000	96.178815 
1570.000000	96.187151 
1569.000000	96.188132 
1568.000000	96.188279 
1567.000000	96.192218 
1566.000000	96.196273 
1565.000000	96.197936 
1564.000000	96.201146 
1563.000000	96.207946 
1562.000000	96.212194 
1561.000000	96.208160 
1560.000000	96.204434 
1559.000000	96.209105 
1558.000000	96.210640 
1557.000000	96.209202 
1556.000000	96.212553 
1555.000000	96.222378 
1554.000000	96.228965 
1553.000000	96.227433 
1552.000000	96.222076 
1551.000000	96.218647 
1550.000000	96.219378 
1549.000000	96.220001 
1548.000000	96.216596 
1547.000000	96.211331 
1546.000000	96.206808 
1545.000000	96.204262 
1544.000000	96.203205 
1543.000000	96.200636 
1542.000000	96.194949 
1541.000000	96.186615 
1540.000000	96.175774 
1539.000000	96.164461 
1538.000000	96.156788 
1537.000000	96.153209 
1536.000000	96.150454 
1535.000000	96.147511 
1534.000000	96.146148 
1533.000000	96.146429 
1532.000000	96.144629 
1531.000000	96.138554 
1530.000000	96.130342 
1529.000000	96.122615 
1528.000000	96.116413 
1527.000000	96.111705 
1526.000000	96.107364 
1525.000000	96.102083 
1524.000000	96.095658 
1523.000000	96.088864 
1522.000000	96.082782 
1521.000000	96.077209 
1520.000000	96.070863 
1519.000000	96.063651 
1518.000000	96.056439 
1517.000000	96.049868 
1516.000000	96.043724 
1515.000000	96.037451 
1514.000000	96.030846 
1513.000000	96.024007 
1512.000000	96.017043 
1511.000000	96.010041 
1510.000000	96.003000 
1509.000000	95.995903 
1508.000000	95.988764 
1507.000000	95.981582 
1506.000000	95.974333 
1505.000000	95.966999 
1504.000000	95.959597 
1503.000000	95.952149 
1502.000000	95.944663 
1501.000000	95.937145 
1500.000000	95.929598 
1499.000000	95.922025 
1498.000000	95.914427 
1497.000000	95.906795 
1496.000000	95.899105 
1495.000000	95.891335 
1494.000000	95.883476 
1493.000000	95.875544 
1492.000000	95.867574 
1491.000000	95.859626 
1490.000000	95.851867 
1489.000000	95.844361 
1488.000000	95.836683 
1487.000000	95.828502 
1486.000000	95.820055 
1485.000000	95.811330 
1484.000000	95.802227 
1483.000000	95.793063 
1482.000000	95.784526 
1481.000000	95.776859 
1480.000000	95.769126 
1479.000000	95.760474 
1478.000000	95.751338 
1477.000000	95.742676 
1476.000000	95.734046 
1475.000000	95.724510 
1474.000000	95.714412 
1473.000000	95.706391 
1472.000000	95.701353 
1471.000000	95.695318 
1470.000000	95.685843 
1469.000000	95.674272 
1468.000000	95.662238 
1467.000000	95.651051 
1466.000000	95.641884 
1465.000000	95.635230 
1464.000000	95.628966 
1463.000000	95.618298 
1462.000000	95.603027 
1461.000000	95.587297 
1460.000000	95.574550 
1459.000000	95.564713 
1458.000000	95.557898 
1457.000000	95.555624 
1456.000000	95.550677 
1455.000000	95.536698 
1454.000000	95.518589 
1453.000000	95.503506 
1452.000000	95.495130 
1451.000000	95.492438 
1450.000000	95.492437 
1449.000000	95.493949 
1448.000000	95.495440 
1447.000000	95.493839 
1446.000000	95.485617 
1445.000000	95.473732 
1444.000000	95.463936 
1443.000000	95.455648 
1442.000000	95.446006 
1441.000000	95.435566 
1440.000000	95.427757 
1439.000000	95.423413 
1438.000000	95.423160 
1437.000000	95.428089 
1436.000000	95.431158 
1435.000000	95.421885 
1434.000000	95.404646 
1433.000000	95.391642 
1432.000000	95.388163 
1431.000000	95.391485 
1430.000000	95.397277 
1429.000000	95.403826 
1428.000000	95.407614 
1427.000000	95.405929 
1426.000000	95.400495 
1425.000000	95.399750 
1424.000000	95.410133 
1423.000000	95.423668 
1422.000000	95.429770 
1421.000000	95.431076 
1420.000000	95.439388 
1419.000000	95.456720 
1418.000000	95.471602 
1417.000000	95.479213 
1416.000000	95.485208 
1415.000000	95.491479 
1414.000000	95.494264 
1413.000000	95.494088 
1412.000000	95.497506 
1411.000000	95.507489 
1410.000000	95.520448 
1409.000000	95.532524 
1408.000000	95.542889 
1407.000000	95.553682 
1406.000000	95.567046 
1405.000000	95.585030 
1404.000000	95.606237 
1403.000000	95.622356 
1402.000000	95.629174 
1401.000000	95.633485 
1400.000000	95.645992 
1399.000000	95.668225 
1398.000000	95.691061 
1397.000000	95.709308 
1396.000000	95.728167 
1395.000000	95.751950 
1394.000000	95.773773 
1393.000000	95.786484 
1392.000000	95.793893 
1391.000000	95.802565 
1390.000000	95.814499 
1389.000000	95.829676 
1388.000000	95.848360 
1387.000000	95.868284 
1386.000000	95.883547 
1385.000000	95.892415 
1384.000000	95.900169 
1383.000000	95.910999 
1382.000000	95.923889 
1381.000000	95.935863 
1380.000000	95.946266 
1379.000000	95.956243 
1378.000000	95.965946 
1377.000000	95.974917 
1376.000000	95.984422 
1375.000000	95.997280 
1374.000000	96.014114 
1373.000000	96.031336 
1372.000000	96.044703 
1371.000000	96.054162 
1370.000000	96.062401 
1369.000000	96.071690 
1368.000000	96.082738 
1367.000000	96.093914 
1366.000000	96.103707 
1365.000000	96.113628 
1364.000000	96.127072 
1363.000000	96.145034 
1362.000000	96.163216 
1361.000000	96.175966 
1360.000000	96.183267 
1359.000000	96.189704 
1358.000000	96.198027 
1357.000000	96.207325 
1356.000000	96.215932 
1355.000000	96.223062 
1354.000000	96.228921 
1353.000000	96.234830 
1352.000000	96.242299 
1351.000000	96.252664 
1350.000000	96.265463 
1349.000000	96.277837 
1348.000000	96.286998 
1347.000000	96.292418 
1346.000000	96.296106 
1345.000000	96.299945 
1344.000000	96.303507 
1343.000000	96.305364 
1342.000000	96.306527 
1341.000000	96.311068 
1340.000000	96.322224 
1339.000000	96.337563 
1338.000000	96.350434 
1337.000000	96.357301 
1336.000000	96.359742 
1335.000000	96.359976 
1334.000000	96.358943 
1333.000000	96.358085 
1332.000000	96.359288 
1331.000000	96.362674 
1330.000000	96.366608 
1329.000000	96.370266 
1328.000000	96.374354 
1327.000000	96.379168 
1326.000000	96.383281 
1325.000000	96.384741 
1324.000000	96.382667 
1323.000000	96.376989 
1322.000000	96.368615 
1321.000000	96.360416 
1320.000000	96.356019 
1319.000000	96.356363 
1318.000000	96.358823 
1317.000000	96.360843 
1316.000000	96.362574 
1315.000000	96.364806 
1314.000000	96.366762 
1313.000000	96.367644 
1312.000000	96.368350 
1311.000000	96.369913 
1310.000000	96.371783 
1309.000000	96.373164 
1308.000000	96.374599 
1307.000000	96.377030 
1306.000000	96.380084 
1305.000000	96.382797 
1304.000000	96.385084 
1303.000000	96.386483 
1302.000000	96.384988 
1301.000000	96.379276 
1300.000000	96.371438 
1299.000000	96.365699 
1298.000000	96.364358 
1297.000000	96.366159 
1296.000000	96.368485 
1295.000000	96.370137 
1294.000000	96.371850 
1293.000000	96.374878 
1292.000000	96.379171 
1291.000000	96.382851 
1290.000000	96.383954 
1289.000000	96.382455 
1288.000000	96.379579 
1287.000000	96.375440 
1286.000000	96.369180 
1285.000000	96.362021 
1284.000000	96.357895 
1283.000000	96.359245 
1282.000000	96.363612 
1281.000000	96.366239 
1280.000000	96.365507 
1279.000000	96.363886 
1278.000000	96.364178 
1277.000000	96.366779 
1276.000000	96.370278 
1275.000000	96.373185 
1274.000000	96.374925 
1273.000000	96.376182 
1272.000000	96.378120 
1271.000000	96.380432 
1270.000000	96.380810 
1269.000000	96.377626 
1268.000000	96.372596 
1267.000000	96.369121 
1266.000000	96.368294 
1265.000000	96.368312 
1264.000000	96.367543 
1263.000000	96.366206 
1262.000000	96.364938 
1261.000000	96.363815 
1260.000000	96.363956 
1259.000000	96.368082 
1258.000000	96.377257 
1257.000000	96.387756 
1256.000000	96.393136 
1255.000000	96.390534 
1254.000000	96.384163 
1253.000000	96.380860 
1252.000000	96.382137 
1251.000000	96.382942 
1250.000000	96.379173 
1249.000000	96.373700 
1248.000000	96.372398 
1247.000000	96.375890 
1246.000000	96.379096 
1245.000000	96.378891 
1244.000000	96.378004 
1243.000000	96.380019 
1242.000000	96.383937 
1241.000000	96.386080 
1240.000000	96.384886 
1239.000000	96.381357 
1238.000000	96.376689 
1237.000000	96.372057 
1236.000000	96.369461 
1235.000000	96.370065 
1234.000000	96.372038 
1233.000000	96.372070 
1232.000000	96.368707 
1231.000000	96.362637 
1230.000000	96.354505 
1229.000000	96.344092 
1228.000000	96.330859 
1227.000000	96.313631 
1226.000000	96.290419 
1225.000000	96.260261 
1224.000000	96.224814 
1223.000000	96.186646 
1222.000000	96.146366 
1221.000000	96.102840 
1220.000000	96.055577 
1219.000000	96.004980 
1218.000000	95.950535 
1217.000000	95.890690 
1216.000000	95.824642 
1215.000000	95.753011 
1214.000000	95.677382 
1213.000000	95.600673 
1212.000000	95.526555 
1211.000000	95.455503 
1210.000000	95.382222 
1209.000000	95.300628 
1208.000000	95.211403 
1207.000000	95.121417 
1206.000000	95.035193 
1205.000000	94.949996 
1204.000000	94.859997 
1203.000000	94.762320 
1202.000000	94.658636 
1201.000000	94.553510 
1200.000000	94.451585 
1199.000000	94.353779 
1198.000000	94.255925 
1197.000000	94.153800 
1196.000000	94.049017 
1195.000000	93.946588 
1194.000000	93.847161 
1193.000000	93.745960 
1192.000000	93.639709 
1191.000000	93.530074 
1190.000000	93.419229 
1189.000000	93.306367 
1188.000000	93.190300 
1187.000000	93.071795 
1186.000000	92.951557 
1185.000000	92.828977 
1184.000000	92.704108 
1183.000000	92.577870 
1182.000000	92.449561 
1181.000000	92.317328 
1180.000000	92.181473 
1179.000000	92.043658 
1178.000000	91.902584 
1177.000000	91.754607 
1176.000000	91.599071 
1175.000000	91.438891 
1174.000000	91.275679 
1173.000000	91.108883 
1172.000000	90.939798 
1171.000000	90.771013 
1170.000000	90.601658 
1169.000000	90.429446 
1168.000000	90.258549 
1167.000000	90.099762 
1166.000000	89.962649 
1165.000000	89.854389 
1164.000000	89.786098 
1163.000000	89.770197 
1162.000000	89.807029 
1161.000000	89.879376 
1160.000000	89.961792 
1159.000000	90.030276 
1158.000000	90.064481 
1157.000000	90.051014 
1156.000000	89.989316 
1155.000000	89.890041 
1154.000000	89.765727 
1153.000000	89.626194 
1152.000000	89.481227 
1151.000000	89.339104 
1150.000000	89.200281 
1149.000000	89.059835 
1148.000000	88.917852 
1147.000000	88.779848 
1146.000000	88.645843 
1145.000000	88.508386 
1144.000000	88.364267 
1143.000000	88.219168 
1142.000000	88.077198 
1141.000000	87.934505 
1140.000000	87.787371 
1139.000000	87.638414 
1138.000000	87.490597 
1137.000000	87.342684 
1136.000000	87.194237 
1135.000000	87.047246 
1134.000000	86.899465 
1133.000000	86.744617 
1132.000000	86.582896 
1131.000000	86.422712 
1130.000000	86.268018 
1129.000000	86.112373 
1128.000000	85.949646 
1127.000000	85.781863 
1126.000000	85.612064 
1125.000000	85.438145 
1124.000000	85.258964 
1123.000000	85.078774 
1122.000000	84.900844 
1121.000000	84.724019 
1120.000000	84.549338 
1119.000000	84.381784 
1118.000000	84.222053 
1117.000000	84.065593 
1116.000000	83.912777 
1115.000000	83.770275 
1114.000000	83.638978 
1113.000000	83.510750 
1112.000000	83.380502 
1111.000000	83.251015 
1110.000000	83.123242 
1109.000000	82.993220 
1108.000000	82.860885 
1107.000000	82.730558 
1106.000000	82.600712 
1105.000000	82.464718 
1104.000000	82.323185 
1103.000000	82.183243 
1102.000000	82.045100 
1101.000000	81.902431 
1100.000000	81.757410 
1099.000000	81.620002 
1098.000000	81.491014 
1097.000000	81.361090 
1096.000000	81.227123 
1095.000000	81.094655 
1094.000000	80.962761 
1093.000000	80.824163 
1092.000000	80.682762 
1091.000000	80.553264 
1090.000000	80.439495 
1089.000000	80.329822 
1088.000000	80.217168 
1087.000000	80.106043 
1086.000000	79.996925 
1085.000000	79.882601 
1084.000000	79.764360 
1083.000000	79.653162 
1082.000000	79.549454 
1081.000000	79.439637 
1080.000000	79.317553 
1079.000000	79.191546 
1078.000000	79.065235 
1077.000000	78.929343 
1076.000000	78.778237 
1075.000000	78.616541 
1074.000000	78.443639 
1073.000000	78.249105 
1072.000000	78.028859 
1071.000000	77.788610 
1070.000000	77.526818 
1069.000000	77.232573 
1068.000000	76.906271 
1067.000000	76.565000 
1066.000000	76.221399 
1065.000000	75.873822 
1064.000000	75.522017 
1063.000000	75.173135 
1062.000000	74.826461 
1061.000000	74.471798 
1060.000000	74.109110 
1059.000000	73.750311 
1058.000000	73.395972 
1057.000000	73.030665 
1056.000000	72.647348 
1055.000000	72.255796 
1054.000000	71.860771 
1053.000000	71.453006 
1052.000000	71.029654 
1051.000000	70.601879 
1050.000000	70.173281 
1049.000000	69.734143 
1048.000000	69.284895 
1047.000000	68.839755 
1046.000000	68.401543 
1045.000000	67.958668 
1044.000000	67.510371 
1043.000000	67.069399 
1042.000000	66.636603 
1041.000000	66.198991 
1040.000000	65.757278 
1039.000000	65.328884 
1038.000000	64.919020 
1037.000000	64.516544 
1036.000000	64.123223 
1035.000000	63.757760 
1034.000000	63.424705 
1033.000000	63.108713 
1032.000000	62.805632 
1031.000000	62.529754 
1030.000000	62.284293 
1029.000000	62.054887 
1028.000000	61.838010 
1027.000000	61.645032 
1026.000000	61.472743 
1025.000000	61.301855 
1024.000000	61.130281 
1023.000000	60.975038 
1022.000000	60.835295 
1021.000000	60.687446 
1020.000000	60.523881 
1019.000000	60.362973 
1018.000000	60.213103 
1017.000000	60.060787 
1016.000000	59.902211 
1015.000000	59.752527 
1014.000000	59.615040 
1013.000000	59.474366 
1012.000000	59.328624 
1011.000000	59.195388 
1010.000000	59.077637 
1009.000000	58.957615 
1008.000000	58.833145 
1007.000000	58.726422 
1006.000000	58.647941 
1005.000000	58.585064 
1004.000000	58.534166 
1003.000000	58.509376 
1002.000000	58.509956 
1001.000000	58.513699 
1000.000000	58.513612 
999.000000	 58.528324 
998.000000	 58.565851 
997.000000	 58.609789 
996.000000	 58.651406 
995.000000	 58.703361 
994.000000	 58.771258 
993.000000	 58.842897 
992.000000	 58.915154 
991.000000	 59.000722 
990.000000	 59.099709 
989.000000	 59.195877 
988.000000	 59.289081 
987.000000	 59.399749 
986.000000	 59.533548 
985.000000	 59.673923 
984.000000	 59.816884 
983.000000	 59.979944 
982.000000	 60.168188 
981.000000	 60.365307 
980.000000	 60.567586 
979.000000	 60.793363 
978.000000	 61.048414 
977.000000	 61.314611 
976.000000	 61.583398 
975.000000	 61.868831 
974.000000	 62.176471 
973.000000	 62.490780 
972.000000	 62.804794 
971.000000	 63.132510 
970.000000	 63.480133 
969.000000	 63.833313 
968.000000	 64.183611 
967.000000	 64.540464 
966.000000	 64.907018 
965.000000	 65.270878 
964.000000	 65.628114 
963.000000	 65.990269 
962.000000	 66.358885 
961.000000	 66.718811 
960.000000	 67.064745 
959.000000	 67.408770 
958.000000	 67.754155 
957.000000	 68.087557 
956.000000	 68.404658 
955.000000	 68.717681 
954.000000	 69.030034 
953.000000	 69.329242 
952.000000	 69.612598 
951.000000	 69.893720 
950.000000	 70.175338 
949.000000	 70.440892 
948.000000	 70.681700 
947.000000	 70.907620 
946.000000	 71.122807 
945.000000	 71.315673 
944.000000	 71.482333 
943.000000	 71.636634 
942.000000	 71.787765 
941.000000	 71.930074 
940.000000	 72.063337 
939.000000	 72.199701 
938.000000	 72.341748 
937.000000	 72.476753 
936.000000	 72.601774 
935.000000	 72.731673 
934.000000	 72.873429 
933.000000	 73.015559 
932.000000	 73.152082 
931.000000	 73.293347 
930.000000	 73.442977 
929.000000	 73.586988 
928.000000	 73.717077 
927.000000	 73.843700 
926.000000	 73.975111 
925.000000	 74.102865 
924.000000	 74.217872 
923.000000	 74.321859 
922.000000	 74.414583 
921.000000	 74.489508 
920.000000	 74.550976 
919.000000	 74.616149 
918.000000	 74.690774 
917.000000	 74.761736 
916.000000	 74.822168 
915.000000	 74.885663 
914.000000	 74.967683 
913.000000	 75.071615 
912.000000	 75.200863 
911.000000	 75.365645 
910.000000	 75.569322 
909.000000	 75.804946 
908.000000	 76.070989 
907.000000	 76.372930 
906.000000	 76.705858 
905.000000	 77.054942 
904.000000	 77.416391 
903.000000	 77.798243 
902.000000	 78.198528 
901.000000	 78.603857 
900.000000	 79.011297 
899.000000	 79.429669 
898.000000	 79.856623 
897.000000	 80.276177 
896.000000	 80.681198 
895.000000	 81.076693 
894.000000	 81.459161 
893.000000	 81.815000 
892.000000	 82.142764 
891.000000	 82.456145 
890.000000	 82.761541 
889.000000	 83.052204 
888.000000	 83.326982 
887.000000	 83.594353 
886.000000	 83.854434 
885.000000	 84.096715 
884.000000	 84.318924 
883.000000	 84.529369 
882.000000	 84.729679 
881.000000	 84.916494 
880.000000	 85.101441 
879.000000	 85.305081 
878.000000	 85.527123 
877.000000	 85.747475 
876.000000	 85.961816 
875.000000	 86.190935 
874.000000	 86.449190 
873.000000	 86.729312 
872.000000	 87.024899 
871.000000	 87.342488 
870.000000	 87.682687 
869.000000	 88.030906 
868.000000	 88.374181 
867.000000	 88.709198 
866.000000	 89.030965 
865.000000	 89.333897 
864.000000	 89.627642 
863.000000	 89.931203 
862.000000	 90.245164 
861.000000	 90.547846 
860.000000	 90.824386 
859.000000	 91.082235 
858.000000	 91.333573 
857.000000	 91.579713 
856.000000	 91.817964 
855.000000	 92.046628 
854.000000	 92.257340 
853.000000	 92.438991 
852.000000	 92.595677 
851.000000	 92.746381 
850.000000	 92.901517 
849.000000	 93.053720 
848.000000	 93.195007 
847.000000	 93.326228 
846.000000	 93.445213 
845.000000	 93.542974 
844.000000	 93.618277 
843.000000	 93.680728 
842.000000	 93.733281 
841.000000	 93.766146 
840.000000	 93.773004 
839.000000	 93.758150 
838.000000	 93.723364 
837.000000	 93.664913 
836.000000	 93.590635 
835.000000	 93.523319 
834.000000	 93.477225 
833.000000	 93.444856 
832.000000	 93.415393 
831.000000	 93.391799 
830.000000	 93.381115 
829.000000	 93.383888 
828.000000	 93.405538 
827.000000	 93.463695 
826.000000	 93.568445 
825.000000	 93.704163 
824.000000	 93.842535 
823.000000	 93.964613 
822.000000	 94.063780 
821.000000	 94.140850 
820.000000	 94.204242 
819.000000	 94.263315 
818.000000	 94.314674 
817.000000	 94.342918 
816.000000	 94.336529 
815.000000	 94.293757 
814.000000	 94.212516 
813.000000	 94.085515 
812.000000	 93.905971 
811.000000	 93.665255 
810.000000	 93.343331 
809.000000	 92.916660 
808.000000	 92.381740 
807.000000	 91.760648 
806.000000	 91.080399 
805.000000	 90.359955 
804.000000	 89.621427 
803.000000	 88.896831 
802.000000	 88.215629 
801.000000	 87.601181 
800.000000	 87.084547 
799.000000	 86.700016 
798.000000	 86.456622 
797.000000	 86.332242 
796.000000	 86.302109 
795.000000	 86.352472 
794.000000	 86.462277 
793.000000	 86.598028 
792.000000	 86.736839 
791.000000	 86.873930 
790.000000	 87.001041 
789.000000	 87.098378 
788.000000	 87.152800 
787.000000	 87.161889 
786.000000	 87.114920 
785.000000	 86.993113 
784.000000	 86.796986 
783.000000	 86.553557 
782.000000	 86.290448 
781.000000	 86.024719 
780.000000	 85.782913 
779.000000	 85.605107 
778.000000	 85.515901 
777.000000	 85.511744 
776.000000	 85.584579 
775.000000	 85.733666 
774.000000	 85.945129 
773.000000	 86.185777 
772.000000	 86.429898 
771.000000	 86.671440 
770.000000	 86.901990 
769.000000	 87.101271 
768.000000	 87.260125 
767.000000	 87.390198 
766.000000	 87.500020 
765.000000	 87.583469 
764.000000	 87.642674 
763.000000	 87.699274 
762.000000	 87.769096 
761.000000	 87.845850 
760.000000	 87.922428 
759.000000	 88.007481 
758.000000	 88.107651 
757.000000	 88.214554 
756.000000	 88.324274 
755.000000	 88.449579 
754.000000	 88.596270 
753.000000	 88.745043 
752.000000	 88.873355 
751.000000	 88.981051 
750.000000	 89.081087 
749.000000	 89.180760 
748.000000	 89.286510 
747.000000	 89.412090 
746.000000	 89.565471 
745.000000	 89.737816 
744.000000	 89.918289 
743.000000	 90.109749 
742.000000	 90.318227 
741.000000	 90.537808 
740.000000	 90.757905 
739.000000	 90.976601 
738.000000	 91.196840 
737.000000	 91.416501 
736.000000	 91.629116 
735.000000	 91.828221 
734.000000	 92.007586 
733.000000	 92.165256 
732.000000	 92.308221 
731.000000	 92.442692 
730.000000	 92.559667 
729.000000	 92.643604 
728.000000	 92.700218 
727.000000	 92.758800 
726.000000	 92.839726 
725.000000	 92.938422 
724.000000	 93.045746 
723.000000	 93.163298 
722.000000	 93.290967 
721.000000	 93.418490 
720.000000	 93.539876 
719.000000	 93.658808 
718.000000	 93.771663 
717.000000	 93.864547 
716.000000	 93.933961 
715.000000	 93.994616 
714.000000	 94.060037 
713.000000	 94.129846 
712.000000	 94.204355 
711.000000	 94.292434 
710.000000	 94.392809 
709.000000	 94.488211 
708.000000	 94.563283 
707.000000	 94.616621 
706.000000	 94.645844 
705.000000	 94.640161 
704.000000	 94.598204 
703.000000	 94.528242 
702.000000	 94.421445 
701.000000	 94.244613 
700.000000	 93.971930 
699.000000	 93.614035 
698.000000	 93.206139 
697.000000	 92.791133 
696.000000	 92.427133 
695.000000	 92.180156 
694.000000	 92.089023 
693.000000	 92.141961 
692.000000	 92.294275 
691.000000	 92.501688 
690.000000	 92.727900 
689.000000	 92.943446 
688.000000	 93.135347 
687.000000	 93.305796 
686.000000	 93.456996 
685.000000	 93.587735 
684.000000	 93.706165 
683.000000	 93.829419 
682.000000	 93.960514 
681.000000	 94.085471 
680.000000	 94.197370 
679.000000	 94.311167 
678.000000	 94.437272 
677.000000	 94.562237 
676.000000	 94.679313 
675.000000	 94.792606 
674.000000	 94.898537 
673.000000	 94.992535 
672.000000	 95.090984 
671.000000	 95.245649 
670.000000	 95.512653 
669.000000	 95.915177 
668.000000	 96.249759 
667.000000	 96.272139 
666.000000	 96.127749 
665.000000	 96.011896 
664.000000	 95.947116 
663.000000	 95.948878 
662.000000	 96.017177 
661.000000	 96.112254 
660.000000	 96.193781 
659.000000	 96.270046 
658.000000	 96.356129 
657.000000	 96.424663 
656.000000	 96.447765 
655.000000	 96.433516 
654.000000	 96.402295 
653.000000	 96.361230 
652.000000	 96.322295 
651.000000	 96.314166 
650.000000	 96.345699 

