4000.000000	96.887658 
3999.000000	96.886928 
3998.000000	96.885508 
3997.000000	96.883867 
3996.000000	96.882586 
3995.000000	96.882055 
3994.000000	96.882398 
3993.000000	96.883347 
3992.000000	96.884307 
3991.000000	96.884741 
3990.000000	96.884534 
3989.000000	96.883967 
3988.000000	96.883331 
3987.000000	96.882759 
3986.000000	96.882443 
3985.000000	96.882665 
3984.000000	96.883415 
3983.000000	96.884233 
3982.000000	96.884805 
3981.000000	96.885404 
3980.000000	96.886320 
3979.000000	96.887138 
3978.000000	96.887148 
3977.000000	96.886341 
3976.000000	96.885524 
3975.000000	96.885255 
3974.000000	96.885183 
3973.000000	96.884604 
3972.000000	96.883184 
3971.000000	96.881106 
3970.000000	96.878900 
3969.000000	96.877337 
3968.000000	96.877017 
3967.000000	96.877858 
3966.000000	96.879075 
3965.000000	96.879705 
3964.000000	96.879193 
3963.000000	96.877643 
3962.000000	96.875778 
3961.000000	96.874500 
3960.000000	96.874127 
3959.000000	96.874213 
3958.000000	96.874143 
3957.000000	96.873881 
3956.000000	96.873711 
3955.000000	96.873530 
3954.000000	96.872920 
3953.000000	96.871689 
3952.000000	96.870111 
3951.000000	96.868530 
3950.000000	96.867050 
3949.000000	96.865669 
3948.000000	96.864445 
3947.000000	96.863576 
3946.000000	96.863272 
3945.000000	96.863452 
3944.000000	96.863590 
3943.000000	96.863270 
3942.000000	96.862859 
3941.000000	96.863056 
3940.000000	96.863976 
3939.000000	96.865038 
3938.000000	96.865546 
3937.000000	96.865445 
3936.000000	96.864946 
3935.000000	96.863755 
3934.000000	96.861534 
3933.000000	96.858806 
3932.000000	96.856905 
3931.000000	96.856296 
3930.000000	96.856248 
3929.000000	96.856405 
3928.000000	96.857296 
3927.000000	96.858954 
3926.000000	96.859783 
3925.000000	96.858365 
3924.000000	96.855659 
3923.000000	96.853562 
3922.000000	96.852313 
3921.000000	96.851088 
3920.000000	96.849936 
3919.000000	96.849752 
3918.000000	96.850358 
3917.000000	96.850624 
3916.000000	96.850293 
3915.000000	96.850233 
3914.000000	96.850741 
3913.000000	96.851216 
3912.000000	96.851203 
3911.000000	96.851137 
3910.000000	96.851227 
3909.000000	96.851226 
3908.000000	96.850875 
3907.000000	96.850081 
3906.000000	96.848541 
3905.000000	96.845732 
3904.000000	96.841983 
3903.000000	96.838603 
3902.000000	96.836594 
3901.000000	96.835920 
3900.000000	96.835979 
3899.000000	96.836374 
3898.000000	96.836946 
3897.000000	96.837334 
3896.000000	96.837183 
3895.000000	96.836614 
3894.000000	96.835930 
3893.000000	96.835267 
3892.000000	96.834503 
3891.000000	96.833638 
3890.000000	96.832836 
3889.000000	96.832188 
3888.000000	96.831620 
3887.000000	96.831058 
3886.000000	96.830507 
3885.000000	96.829978 
3884.000000	96.829469 
3883.000000	96.828971 
3882.000000	96.828476 
3881.000000	96.827992 
3880.000000	96.827539 
3879.000000	96.827128 
3878.000000	96.826751 
3877.000000	96.826390 
3876.000000	96.826029 
3875.000000	96.825660 
3874.000000	96.825285 
3873.000000	96.824914 
3872.000000	96.824553 
3871.000000	96.824210 
3870.000000	96.823898 
3869.000000	96.823641 
3868.000000	96.823449 
3867.000000	96.823306 
3866.000000	96.823195 
3865.000000	96.823116 
3864.000000	96.823080 
3863.000000	96.823082 
3862.000000	96.823101 
3861.000000	96.823118 
3860.000000	96.823127 
3859.000000	96.823121 
3858.000000	96.823092 
3857.000000	96.823042 
3856.000000	96.822982 
3855.000000	96.822927 
3854.000000	96.822884 
3853.000000	96.822871 
3852.000000	96.822905 
3851.000000	96.822991 
3850.000000	96.823128 
3849.000000	96.823314 
3848.000000	96.823540 
3847.000000	96.823788 
3846.000000	96.824031 
3845.000000	96.824244 
3844.000000	96.824419 
3843.000000	96.824560 
3842.000000	96.824686 
3841.000000	96.824819 
3840.000000	96.824974 
3839.000000	96.825154 
3838.000000	96.825353 
3837.000000	96.825563 
3836.000000	96.825779 
3835.000000	96.826006 
3834.000000	96.826255 
3833.000000	96.826534 
3832.000000	96.826850 
3831.000000	96.827200 
3830.000000	96.827572 
3829.000000	96.827955 
3828.000000	96.828336 
3827.000000	96.828705 
3826.000000	96.829053 
3825.000000	96.829382 
3824.000000	96.829701 
3823.000000	96.830015 
3822.000000	96.830324 
3821.000000	96.830634 
3820.000000	96.830966 
3819.000000	96.831339 
3818.000000	96.831753 
3817.000000	96.832202 
3816.000000	96.832684 
3815.000000	96.833203 
3814.000000	96.833742 
3813.000000	96.834276 
3812.000000	96.834788 
3811.000000	96.835281 
3810.000000	96.835759 
3809.000000	96.836216 
3808.000000	96.836636 
3807.000000	96.837011 
3806.000000	96.837349 
3805.000000	96.837671 
3804.000000	96.837995 
3803.000000	96.838331 
3802.000000	96.838684 
3801.000000	96.839080 
3800.000000	96.839545 
3799.000000	96.840020 
3798.000000	96.840410 
3797.000000	96.840732 
3796.000000	96.841130 
3795.000000	96.841706 
3794.000000	96.842353 
3793.000000	96.842804 
3792.000000	96.842961 
3791.000000	96.843105 
3790.000000	96.843471 
3789.000000	96.843797 
3788.000000	96.843710 
3787.000000	96.843345 
3786.000000	96.843129 
3785.000000	96.843121 
3784.000000	96.843099 
3783.000000	96.843048 
3782.000000	96.842750 
3781.000000	96.841700 
3780.000000	96.840066 
3779.000000	96.839287 
3778.000000	96.840292 
3777.000000	96.842109 
3776.000000	96.842778 
3775.000000	96.841555 
3774.000000	96.839593 
3773.000000	96.838469 
3772.000000	96.837958 
3771.000000	96.836494 
3770.000000	96.834046 
3769.000000	96.832490 
3768.000000	96.832297 
3767.000000	96.831751 
3766.000000	96.829492 
3765.000000	96.826551 
3764.000000	96.825438 
3763.000000	96.826848 
3762.000000	96.828432 
3761.000000	96.827828 
3760.000000	96.825783 
3759.000000	96.824684 
3758.000000	96.823309 
3757.000000	96.818991 
3756.000000	96.812437 
3755.000000	96.806080 
3754.000000	96.800129 
3753.000000	96.793065 
3752.000000	96.786871 
3751.000000	96.785351 
3750.000000	96.785710 
3749.000000	96.782399 
3748.000000	96.778044 
3747.000000	96.779198 
3746.000000	96.784614 
3745.000000	96.786905 
3744.000000	96.789088 
3743.000000	96.795705 
3742.000000	96.799408 
3741.000000	96.793468 
3740.000000	96.781708 
3739.000000	96.775822 
3738.000000	96.779919 
3737.000000	96.784010 
3736.000000	96.779985 
3735.000000	96.774595 
3734.000000	96.776953 
3733.000000	96.783325 
3732.000000	96.786622 
3731.000000	96.787376 
3730.000000	96.788734 
3729.000000	96.789682 
3728.000000	96.786666 
3727.000000	96.779788 
3726.000000	96.774754 
3725.000000	96.774594 
3724.000000	96.775551 
3723.000000	96.774173 
3722.000000	96.772477 
3721.000000	96.773102 
3720.000000	96.774211 
3719.000000	96.773799 
3718.000000	96.771484 
3717.000000	96.768468 
3716.000000	96.766306 
3715.000000	96.763282 
3714.000000	96.755801 
3713.000000	96.743716 
3712.000000	96.732198 
3711.000000	96.725850 
3710.000000	96.722040 
3709.000000	96.715949 
3708.000000	96.705777 
3707.000000	96.692288 
3706.000000	96.678322 
3705.000000	96.666845 
3704.000000	96.658349 
3703.000000	96.649954 
3702.000000	96.637313 
3701.000000	96.618359 
3700.000000	96.595219 
3699.000000	96.572795 
3698.000000	96.554588 
3697.000000	96.541172 
3696.000000	96.533487 
3695.000000	96.531059 
3694.000000	96.528987 
3693.000000	96.522828 
3692.000000	96.513559 
3691.000000	96.505027 
3690.000000	96.497440 
3689.000000	96.490321 
3688.000000	96.485945 
3687.000000	96.485013 
3686.000000	96.484401 
3685.000000	96.479426 
3684.000000	96.469672 
3683.000000	96.461184 
3682.000000	96.457772 
3681.000000	96.452014 
3680.000000	96.434419 
3679.000000	96.406906 
3678.000000	96.380360 
3677.000000	96.355959 
3676.000000	96.327691 
3675.000000	96.301968 
3674.000000	96.284895 
3673.000000	96.271128 
3672.000000	96.253241 
3671.000000	96.230252 
3670.000000	96.211454 
3669.000000	96.203546 
3668.000000	96.197220 
3667.000000	96.182701 
3666.000000	96.163244 
3665.000000	96.146089 
3664.000000	96.132504 
3663.000000	96.118594 
3662.000000	96.099906 
3661.000000	96.075106 
3660.000000	96.047595 
3659.000000	96.021355 
3658.000000	95.997725 
3657.000000	95.973323 
3656.000000	95.946386 
3655.000000	95.918941 
3654.000000	95.892068 
3653.000000	95.864925 
3652.000000	95.835112 
3651.000000	95.801872 
3650.000000	95.769727 
3649.000000	95.743152 
3648.000000	95.721081 
3647.000000	95.703323 
3646.000000	95.692579 
3645.000000	95.688408 
3644.000000	95.686079 
3643.000000	95.681890 
3642.000000	95.675182 
3641.000000	95.666595 
3640.000000	95.654625 
3639.000000	95.636331 
3638.000000	95.613072 
3637.000000	95.590015 
3636.000000	95.569232 
3635.000000	95.545462 
3634.000000	95.514254 
3633.000000	95.479941 
3632.000000	95.450769 
3631.000000	95.427222 
3630.000000	95.401109 
3629.000000	95.373535 
3628.000000	95.355116 
3627.000000	95.344160 
3626.000000	95.332554 
3625.000000	95.321419 
3624.000000	95.317314 
3623.000000	95.322899 
3622.000000	95.332269 
3621.000000	95.335087 
3620.000000	95.327390 
3619.000000	95.316145 
3618.000000	95.309284 
3617.000000	95.309361 
3616.000000	95.318222 
3615.000000	95.336084 
3614.000000	95.359405 
3613.000000	95.383945 
3612.000000	95.406877 
3611.000000	95.425616 
3610.000000	95.438765 
3609.000000	95.448219 
3608.000000	95.458202 
3607.000000	95.470848 
3606.000000	95.484289 
3605.000000	95.497923 
3604.000000	95.514628 
3603.000000	95.536055 
3602.000000	95.559090 
3601.000000	95.577268 
3600.000000	95.587366 
3599.000000	95.590771 
3598.000000	95.590804 
3597.000000	95.590810 
3596.000000	95.594359 
3595.000000	95.601190 
3594.000000	95.607869 
3593.000000	95.611696 
3592.000000	95.612913 
3591.000000	95.614035 
3590.000000	95.616391 
3589.000000	95.618518 
3588.000000	95.619855 
3587.000000	95.623063 
3586.000000	95.629341 
3585.000000	95.637132 
3584.000000	95.646459 
3583.000000	95.658646 
3582.000000	95.673306 
3581.000000	95.686449 
3580.000000	95.693520 
3579.000000	95.693181 
3578.000000	95.688122 
3577.000000	95.682665 
3576.000000	95.679505 
3575.000000	95.678638 
3574.000000	95.678000 
3573.000000	95.675829 
3572.000000	95.671347 
3571.000000	95.664770 
3570.000000	95.656155 
3569.000000	95.644797 
3568.000000	95.632026 
3567.000000	95.623417 
3566.000000	95.623130 
3565.000000	95.628995 
3564.000000	95.636482 
3563.000000	95.643222 
3562.000000	95.648738 
3561.000000	95.652913 
3560.000000	95.655386 
3559.000000	95.656190 
3558.000000	95.655868 
3557.000000	95.655156 
3556.000000	95.654426 
3555.000000	95.653681 
3554.000000	95.652642 
3553.000000	95.651149 
3552.000000	95.649433 
3551.000000	95.647561 
3550.000000	95.645366 
3549.000000	95.643234 
3548.000000	95.642211 
3547.000000	95.642658 
3546.000000	95.643239 
3545.000000	95.642364 
3544.000000	95.640544 
3543.000000	95.639932 
3542.000000	95.641605 
3541.000000	95.644702 
3540.000000	95.647693 
3539.000000	95.649511 
3538.000000	95.649722 
3537.000000	95.648510 
3536.000000	95.646734 
3535.000000	95.645205 
3534.000000	95.644233 
3533.000000	95.643763 
3532.000000	95.643787 
3531.000000	95.644310 
3530.000000	95.645046 
3529.000000	95.645422 
3528.000000	95.645016 
3527.000000	95.643893 
3526.000000	95.642500 
3525.000000	95.641339 
3524.000000	95.640764 
3523.000000	95.640932 
3522.000000	95.641687 
3521.000000	95.642623 
3520.000000	95.643383 
3519.000000	95.643829 
3518.000000	95.643978 
3517.000000	95.643805 
3516.000000	95.643277 
3515.000000	95.642530 
3514.000000	95.641936 
3513.000000	95.641809 
3512.000000	95.642037 
3511.000000	95.642110 
3510.000000	95.641634 
3509.000000	95.640754 
3508.000000	95.640012 
3507.000000	95.639788 
3506.000000	95.639935 
3505.000000	95.639914 
3504.000000	95.639317 
3503.000000	95.638202 
3502.000000	95.636951 
3501.000000	95.635964 
3500.000000	95.635554 
3499.000000	95.635895 
3498.000000	95.636782 
3497.000000	95.637522 
3496.000000	95.637299 
3495.000000	95.635830 
3494.000000	95.633759 
3493.000000	95.632263 
3492.000000	95.631947 
3491.000000	95.632183 
3490.000000	95.631798 
3489.000000	95.630252 
3488.000000	95.627838 
3487.000000	95.624923 
3486.000000	95.621578 
3485.000000	95.618176 
3484.000000	95.615656 
3483.000000	95.614609 
3482.000000	95.614547 
3481.000000	95.614464 
3480.000000	95.613954 
3479.000000	95.613241 
3478.000000	95.612287 
3477.000000	95.610539 
3476.000000	95.607619 
3475.000000	95.603932 
3474.000000	95.600377 
3473.000000	95.597697 
3472.000000	95.596096 
3471.000000	95.595191 
3470.000000	95.594307 
3469.000000	95.592993 
3468.000000	95.591276 
3467.000000	95.589546 
3466.000000	95.588184 
3465.000000	95.587154 
3464.000000	95.585838 
3463.000000	95.583298 
3462.000000	95.578919 
3461.000000	95.572958 
3460.000000	95.566494 
3459.000000	95.560726 
3458.000000	95.556260 
3457.000000	95.552928 
3456.000000	95.550244 
3455.000000	95.547899 
3454.000000	95.545999 
3453.000000	95.544685 
3452.000000	95.543813 
3451.000000	95.543028 
3450.000000	95.541888 
3449.000000	95.539959 
3448.000000	95.536940 
3447.000000	95.532917 
3446.000000	95.528318 
3445.000000	95.523724 
3444.000000	95.519753 
3443.000000	95.516873 
3442.000000	95.515029 
3441.000000	95.513458 
3440.000000	95.511208 
3439.000000	95.507877 
3438.000000	95.503754 
3437.000000	95.499338 
3436.000000	95.495138 
3435.000000	95.491847 
3434.000000	95.490195 
3433.000000	95.490118 
3432.000000	95.490514 
3431.000000	95.490169 
3430.000000	95.488736 
3429.000000	95.486694 
3428.000000	95.484437 
3427.000000	95.481846 
3426.000000	95.478847 
3425.000000	95.476011 
3424.000000	95.474123 
3423.000000	95.473091 
3422.000000	95.471768 
3421.000000	95.469210 
3420.000000	95.465828 
3419.000000	95.462885 
3418.000000	95.461109 
3417.000000	95.460269 
3416.000000	95.459866 
3415.000000	95.459563 
3414.000000	95.458894 
3413.000000	95.457233 
3412.000000	95.454479 
3411.000000	95.451519 
3410.000000	95.449586 
3409.000000	95.449227 
3408.000000	95.449967 
3407.000000	95.450733 
3406.000000	95.450658 
3405.000000	95.449664 
3404.000000	95.448428 
3403.000000	95.447609 
3402.000000	95.447179 
3401.000000	95.446619 
3400.000000	95.445667 
3399.000000	95.444542 
3398.000000	95.443532 
3397.000000	95.442788 
3396.000000	95.442537 
3395.000000	95.443108 
3394.000000	95.444510 
3393.000000	95.446124 
3392.000000	95.447037 
3391.000000	95.446764 
3390.000000	95.445671 
3389.000000	95.444790 
3388.000000	95.445145 
3387.000000	95.447021 
3386.000000	95.449695 
3385.000000	95.451808 
3384.000000	95.452326 
3383.000000	95.451372 
3382.000000	95.450347 
3381.000000	95.450891 
3380.000000	95.453399 
3379.000000	95.456639 
3378.000000	95.459018 
3377.000000	95.460366 
3376.000000	95.461848 
3375.000000	95.464219 
3374.000000	95.466792 
3373.000000	95.468401 
3372.000000	95.468922 
3371.000000	95.469375 
3370.000000	95.470740 
3369.000000	95.473064 
3368.000000	95.475672 
3367.000000	95.477819 
3366.000000	95.479102 
3365.000000	95.479577 
3364.000000	95.479712 
3363.000000	95.480108 
3362.000000	95.481148 
3361.000000	95.482939 
3360.000000	95.485501 
3359.000000	95.488758 
3358.000000	95.492324 
3357.000000	95.495571 
3356.000000	95.498104 
3355.000000	95.500135 
3354.000000	95.502324 
3353.000000	95.505251 
3352.000000	95.508997 
3351.000000	95.513088 
3350.000000	95.516813 
3349.000000	95.519677 
3348.000000	95.521712 
3347.000000	95.523463 
3346.000000	95.525650 
3345.000000	95.528645 
3344.000000	95.532112 
3343.000000	95.535178 
3342.000000	95.537222 
3341.000000	95.538530 
3340.000000	95.539884 
3339.000000	95.541459 
3338.000000	95.542618 
3337.000000	95.542967 
3336.000000	95.543088 
3335.000000	95.543944 
3334.000000	95.545860 
3333.000000	95.548388 
3332.000000	95.551007 
3331.000000	95.553608 
3330.000000	95.556326 
3329.000000	95.559195 
3328.000000	95.562132 
3327.000000	95.565037 
3326.000000	95.567803 
3325.000000	95.570266 
3324.000000	95.572273 
3323.000000	95.573801 
3322.000000	95.575031 
3321.000000	95.576300 
3320.000000	95.577941 
3319.000000	95.580171 
3318.000000	95.583059 
3317.000000	95.586496 
3316.000000	95.590158 
3315.000000	95.593591 
3314.000000	95.596475 
3313.000000	95.598811 
3312.000000	95.600867 
3311.000000	95.602973 
3310.000000	95.605394 
3309.000000	95.608225 
3308.000000	95.611267 
3307.000000	95.614046 
3306.000000	95.616214 
3305.000000	95.617886 
3304.000000	95.619511 
3303.000000	95.621483 
3302.000000	95.623847 
3301.000000	95.626418 
3300.000000	95.628974 
3299.000000	95.631372 
3298.000000	95.633585 
3297.000000	95.635702 
3296.000000	95.637898 
3295.000000	95.640323 
3294.000000	95.642982 
3293.000000	95.645762 
3292.000000	95.648520 
3291.000000	95.651175 
3290.000000	95.653728 
3289.000000	95.656220 
3288.000000	95.658696 
3287.000000	95.661177 
3286.000000	95.663658 
3285.000000	95.666125 
3284.000000	95.668581 
3283.000000	95.671051 
3282.000000	95.673558 
3281.000000	95.676103 
3280.000000	95.678663 
3279.000000	95.681210 
3278.000000	95.683744 
3277.000000	95.686287 
3276.000000	95.688856 
3275.000000	95.691450 
3274.000000	95.694056 
3273.000000	95.696668 
3272.000000	95.699295 
3271.000000	95.701943 
3270.000000	95.704606 
3269.000000	95.707270 
3268.000000	95.709923 
3267.000000	95.712561 
3266.000000	95.715195 
3265.000000	95.717850 
3264.000000	95.720546 
3263.000000	95.723294 
3262.000000	95.726073 
3261.000000	95.728842 
3260.000000	95.731572 
3259.000000	95.734275 
3258.000000	95.736979 
3257.000000	95.739711 
3256.000000	95.742503 
3255.000000	95.745368 
3254.000000	95.748251 
3253.000000	95.751047 
3252.000000	95.753728 
3251.000000	95.756398 
3250.000000	95.759182 
3249.000000	95.762067 
3248.000000	95.764916 
3247.000000	95.767652 
3246.000000	95.770364 
3245.000000	95.773193 
3244.000000	95.776157 
3243.000000	95.779114 
3242.000000	95.781911 
3241.000000	95.784546 
3240.000000	95.787169 
3239.000000	95.789977 
3238.000000	95.793135 
3237.000000	95.796741 
3236.000000	95.800767 
3235.000000	95.804942 
3234.000000	95.808799 
3233.000000	95.811945 
3232.000000	95.814310 
3231.000000	95.816235 
3230.000000	95.818278 
3229.000000	95.820795 
3228.000000	95.823761 
3227.000000	95.826948 
3226.000000	95.830322 
3225.000000	95.834079 
3224.000000	95.838259 
3223.000000	95.842535 
3222.000000	95.846524 
3221.000000	95.850182 
3220.000000	95.853685 
3219.000000	95.857026 
3218.000000	95.860055 
3217.000000	95.862845 
3216.000000	95.865657 
3215.000000	95.868646 
3214.000000	95.871829 
3213.000000	95.875228 
3212.000000	95.878793 
3211.000000	95.882261 
3210.000000	95.885368 
3209.000000	95.888216 
3208.000000	95.891138 
3207.000000	95.894220 
3206.000000	95.897239 
3205.000000	95.900136 
3204.000000	95.903247 
3203.000000	95.906911 
3202.000000	95.911046 
3201.000000	95.915224 
3200.000000	95.919047 
3199.000000	95.922417 
3198.000000	95.925564 
3197.000000	95.928849 
3196.000000	95.932401 
3195.000000	95.935968 
3194.000000	95.939254 
3193.000000	95.942401 
3192.000000	95.945883 
3191.000000	95.949853 
3190.000000	95.953822 
3189.000000	95.957192 
3188.000000	95.959948 
3187.000000	95.962670 
3186.000000	95.965943 
3185.000000	95.969877 
3184.000000	95.974112 
3183.000000	95.978257 
3182.000000	95.982302 
3181.000000	95.986453 
3180.000000	95.990654 
3179.000000	95.994496 
3178.000000	95.997742 
3177.000000	96.000721 
3176.000000	96.004024 
3175.000000	96.007885 
3174.000000	96.012105 
3173.000000	96.016388 
3172.000000	96.020532 
3171.000000	96.024354 
3170.000000	96.027765 
3169.000000	96.030984 
3168.000000	96.034407 
3167.000000	96.038118 
3166.000000	96.041768 
3165.000000	96.045009 
3164.000000	96.047818 
3163.000000	96.050381 
3162.000000	96.052917 
3161.000000	96.055672 
3160.000000	96.058866 
3159.000000	96.062516 
3158.000000	96.066432 
3157.000000	96.070439 
3156.000000	96.074461 
3155.000000	96.078355 
3154.000000	96.081920 
3153.000000	96.085186 
3152.000000	96.088448 
3151.000000	96.091855 
3150.000000	96.095121 
3149.000000	96.097866 
3148.000000	96.100136 
3147.000000	96.102476 
3146.000000	96.105501 
3145.000000	96.109429 
3144.000000	96.113900 
3143.000000	96.118109 
3142.000000	96.121400 
3141.000000	96.123803 
3140.000000	96.126009 
3139.000000	96.128711 
3138.000000	96.131990 
3137.000000	96.135381 
3136.000000	96.138324 
3135.000000	96.140518 
3134.000000	96.142124 
3133.000000	96.143759 
3132.000000	96.146004 
3131.000000	96.148850 
3130.000000	96.151870 
3129.000000	96.154968 
3128.000000	96.158561 
3127.000000	96.162908 
3126.000000	96.167669 
3125.000000	96.172278 
3124.000000	96.176476 
3123.000000	96.180243 
3122.000000	96.183483 
3121.000000	96.186139 
3120.000000	96.188452 
3119.000000	96.190780 
3118.000000	96.193280 
3117.000000	96.195991 
3116.000000	96.199010 
3115.000000	96.202325 
3114.000000	96.205637 
3113.000000	96.208669 
3112.000000	96.211586 
3111.000000	96.214797 
3110.000000	96.218339 
3109.000000	96.221725 
3108.000000	96.224584 
3107.000000	96.227211 
3106.000000	96.230187 
3105.000000	96.233496 
3104.000000	96.236367 
3103.000000	96.238145 
3102.000000	96.239048 
3101.000000	96.239898 
3100.000000	96.241218 
3099.000000	96.242967 
3098.000000	96.245169 
3097.000000	96.248278 
3096.000000	96.252500 
3095.000000	96.257031 
3094.000000	96.260647 
3093.000000	96.262998 
3092.000000	96.264843 
3091.000000	96.266898 
3090.000000	96.268979 
3089.000000	96.270539 
3088.000000	96.271539 
3087.000000	96.272535 
3086.000000	96.274201 
3085.000000	96.276871 
3084.000000	96.280275 
3083.000000	96.283607 
3082.000000	96.286189 
3081.000000	96.288233 
3080.000000	96.290539 
3079.000000	96.293194 
3078.000000	96.295248 
3077.000000	96.296170 
3076.000000	96.296881 
3075.000000	96.298579 
3074.000000	96.301104 
3073.000000	96.303397 
3072.000000	96.305082 
3071.000000	96.306524 
3070.000000	96.307716 
3069.000000	96.308414 
3068.000000	96.309202 
3067.000000	96.311079 
3066.000000	96.313734 
3065.000000	96.315460 
3064.000000	96.315115 
3063.000000	96.313277 
3062.000000	96.311309 
3061.000000	96.310202 
3060.000000	96.310462 
3059.000000	96.312249 
3058.000000	96.315333 
3057.000000	96.319345 
3056.000000	96.323899 
3055.000000	96.327870 
3054.000000	96.329245 
3053.000000	96.327050 
3052.000000	96.323403 
3051.000000	96.322237 
3050.000000	96.325349 
3049.000000	96.330715 
3048.000000	96.334907 
3047.000000	96.336158 
3046.000000	96.334673 
3045.000000	96.331423 
3044.000000	96.327820 
3043.000000	96.325852 
3042.000000	96.327090 
3041.000000	96.330969 
3040.000000	96.334549 
3039.000000	96.334709 
3038.000000	96.330883 
3037.000000	96.325472 
3036.000000	96.321295 
3035.000000	96.318666 
3034.000000	96.315742 
3033.000000	96.311522 
3032.000000	96.307187 
3031.000000	96.304175 
3030.000000	96.302214 
3029.000000	96.300081 
3028.000000	96.297065 
3027.000000	96.292606 
3026.000000	96.285732 
3025.000000	96.276499 
3024.000000	96.267342 
3023.000000	96.261185 
3022.000000	96.258305 
3021.000000	96.256671 
3020.000000	96.255002 
3019.000000	96.253548 
3018.000000	96.251761 
3017.000000	96.247439 
3016.000000	96.239253 
3015.000000	96.228770 
3014.000000	96.219165 
3013.000000	96.212552 
3012.000000	96.208731 
3011.000000	96.205437 
3010.000000	96.199633 
3009.000000	96.189803 
3008.000000	96.177458 
3007.000000	96.165608 
3006.000000	96.155592 
3005.000000	96.146402 
3004.000000	96.137081 
3003.000000	96.128269 
3002.000000	96.121060 
3001.000000	96.115712 
3000.000000	96.111900 
2999.000000	96.108778 
2998.000000	96.104333 
2997.000000	96.096399 
2996.000000	96.085268 
2995.000000	96.073928 
2994.000000	96.064472 
2993.000000	96.055333 
2992.000000	96.043486 
2991.000000	96.028863 
2990.000000	96.015302 
2989.000000	96.007132 
2988.000000	96.005720 
2987.000000	96.009142 
2986.000000	96.014364 
2985.000000	96.019677 
2984.000000	96.025264 
2983.000000	96.031657 
2982.000000	96.038098 
2981.000000	96.042723 
2980.000000	96.044079 
2979.000000	96.041910 
2978.000000	96.036918 
2977.000000	96.030712 
2976.000000	96.025716 
2975.000000	96.023784 
2974.000000	96.024713 
2973.000000	96.027185 
2972.000000	96.031103 
2971.000000	96.037562 
2970.000000	96.046278 
2969.000000	96.054867 
2968.000000	96.061540 
2967.000000	96.067033 
2966.000000	96.072785 
2965.000000	96.078652 
2964.000000	96.083846 
2963.000000	96.089027 
2962.000000	96.095715 
2961.000000	96.103990 
2960.000000	96.112310 
2959.000000	96.119595 
2958.000000	96.126377 
2957.000000	96.133718 
2956.000000	96.141699 
2955.000000	96.149106 
2954.000000	96.154368 
2953.000000	96.157270 
2952.000000	96.159981 
2951.000000	96.165622 
2950.000000	96.174904 
2949.000000	96.184771 
2948.000000	96.191331 
2947.000000	96.193510 
2946.000000	96.193033 
2945.000000	96.191644 
2944.000000	96.189784 
2943.000000	96.187809 
2942.000000	96.186676 
2941.000000	96.186692 
2940.000000	96.186805 
2939.000000	96.185949 
2938.000000	96.184455 
2937.000000	96.183516 
2936.000000	96.183630 
2935.000000	96.184042 
2934.000000	96.183497 
2933.000000	96.181233 
2932.000000	96.177540 
2931.000000	96.173708 
2930.000000	96.171317 
2929.000000	96.171260 
2928.000000	96.173189 
2927.000000	96.175713 
2926.000000	96.177249 
2925.000000	96.177254 
2924.000000	96.176898 
2923.000000	96.178076 
2922.000000	96.181218 
2921.000000	96.184502 
2920.000000	96.186017 
2919.000000	96.186406 
2918.000000	96.188218 
2917.000000	96.192425 
2916.000000	96.196648 
2915.000000	96.197686 
2914.000000	96.195300 
2913.000000	96.192581 
2912.000000	96.192599 
2911.000000	96.195442 
2910.000000	96.198789 
2909.000000	96.200785 
2908.000000	96.201682 
2907.000000	96.202673 
2906.000000	96.203750 
2905.000000	96.203440 
2904.000000	96.200468 
2903.000000	96.196015 
2902.000000	96.193556 
2901.000000	96.196071 
2900.000000	96.203986 
2899.000000	96.214835 
2898.000000	96.225313 
2897.000000	96.233531 
2896.000000	96.239347 
2895.000000	96.243195 
2894.000000	96.245589 
2893.000000	96.247673 
2892.000000	96.251104 
2891.000000	96.256516 
2890.000000	96.262608 
2889.000000	96.267609 
2888.000000	96.271384 
2887.000000	96.275093 
2886.000000	96.279006 
2885.000000	96.282134 
2884.000000	96.284487 
2883.000000	96.288161 
2882.000000	96.294893 
2881.000000	96.303450 
2880.000000	96.310912 
2879.000000	96.316422 
2878.000000	96.322061 
2877.000000	96.329799 
2876.000000	96.339014 
2875.000000	96.347606 
2874.000000	96.354431 
2873.000000	96.359649 
2872.000000	96.363505 
2871.000000	96.366031 
2870.000000	96.367742 
2869.000000	96.369676 
2868.000000	96.372634 
2867.000000	96.376845 
2866.000000	96.382243 
2865.000000	96.388438 
2864.000000	96.394572 
2863.000000	96.400074 
2862.000000	96.405615 
2861.000000	96.412408 
2860.000000	96.420362 
2859.000000	96.427788 
2858.000000	96.433465 
2857.000000	96.438308 
2856.000000	96.444262 
2855.000000	96.451886 
2854.000000	96.459741 
2853.000000	96.466048 
2852.000000	96.470346 
2851.000000	96.473544 
2850.000000	96.477019 
2849.000000	96.481768 
2848.000000	96.487921 
2847.000000	96.494737 
2846.000000	96.501259 
2845.000000	96.507152 
2844.000000	96.512856 
2843.000000	96.518968 
2842.000000	96.525681 
2841.000000	96.532684 
2840.000000	96.539203 
2839.000000	96.544212 
2838.000000	96.547130 
2837.000000	96.548540 
2836.000000	96.550024 
2835.000000	96.552982 
2834.000000	96.557708 
2833.000000	96.563665 
2832.000000	96.570165 
2831.000000	96.576458 
2830.000000	96.581495 
2829.000000	96.584279 
2828.000000	96.584761 
2827.000000	96.584283 
2826.000000	96.584867 
2825.000000	96.587807 
2824.000000	96.592750 
2823.000000	96.597953 
2822.000000	96.601590 
2821.000000	96.603021 
2820.000000	96.602980 
2819.000000	96.602694 
2818.000000	96.602935 
2817.000000	96.603901 
2816.000000	96.605629 
2815.000000	96.608121 
2814.000000	96.611029 
2813.000000	96.613566 
2812.000000	96.614962 
2811.000000	96.615087 
2810.000000	96.614639 
2809.000000	96.614779 
2808.000000	96.616439 
2807.000000	96.619792 
2806.000000	96.624161 
2805.000000	96.628384 
2804.000000	96.631470 
2803.000000	96.633112 
2802.000000	96.633807 
2801.000000	96.634529 
2800.000000	96.636067 
2799.000000	96.638405 
2798.000000	96.640734 
2797.000000	96.642219 
2796.000000	96.642800 
2795.000000	96.643208 
2794.000000	96.644228 
2793.000000	96.646012 
2792.000000	96.648124 
2791.000000	96.650032 
2790.000000	96.651489 
2789.000000	96.652549 
2788.000000	96.653433 
2787.000000	96.654404 
2786.000000	96.655637 
2785.000000	96.657133 
2784.000000	96.658757 
2783.000000	96.660366 
2782.000000	96.661897 
2781.000000	96.663363 
2780.000000	96.664793 
2779.000000	96.666199 
2778.000000	96.667584 
2777.000000	96.668939 
2776.000000	96.670246 
2775.000000	96.671492 
2774.000000	96.672714 
2773.000000	96.673972 
2772.000000	96.675273 
2771.000000	96.676561 
2770.000000	96.677811 
2769.000000	96.679095 
2768.000000	96.680485 
2767.000000	96.681923 
2766.000000	96.683274 
2765.000000	96.684510 
2764.000000	96.685740 
2763.000000	96.687012 
2762.000000	96.688185 
2761.000000	96.689072 
2760.000000	96.689681 
2759.000000	96.690289 
2758.000000	96.691219 
2757.000000	96.692536 
2756.000000	96.693955 
2755.000000	96.695157 
2754.000000	96.696188 
2753.000000	96.697400 
2752.000000	96.698957 
2751.000000	96.700597 
2750.000000	96.702015 
2749.000000	96.703292 
2748.000000	96.704594 
2747.000000	96.705642 
2746.000000	96.705996 
2745.000000	96.705749 
2744.000000	96.705619 
2743.000000	96.706186 
2742.000000	96.707349 
2741.000000	96.708592 
2740.000000	96.709589 
2739.000000	96.710397 
2738.000000	96.711139 
2737.000000	96.711817 
2736.000000	96.712433 
2735.000000	96.713103 
2734.000000	96.713956 
2733.000000	96.715004 
2732.000000	96.716150 
2731.000000	96.717297 
2730.000000	96.718434 
2729.000000	96.719625 
2728.000000	96.720889 
2727.000000	96.722075 
2726.000000	96.722954 
2725.000000	96.723466 
2724.000000	96.723808 
2723.000000	96.724244 
2722.000000	96.724857 
2721.000000	96.725568 
2720.000000	96.726318 
2719.000000	96.727141 
2718.000000	96.728063 
2717.000000	96.729013 
2716.000000	96.729888 
2715.000000	96.730669 
2714.000000	96.731431 
2713.000000	96.732241 
2712.000000	96.733087 
2711.000000	96.733913 
2710.000000	96.734703 
2709.000000	96.735488 
2708.000000	96.736298 
2707.000000	96.737128 
2706.000000	96.737955 
2705.000000	96.738765 
2704.000000	96.739556 
2703.000000	96.740325 
2702.000000	96.741075 
2701.000000	96.741830 
2700.000000	96.742627 
2699.000000	96.743479 
2698.000000	96.744368 
2697.000000	96.745232 
2696.000000	96.746013 
2695.000000	96.746693 
2694.000000	96.747311 
2693.000000	96.747931 
2692.000000	96.748572 
2691.000000	96.749212 
2690.000000	96.749826 
2689.000000	96.750413 
2688.000000	96.750983 
2687.000000	96.751535 
2686.000000	96.752056 
2685.000000	96.752555 
2684.000000	96.753061 
2683.000000	96.753591 
2682.000000	96.754129 
2681.000000	96.754635 
2680.000000	96.755095 
2679.000000	96.755524 
2678.000000	96.755939 
2677.000000	96.756349 
2676.000000	96.756760 
2675.000000	96.757136 
2674.000000	96.757403 
2673.000000	96.757547 
2672.000000	96.757681 
2671.000000	96.757926 
2670.000000	96.758248 
2669.000000	96.758517 
2668.000000	96.758696 
2667.000000	96.758848 
2666.000000	96.758961 
2665.000000	96.758913 
2664.000000	96.758687 
2663.000000	96.758484 
2662.000000	96.758515 
2661.000000	96.758760 
2660.000000	96.758988 
2659.000000	96.758995 
2658.000000	96.758776 
2657.000000	96.758475 
2656.000000	96.758253 
2655.000000	96.758151 
2654.000000	96.758054 
2653.000000	96.757796 
2652.000000	96.757345 
2651.000000	96.756851 
2650.000000	96.756512 
2649.000000	96.756382 
2648.000000	96.756337 
2647.000000	96.756184 
2646.000000	96.755800 
2645.000000	96.755165 
2644.000000	96.754374 
2643.000000	96.753635 
2642.000000	96.753160 
2641.000000	96.752983 
2640.000000	96.752943 
2639.000000	96.752849 
2638.000000	96.752670 
2637.000000	96.752483 
2636.000000	96.752328 
2635.000000	96.752182 
2634.000000	96.752033 
2633.000000	96.751889 
2632.000000	96.751696 
2631.000000	96.751344 
2630.000000	96.750803 
2629.000000	96.750184 
2628.000000	96.749636 
2627.000000	96.749215 
2626.000000	96.748904 
2625.000000	96.748704 
2624.000000	96.748635 
2623.000000	96.748642 
2622.000000	96.748575 
2621.000000	96.748306 
2620.000000	96.747821 
2619.000000	96.747208 
2618.000000	96.746615 
2617.000000	96.746172 
2616.000000	96.745944 
2615.000000	96.745895 
2614.000000	96.745907 
2613.000000	96.745893 
2612.000000	96.745854 
2611.000000	96.745809 
2610.000000	96.745732 
2609.000000	96.745575 
2608.000000	96.745330 
2607.000000	96.745035 
2606.000000	96.744751 
2605.000000	96.744516 
2604.000000	96.744321 
2603.000000	96.744083 
2602.000000	96.743732 
2601.000000	96.743355 
2600.000000	96.743173 
2599.000000	96.743296 
2598.000000	96.743548 
2597.000000	96.743656 
2596.000000	96.743542 
2595.000000	96.743274 
2594.000000	96.742844 
2593.000000	96.742197 
2592.000000	96.741540 
2591.000000	96.741272 
2590.000000	96.741479 
2589.000000	96.741702 
2588.000000	96.741499 
2587.000000	96.741051 
2586.000000	96.740876 
2585.000000	96.741115 
2584.000000	96.741464 
2583.000000	96.741679 
2582.000000	96.741850 
2581.000000	96.742171 
2580.000000	96.742651 
2579.000000	96.743100 
2578.000000	96.743295 
2577.000000	96.743167 
2576.000000	96.742801 
2575.000000	96.742254 
2574.000000	96.741485 
2573.000000	96.740560 
2572.000000	96.739767 
2571.000000	96.739315 
2570.000000	96.739038 
2569.000000	96.738671 
2568.000000	96.738361 
2567.000000	96.738495 
2566.000000	96.739014 
2565.000000	96.739351 
2564.000000	96.739147 
2563.000000	96.738670 
2562.000000	96.738381 
2561.000000	96.738433 
2560.000000	96.738823 
2559.000000	96.739619 
2558.000000	96.740745 
2557.000000	96.741737 
2556.000000	96.742121 
2555.000000	96.741962 
2554.000000	96.741793 
2553.000000	96.741977 
2552.000000	96.742344 
2551.000000	96.742586 
2550.000000	96.742700 
2549.000000	96.742766 
2548.000000	96.742581 
2547.000000	96.741917 
2546.000000	96.741020 
2545.000000	96.740525 
2544.000000	96.740727 
2543.000000	96.741274 
2542.000000	96.741569 
2541.000000	96.741503 
2540.000000	96.741496 
2539.000000	96.741864 
2538.000000	96.742414 
2537.000000	96.742752 
2536.000000	96.742805 
2535.000000	96.742841 
2534.000000	96.743043 
2533.000000	96.743251 
2532.000000	96.743252 
2531.000000	96.743117 
2530.000000	96.743095 
2529.000000	96.743233 
2528.000000	96.743326 
2527.000000	96.743271 
2526.000000	96.743295 
2525.000000	96.743708 
2524.000000	96.744497 
2523.000000	96.745282 
2522.000000	96.745669 
2521.000000	96.745575 
2520.000000	96.745189 
2519.000000	96.744738 
2518.000000	96.744330 
2517.000000	96.743987 
2516.000000	96.743711 
2515.000000	96.743538 
2514.000000	96.743637 
2513.000000	96.744262 
2512.000000	96.745450 
2511.000000	96.746876 
2510.000000	96.748091 
2509.000000	96.748890 
2508.000000	96.749307 
2507.000000	96.749403 
2506.000000	96.749311 
2505.000000	96.749423 
2504.000000	96.750156 
2503.000000	96.751369 
2502.000000	96.752331 
2501.000000	96.752553 
2500.000000	96.752407 
2499.000000	96.752633 
2498.000000	96.753404 
2497.000000	96.754242 
2496.000000	96.754776 
2495.000000	96.755162 
2494.000000	96.755600 
2493.000000	96.755864 
2492.000000	96.755652 
2491.000000	96.755178 
2490.000000	96.755069 
2489.000000	96.755636 
2488.000000	96.756504 
2487.000000	96.757048 
2486.000000	96.757088 
2485.000000	96.757013 
2484.000000	96.757338 
2483.000000	96.758290 
2482.000000	96.759718 
2481.000000	96.761181 
2480.000000	96.762136 
2479.000000	96.762255 
2478.000000	96.761715 
2477.000000	96.761077 
2476.000000	96.760704 
2475.000000	96.760446 
2474.000000	96.760004 
2473.000000	96.759416 
2472.000000	96.758944 
2471.000000	96.758663 
2470.000000	96.758453 
2469.000000	96.758378 
2468.000000	96.758720 
2467.000000	96.759498 
2466.000000	96.760193 
2465.000000	96.760224 
2464.000000	96.759604 
2463.000000	96.758991 
2462.000000	96.759108 
2461.000000	96.760204 
2460.000000	96.761958 
2459.000000	96.763725 
2458.000000	96.764933 
2457.000000	96.765366 
2456.000000	96.765123 
2455.000000	96.764438 
2454.000000	96.763535 
2453.000000	96.762554 
2452.000000	96.761535 
2451.000000	96.760577 
2450.000000	96.760075 
2449.000000	96.760559 
2448.000000	96.762058 
2447.000000	96.763792 
2446.000000	96.764802 
2445.000000	96.764891 
2444.000000	96.764601 
2443.000000	96.764441 
2442.000000	96.764472 
2441.000000	96.764620 
2440.000000	96.764986 
2439.000000	96.765717 
2438.000000	96.766857 
2437.000000	96.768387 
2436.000000	96.770081 
2435.000000	96.771355 
2434.000000	96.771712 
2433.000000	96.771407 
2432.000000	96.771376 
2431.000000	96.772267 
2430.000000	96.773960 
2429.000000	96.776046 
2428.000000	96.778253 
2427.000000	96.780151 
2426.000000	96.781005 
2425.000000	96.780420 
2424.000000	96.778853 
2423.000000	96.777247 
2422.000000	96.776307 
2421.000000	96.776371 
2420.000000	96.777566 
2419.000000	96.779602 
2418.000000	96.781674 
2417.000000	96.783316 
2416.000000	96.784937 
2415.000000	96.786982 
2414.000000	96.789067 
2413.000000	96.790633 
2412.000000	96.791905 
2411.000000	96.793254 
2410.000000	96.794142 
2409.000000	96.793945 
2408.000000	96.793296 
2407.000000	96.793366 
2406.000000	96.794182 
2405.000000	96.794659 
2404.000000	96.794165 
2403.000000	96.793117 
2402.000000	96.792304 
2401.000000	96.792441 
2400.000000	96.794105 
2399.000000	96.797260 
2398.000000	96.800969 
2397.000000	96.804268 
2396.000000	96.807002 
2395.000000	96.809203 
2394.000000	96.810279 
2393.000000	96.809821 
2392.000000	96.808800 
2391.000000	96.808800 
2390.000000	96.810116 
2389.000000	96.811642 
2388.000000	96.812591 
2387.000000	96.813277 
2386.000000	96.814134 
2385.000000	96.815038 
2384.000000	96.815888 
2383.000000	96.816971 
2382.000000	96.818399 
2381.000000	96.819965 
2380.000000	96.821855 
2379.000000	96.824534 
2378.000000	96.827342 
2377.000000	96.828227 
2376.000000	96.825919 
2375.000000	96.821662 
2374.000000	96.817935 
2373.000000	96.815578 
2372.000000	96.813743 
2371.000000	96.812359 
2370.000000	96.812696 
2369.000000	96.814909 
2368.000000	96.816539 
2367.000000	96.814922 
2366.000000	96.810280 
2365.000000	96.805568 
2364.000000	96.803311 
2363.000000	96.803545 
2362.000000	96.804853 
2361.000000	96.805999 
2360.000000	96.806314 
2359.000000	96.805391 
2358.000000	96.803406 
2357.000000	96.801724 
2356.000000	96.801550 
2355.000000	96.802070 
2354.000000	96.800564 
2353.000000	96.796344 
2352.000000	96.791969 
2351.000000	96.789145 
2350.000000	96.787030 
2349.000000	96.784878 
2348.000000	96.782715 
2347.000000	96.778844 
2346.000000	96.771783 
2345.000000	96.764472 
2344.000000	96.759909 
2343.000000	96.757869 
2342.000000	96.758239 
2341.000000	96.762586 
2340.000000	96.770281 
2339.000000	96.777132 
2338.000000	96.779484 
2337.000000	96.777789 
2336.000000	96.775697 
2335.000000	96.774837 
2334.000000	96.772519 
2333.000000	96.765041 
2332.000000	96.753628 
2331.000000	96.742589 
2330.000000	96.734505 
2329.000000	96.727355 
2328.000000	96.720204 
2327.000000	96.714100 
2326.000000	96.709347 
2325.000000	96.704138 
2324.000000	96.698354 
2323.000000	96.694455 
2322.000000	96.692864 
2321.000000	96.690166 
2320.000000	96.685383 
2319.000000	96.683021 
2318.000000	96.687495 
2317.000000	96.695971 
2316.000000	96.701883 
2315.000000	96.701304 
2314.000000	96.695893 
2313.000000	96.688773 
2312.000000	96.682786 
2311.000000	96.679221 
2310.000000	96.677892 
2309.000000	96.676660 
2308.000000	96.674658 
2307.000000	96.673629 
2306.000000	96.675628 
2305.000000	96.679243 
2304.000000	96.681469 
2303.000000	96.681781 
2302.000000	96.682957 
2301.000000	96.686687 
2300.000000	96.691441 
2299.000000	96.694078 
2298.000000	96.693458 
2297.000000	96.690714 
2296.000000	96.688284 
2295.000000	96.688078 
2294.000000	96.690610 
2293.000000	96.694470 
2292.000000	96.697616 
2291.000000	96.699014 
2290.000000	96.699323 
2289.000000	96.700057 
2288.000000	96.702137 
2287.000000	96.705085 
2286.000000	96.707454 
2285.000000	96.708512 
2284.000000	96.709128 
2283.000000	96.710683 
2282.000000	96.713143 
2281.000000	96.715000 
2280.000000	96.714934 
2279.000000	96.712925 
2278.000000	96.709891 
2277.000000	96.707067 
2276.000000	96.705667 
2275.000000	96.706154 
2274.000000	96.707669 
2273.000000	96.708900 
2272.000000	96.709707 
2271.000000	96.710950 
2270.000000	96.712728 
2269.000000	96.714032 
2268.000000	96.714442 
2267.000000	96.714842 
2266.000000	96.715889 
2265.000000	96.716922 
2264.000000	96.717010 
2263.000000	96.716050 
2262.000000	96.714268 
2261.000000	96.711611 
2260.000000	96.708406 
2259.000000	96.705661 
2258.000000	96.703994 
2257.000000	96.703122 
2256.000000	96.702898 
2255.000000	96.703873 
2254.000000	96.706104 
2253.000000	96.708130 
2252.000000	96.708248 
2251.000000	96.706256 
2250.000000	96.703044 
2249.000000	96.699385 
2248.000000	96.695858 
2247.000000	96.693312 
2246.000000	96.692295 
2245.000000	96.692156 
2244.000000	96.691487 
2243.000000	96.689680 
2242.000000	96.687367 
2241.000000	96.685491 
2240.000000	96.684372 
2239.000000	96.683800 
2238.000000	96.683459 
2237.000000	96.683078 
2236.000000	96.682467 
2235.000000	96.681607 
2234.000000	96.680595 
2233.000000	96.679480 
2232.000000	96.678283 
2231.000000	96.677084 
2230.000000	96.675920 
2229.000000	96.674681 
2228.000000	96.673277 
2227.000000	96.671823 
2226.000000	96.670472 
2225.000000	96.669182 
2224.000000	96.667797 
2223.000000	96.666315 
2222.000000	96.664874 
2221.000000	96.663576 
2220.000000	96.662371 
2219.000000	96.661186 
2218.000000	96.659988 
2217.000000	96.658776 
2216.000000	96.657552 
2215.000000	96.656312 
2214.000000	96.655056 
2213.000000	96.653788 
2212.000000	96.652536 
2211.000000	96.651336 
2210.000000	96.650220 
2209.000000	96.649188 
2208.000000	96.648219 
2207.000000	96.647286 
2206.000000	96.646369 
2205.000000	96.645450 
2204.000000	96.644508 
2203.000000	96.643522 
2202.000000	96.642481 
2201.000000	96.641387 
2200.000000	96.640264 
2199.000000	96.639097 
2198.000000	96.637872 
2197.000000	96.636621 
2196.000000	96.635394 
2195.000000	96.634229 
2194.000000	96.633144 
2193.000000	96.632157 
2192.000000	96.631295 
2191.000000	96.630552 
2190.000000	96.629844 
2189.000000	96.629080 
2188.000000	96.628293 
2187.000000	96.627605 
2186.000000	96.627005 
2185.000000	96.626318 
2184.000000	96.625542 
2183.000000	96.625103 
2182.000000	96.625440 
2181.000000	96.626469 
2180.000000	96.627418 
2179.000000	96.627605 
2178.000000	96.626961 
2177.000000	96.626078 
2176.000000	96.625708 
2175.000000	96.626148 
2174.000000	96.627124 
2173.000000	96.628116 
2172.000000	96.629008 
2171.000000	96.630251 
2170.000000	96.632143 
2169.000000	96.634102 
2168.000000	96.635208 
2167.000000	96.635480 
2166.000000	96.635907 
2165.000000	96.636831 
2164.000000	96.637072 
2163.000000	96.635458 
2162.000000	96.632950 
2161.000000	96.632312 
2160.000000	96.635483 
2159.000000	96.642085 
2158.000000	96.649948 
2157.000000	96.656703 
2156.000000	96.661150 
2155.000000	96.663570 
2154.000000	96.665302 
2153.000000	96.667815 
2152.000000	96.671545 
2151.000000	96.675413 
2150.000000	96.677717 
2149.000000	96.678033 
2148.000000	96.678214 
2147.000000	96.680748 
2146.000000	96.685951 
2145.000000	96.691605 
2144.000000	96.695796 
2143.000000	96.699036 
2142.000000	96.702614 
2141.000000	96.706178 
2140.000000	96.708665 
2139.000000	96.710994 
2138.000000	96.715646 
2137.000000	96.723243 
2136.000000	96.731011 
2135.000000	96.735443 
2134.000000	96.735298 
2133.000000	96.732033 
2132.000000	96.728881 
2131.000000	96.728839 
2130.000000	96.732589 
2129.000000	96.737946 
2128.000000	96.741853 
2127.000000	96.743338 
2126.000000	96.743928 
2125.000000	96.745387 
2124.000000	96.747872 
2123.000000	96.750389 
2122.000000	96.752106 
2121.000000	96.752757 
2120.000000	96.752448 
2119.000000	96.751584 
2118.000000	96.750761 
2117.000000	96.750516 
2116.000000	96.750894 
2115.000000	96.751049 
2114.000000	96.749547 
2113.000000	96.745847 
2112.000000	96.741670 
2111.000000	96.739919 
2110.000000	96.741716 
2109.000000	96.745211 
2108.000000	96.747819 
2107.000000	96.749021 
2106.000000	96.749946 
2105.000000	96.751338 
2104.000000	96.753180 
2103.000000	96.755350 
2102.000000	96.757249 
2101.000000	96.757413 
2100.000000	96.755124 
2099.000000	96.752217 
2098.000000	96.751751 
2097.000000	96.754643 
2096.000000	96.758983 
2095.000000	96.762300 
2094.000000	96.763820 
2093.000000	96.764077 
2092.000000	96.763656 
2091.000000	96.763129 
2090.000000	96.763255 
2089.000000	96.764414 
2088.000000	96.766043 
2087.000000	96.767077 
2086.000000	96.766924 
2085.000000	96.765804 
2084.000000	96.764470 
2083.000000	96.763744 
2082.000000	96.764104 
2081.000000	96.765495 
2080.000000	96.767544 
2079.000000	96.769854 
2078.000000	96.771889 
2077.000000	96.772871 
2076.000000	96.772390 
2075.000000	96.771135 
2074.000000	96.770371 
2073.000000	96.770340 
2072.000000	96.769969 
2071.000000	96.768342 
2070.000000	96.765848 
2069.000000	96.763686 
2068.000000	96.762743 
2067.000000	96.763079 
2066.000000	96.764034 
2065.000000	96.764529 
2064.000000	96.763773 
2063.000000	96.762088 
2062.000000	96.760836 
2061.000000	96.761240 
2060.000000	96.763335 
2059.000000	96.766243 
2058.000000	96.768840 
2057.000000	96.770206 
2056.000000	96.769938 
2055.000000	96.768269 
2054.000000	96.766134 
2053.000000	96.764667 
2052.000000	96.764378 
2051.000000	96.764797 
2050.000000	96.764930 
2049.000000	96.764209 
2048.000000	96.763021 
2047.000000	96.762252 
2046.000000	96.762351 
2045.000000	96.763024 
2044.000000	96.763759 
2043.000000	96.764377 
2042.000000	96.764999 
2041.000000	96.765750 
2040.000000	96.766746 
2039.000000	96.768206 
2038.000000	96.770174 
2037.000000	96.772144 
2036.000000	96.773330 
2035.000000	96.773438 
2034.000000	96.773030 
2033.000000	96.773104 
2032.000000	96.774246 
2031.000000	96.776132 
2030.000000	96.777671 
2029.000000	96.777847 
2028.000000	96.776589 
2027.000000	96.774792 
2026.000000	96.773381 
2025.000000	96.772642 
2024.000000	96.772578 
2023.000000	96.773441 
2022.000000	96.775535 
2021.000000	96.778464 
2020.000000	96.780885 
2019.000000	96.781462 
2018.000000	96.779818 
2017.000000	96.776719 
2016.000000	96.773720 
2015.000000	96.772034 
2014.000000	96.771701 
2013.000000	96.771678 
2012.000000	96.771035 
2011.000000	96.770290 
2010.000000	96.770766 
2009.000000	96.772727 
2008.000000	96.774898 
2007.000000	96.775969 
2006.000000	96.776013 
2005.000000	96.775905 
2004.000000	96.776040 
2003.000000	96.776198 
2002.000000	96.776286 
2001.000000	96.776410 
2000.000000	96.776325 
1999.000000	96.775398 
1998.000000	96.773321 
1997.000000	96.770613 
1996.000000	96.768323 
1995.000000	96.767169 
1994.000000	96.767062 
1993.000000	96.767290 
1992.000000	96.767165 
1991.000000	96.766681 
1990.000000	96.766419 
1989.000000	96.766805 
1988.000000	96.767632 
1987.000000	96.768222 
1986.000000	96.768070 
1985.000000	96.767233 
1984.000000	96.766232 
1983.000000	96.765634 
1982.000000	96.765604 
1981.000000	96.765947 
1980.000000	96.766422 
1979.000000	96.766924 
1978.000000	96.767369 
1977.000000	96.767658 
1976.000000	96.767791 
1975.000000	96.767914 
1974.000000	96.768174 
1973.000000	96.768598 
1972.000000	96.769118 
1971.000000	96.769648 
1970.000000	96.770099 
1969.000000	96.770390 
1968.000000	96.770494 
1967.000000	96.770476 
1966.000000	96.770520 
1965.000000	96.770788 
1964.000000	96.771317 
1963.000000	96.772024 
1962.000000	96.772775 
1961.000000	96.773458 
1960.000000	96.773979 
1959.000000	96.774287 
1958.000000	96.774441 
1957.000000	96.774600 
1956.000000	96.774902 
1955.000000	96.775356 
1954.000000	96.775847 
1953.000000	96.776241 
1952.000000	96.776505 
1951.000000	96.776690 
1950.000000	96.776861 
1949.000000	96.777103 
1948.000000	96.777527 
1947.000000	96.778176 
1946.000000	96.778852 
1945.000000	96.779211 
1944.000000	96.779076 
1943.000000	96.778586 
1942.000000	96.778078 
1941.000000	96.777735 
1940.000000	96.777567 
1939.000000	96.777518 
1938.000000	96.777492 
1937.000000	96.777492 
1936.000000	96.777710 
1935.000000	96.778223 
1934.000000	96.778688 
1933.000000	96.778751 
1932.000000	96.778646 
1931.000000	96.778969 
1930.000000	96.779832 
1929.000000	96.780533 
1928.000000	96.780543 
1927.000000	96.780208 
1926.000000	96.780082 
1925.000000	96.779981 
1924.000000	96.779317 
1923.000000	96.778212 
1922.000000	96.777350 
1921.000000	96.776851 
1920.000000	96.776323 
1919.000000	96.775679 
1918.000000	96.775101 
1917.000000	96.774424 
1916.000000	96.773344 
1915.000000	96.772332 
1914.000000	96.772076 
1913.000000	96.772273 
1912.000000	96.771889 
1911.000000	96.770716 
1910.000000	96.769579 
1909.000000	96.768987 
1908.000000	96.768767 
1907.000000	96.768706 
1906.000000	96.768620 
1905.000000	96.767810 
1904.000000	96.765578 
1903.000000	96.762700 
1902.000000	96.760849 
1901.000000	96.760390 
1900.000000	96.760312 
1899.000000	96.759957 
1898.000000	96.759592 
1897.000000	96.759288 
1896.000000	96.758278 
1895.000000	96.756124 
1894.000000	96.753429 
1893.000000	96.750923 
1892.000000	96.748807 
1891.000000	96.747333 
1890.000000	96.747001 
1889.000000	96.747822 
1888.000000	96.749027 
1887.000000	96.750066 
1886.000000	96.750830 
1885.000000	96.750723 
1884.000000	96.748886 
1883.000000	96.745682 
1882.000000	96.743006 
1881.000000	96.742287 
1880.000000	96.743245 
1879.000000	96.744507 
1878.000000	96.745011 
1877.000000	96.744914 
1876.000000	96.745066 
1875.000000	96.746139 
1874.000000	96.748207 
1873.000000	96.750622 
1872.000000	96.752525 
1871.000000	96.753497 
1870.000000	96.753476 
1869.000000	96.752652 
1868.000000	96.751765 
1867.000000	96.751869 
1866.000000	96.753110 
1865.000000	96.754203 
1864.000000	96.753958 
1863.000000	96.752993 
1862.000000	96.753049 
1861.000000	96.754722 
1860.000000	96.757086 
1859.000000	96.759479 
1858.000000	96.762175 
1857.000000	96.765072 
1856.000000	96.767510 
1855.000000	96.769403 
1854.000000	96.771207 
1853.000000	96.772807 
1852.000000	96.774081 
1851.000000	96.775672 
1850.000000	96.777975 
1849.000000	96.780380 
1848.000000	96.782047 
1847.000000	96.783193 
1846.000000	96.784701 
1845.000000	96.786743 
1844.000000	96.788698 
1843.000000	96.790293 
1842.000000	96.791821 
1841.000000	96.793492 
1840.000000	96.795486 
1839.000000	96.797901 
1838.000000	96.800414 
1837.000000	96.802251 
1836.000000	96.803003 
1835.000000	96.803313 
1834.000000	96.804245 
1833.000000	96.805992 
1832.000000	96.807983 
1831.000000	96.809462 
1830.000000	96.810126 
1829.000000	96.810604 
1828.000000	96.811595 
1827.000000	96.813152 
1826.000000	96.814874 
1825.000000	96.816253 
1824.000000	96.816972 
1823.000000	96.817161 
1822.000000	96.817405 
1821.000000	96.818037 
1820.000000	96.818669 
1819.000000	96.818789 
1818.000000	96.818918 
1817.000000	96.819759 
1816.000000	96.820564 
1815.000000	96.820662 
1814.000000	96.821081 
1813.000000	96.823330 
1812.000000	96.826586 
1811.000000	96.827891 
1810.000000	96.826742 
1809.000000	96.825344 
1808.000000	96.824489 
1807.000000	96.823523 
1806.000000	96.823063 
1805.000000	96.824263 
1804.000000	96.825944 
1803.000000	96.825638 
1802.000000	96.822519 
1801.000000	96.818712 
1800.000000	96.816383 
1799.000000	96.815529 
1798.000000	96.816214 
1797.000000	96.817916 
1796.000000	96.818660 
1795.000000	96.817851 
1794.000000	96.817169 
1793.000000	96.817739 
1792.000000	96.817626 
1791.000000	96.815337 
1790.000000	96.813738 
1789.000000	96.815528 
1788.000000	96.819680 
1787.000000	96.823533 
1786.000000	96.826293 
1785.000000	96.828861 
1784.000000	96.831121 
1783.000000	96.832820 
1782.000000	96.833699 
1781.000000	96.833818 
1780.000000	96.834086 
1779.000000	96.835413 
1778.000000	96.838741 
1777.000000	96.843450 
1776.000000	96.847941 
1775.000000	96.851210 
1774.000000	96.852937 
1773.000000	96.853436 
1772.000000	96.853635 
1771.000000	96.853354 
1770.000000	96.852248 
1769.000000	96.851472 
1768.000000	96.852315 
1767.000000	96.854715 
1766.000000	96.857481 
1765.000000	96.860027 
1764.000000	96.862393 
1763.000000	96.864080 
1762.000000	96.864461 
1761.000000	96.864631 
1760.000000	96.865743 
1759.000000	96.867195 
1758.000000	96.867863 
1757.000000	96.867554 
1756.000000	96.867997 
1755.000000	96.869579 
1754.000000	96.870296 
1753.000000	96.868770 
1752.000000	96.866244 
1751.000000	96.865539 
1750.000000	96.867614 
1749.000000	96.870534 
1748.000000	96.872423 
1747.000000	96.873509 
1746.000000	96.873862 
1745.000000	96.873545 
1744.000000	96.873386 
1743.000000	96.873481 
1742.000000	96.873083 
1741.000000	96.872681 
1740.000000	96.873872 
1739.000000	96.876779 
1738.000000	96.878979 
1737.000000	96.878724 
1736.000000	96.876463 
1735.000000	96.872726 
1734.000000	96.868586 
1733.000000	96.865908 
1732.000000	96.865142 
1731.000000	96.866760 
1730.000000	96.870749 
1729.000000	96.874329 
1728.000000	96.875404 
1727.000000	96.874700 
1726.000000	96.873164 
1725.000000	96.871406 
1724.000000	96.869738 
1723.000000	96.868632 
1722.000000	96.868943 
1721.000000	96.870071 
1720.000000	96.870390 
1719.000000	96.867880 
1718.000000	96.861876 
1717.000000	96.855192 
1716.000000	96.847366 
1715.000000	96.838283 
1714.000000	96.832963 
1713.000000	96.832950 
1712.000000	96.833417 
1711.000000	96.831663 
1710.000000	96.829198 
1709.000000	96.826711 
1708.000000	96.822836 
1707.000000	96.817530 
1706.000000	96.813221 
1705.000000	96.810357 
1704.000000	96.804349 
1703.000000	96.792996 
1702.000000	96.780161 
1701.000000	96.771666 
1700.000000	96.768273 
1699.000000	96.762871 
1698.000000	96.755638 
1697.000000	96.750598 
1696.000000	96.747215 
1695.000000	96.743616 
1694.000000	96.739212 
1693.000000	96.734336 
1692.000000	96.728992 
1691.000000	96.722765 
1690.000000	96.715473 
1689.000000	96.707339 
1688.000000	96.699372 
1687.000000	96.692415 
1686.000000	96.687258 
1685.000000	96.683372 
1684.000000	96.677460 
1683.000000	96.669214 
1682.000000	96.660589 
1681.000000	96.651569 
1680.000000	96.643593 
1679.000000	96.637401 
1678.000000	96.631518 
1677.000000	96.624439 
1676.000000	96.617046 
1675.000000	96.611667 
1674.000000	96.605874 
1673.000000	96.596985 
1672.000000	96.587260 
1671.000000	96.580021 
1670.000000	96.574423 
1669.000000	96.566955 
1668.000000	96.559535 
1667.000000	96.555171 
1666.000000	96.551359 
1665.000000	96.546210 
1664.000000	96.541129 
1663.000000	96.537986 
1662.000000	96.533771 
1661.000000	96.522877 
1660.000000	96.508760 
1659.000000	96.500035 
1658.000000	96.496880 
1657.000000	96.492642 
1656.000000	96.483712 
1655.000000	96.473319 
1654.000000	96.460096 
1653.000000	96.447313 
1652.000000	96.439364 
1651.000000	96.431620 
1650.000000	96.419245 
1649.000000	96.408742 
1648.000000	96.399683 
1647.000000	96.389279 
1646.000000	96.381903 
1645.000000	96.379792 
1644.000000	96.377768 
1643.000000	96.374431 
1642.000000	96.373455 
1641.000000	96.374819 
1640.000000	96.375651 
1639.000000	96.372994 
1638.000000	96.367958 
1637.000000	96.363214 
1636.000000	96.359127 
1635.000000	96.359775 
1634.000000	96.363999 
1633.000000	96.365851 
1632.000000	96.363040 
1631.000000	96.360438 
1630.000000	96.362536 
1629.000000	96.368081 
1628.000000	96.372766 
1627.000000	96.376860 
1626.000000	96.381809 
1625.000000	96.386361 
1624.000000	96.389954 
1623.000000	96.395320 
1622.000000	96.403356 
1621.000000	96.408912 
1620.000000	96.411510 
1619.000000	96.417079 
1618.000000	96.429702 
1617.000000	96.442690 
1616.000000	96.448184 
1615.000000	96.449674 
1614.000000	96.452168 
1613.000000	96.454663 
1612.000000	96.456082 
1611.000000	96.459182 
1610.000000	96.466105 
1609.000000	96.475112 
1608.000000	96.485543 
1607.000000	96.498829 
1606.000000	96.511703 
1605.000000	96.519013 
1604.000000	96.522686 
1603.000000	96.527739 
1602.000000	96.534498 
1601.000000	96.539884 
1600.000000	96.543898 
1599.000000	96.549409 
1598.000000	96.556432 
1597.000000	96.562722 
1596.000000	96.568073 
1595.000000	96.574686 
1594.000000	96.583127 
1593.000000	96.590901 
1592.000000	96.596579 
1591.000000	96.601881 
1590.000000	96.608148 
1589.000000	96.614263 
1588.000000	96.620080 
1587.000000	96.627532 
1586.000000	96.636469 
1585.000000	96.642726 
1584.000000	96.645597 
1583.000000	96.649659 
1582.000000	96.656561 
1581.000000	96.662963 
1580.000000	96.667681 
1579.000000	96.674015 
1578.000000	96.684269 
1577.000000	96.696131 
1576.000000	96.705618 
1575.000000	96.712781 
1574.000000	96.716900 
1573.000000	96.717938 
1572.000000	96.720547 
1571.000000	96.728519 
1570.000000	96.737294 
1569.000000	96.738095 
1568.000000	96.734297 
1567.000000	96.734320 
1566.000000	96.737907 
1565.000000	96.740438 
1564.000000	96.742768 
1563.000000	96.744730 
1562.000000	96.746519 
1561.000000	96.743164 
1560.000000	96.743527 
1559.000000	96.746267 
1558.000000	96.749488 
1557.000000	96.751444 
1556.000000	96.750137 
1555.000000	96.749993 
1554.000000	96.751289 
1553.000000	96.752048 
1552.000000	96.752144 
1551.000000	96.749155 
1550.000000	96.742593 
1549.000000	96.736392 
1548.000000	96.734920 
1547.000000	96.738266 
1546.000000	96.741607 
1545.000000	96.740345 
1544.000000	96.735739 
1543.000000	96.732553 
1542.000000	96.734349 
1541.000000	96.739368 
1540.000000	96.735988 
1539.000000	96.725008 
1538.000000	96.713406 
1537.000000	96.700404 
1536.000000	96.686864 
1535.000000	96.677709 
1534.000000	96.674017 
1533.000000	96.672421 
1532.000000	96.668706 
1531.000000	96.661273 
1530.000000	96.652766 
1529.000000	96.645215 
1528.000000	96.636566 
1527.000000	96.625450 
1526.000000	96.613898 
1525.000000	96.605118 
1524.000000	96.599914 
1523.000000	96.596530 
1522.000000	96.591443 
1521.000000	96.582137 
1520.000000	96.569566 
1519.000000	96.555934 
1518.000000	96.542201 
1517.000000	96.528572 
1516.000000	96.516045 
1515.000000	96.506678 
1514.000000	96.500891 
1513.000000	96.497417 
1512.000000	96.493120 
1511.000000	96.483610 
1510.000000	96.469224 
1509.000000	96.453440 
1508.000000	96.439914 
1507.000000	96.426851 
1506.000000	96.417635 
1505.000000	96.412168 
1504.000000	96.404313 
1503.000000	96.392594 
1502.000000	96.379371 
1501.000000	96.366905 
1500.000000	96.356472 
1499.000000	96.346600 
1498.000000	96.334619 
1497.000000	96.322002 
1496.000000	96.311830 
1495.000000	96.303913 
1494.000000	96.297059 
1493.000000	96.291812 
1492.000000	96.288618 
1491.000000	96.285440 
1490.000000	96.278955 
1489.000000	96.269431 
1488.000000	96.257912 
1487.000000	96.244403 
1486.000000	96.231297 
1485.000000	96.218600 
1484.000000	96.205485 
1483.000000	96.193530 
1482.000000	96.184013 
1481.000000	96.176391 
1480.000000	96.167992 
1479.000000	96.157517 
1478.000000	96.146241 
1477.000000	96.135608 
1476.000000	96.123981 
1475.000000	96.109775 
1474.000000	96.095643 
1473.000000	96.086443 
1472.000000	96.084160 
1471.000000	96.084067 
1470.000000	96.081490 
1469.000000	96.076090 
1468.000000	96.068491 
1467.000000	96.059291 
1466.000000	96.051351 
1465.000000	96.048171 
1464.000000	96.049742 
1463.000000	96.049896 
1462.000000	96.044236 
1461.000000	96.035280 
1460.000000	96.027929 
1459.000000	96.022670 
1458.000000	96.012587 
1457.000000	95.996817 
1456.000000	95.987659 
1455.000000	95.985572 
1454.000000	95.981757 
1453.000000	95.976994 
1452.000000	95.975994 
1451.000000	95.979082 
1450.000000	95.983731 
1449.000000	95.989695 
1448.000000	95.995942 
1447.000000	95.999086 
1446.000000	95.996907 
1445.000000	95.992341 
1444.000000	95.990477 
1443.000000	95.990497 
1442.000000	95.988929 
1441.000000	95.985107 
1440.000000	95.981102 
1439.000000	95.976119 
1438.000000	95.967643 
1437.000000	95.958282 
1436.000000	95.955440 
1435.000000	95.957817 
1434.000000	95.958938 
1433.000000	95.959391 
1432.000000	95.962731 
1431.000000	95.968343 
1430.000000	95.972160 
1429.000000	95.974077 
1428.000000	95.976178 
1427.000000	95.978871 
1426.000000	95.981159 
1425.000000	95.983734 
1424.000000	95.990236 
1423.000000	95.998333 
1422.000000	96.002221 
1421.000000	96.002516 
1420.000000	96.005138 
1419.000000	96.007459 
1418.000000	96.001892 
1417.000000	95.994503 
1416.000000	95.996742 
1415.000000	96.008528 
1414.000000	96.020099 
1413.000000	96.024885 
1412.000000	96.026507 
1411.000000	96.029786 
1410.000000	96.033774 
1409.000000	96.038141 
1408.000000	96.045026 
1407.000000	96.054995 
1406.000000	96.065664 
1405.000000	96.076690 
1404.000000	96.092489 
1403.000000	96.111885 
1402.000000	96.128451 
1401.000000	96.141932 
1400.000000	96.158451 
1399.000000	96.179508 
1398.000000	96.197195 
1397.000000	96.205238 
1396.000000	96.206950 
1395.000000	96.211429 
1394.000000	96.223860 
1393.000000	96.243675 
1392.000000	96.269318 
1391.000000	96.296965 
1390.000000	96.320754 
1389.000000	96.336942 
1388.000000	96.346235 
1387.000000	96.352643 
1386.000000	96.360005 
1385.000000	96.370303 
1384.000000	96.384623 
1383.000000	96.401648 
1382.000000	96.417918 
1381.000000	96.431428 
1380.000000	96.443002 
1379.000000	96.455116 
1378.000000	96.469472 
1377.000000	96.485788 
1376.000000	96.502212 
1375.000000	96.516645 
1374.000000	96.528260 
1373.000000	96.539648 
1372.000000	96.554063 
1371.000000	96.572035 
1370.000000	96.590840 
1369.000000	96.606563 
1368.000000	96.619262 
1367.000000	96.631698 
1366.000000	96.645026 
1365.000000	96.658406 
1364.000000	96.669683 
1363.000000	96.676749 
1362.000000	96.680923 
1361.000000	96.686765 
1360.000000	96.697447 
1359.000000	96.712793 
1358.000000	96.730059 
1357.000000	96.745797 
1356.000000	96.758146 
1355.000000	96.767354 
1354.000000	96.774873 
1353.000000	96.783334 
1352.000000	96.793432 
1351.000000	96.804630 
1350.000000	96.816238 
1349.000000	96.826134 
1348.000000	96.833327 
1347.000000	96.839047 
1346.000000	96.845403 
1345.000000	96.853102 
1344.000000	96.861092 
1343.000000	96.868119 
1342.000000	96.873486 
1341.000000	96.876174 
1340.000000	96.875170 
1339.000000	96.871817 
1338.000000	96.869365 
1337.000000	96.869973 
1336.000000	96.873259 
1335.000000	96.877146 
1334.000000	96.879895 
1333.000000	96.881434 
1332.000000	96.882509 
1331.000000	96.883762 
1330.000000	96.885247 
1329.000000	96.886784 
1328.000000	96.888292 
1327.000000	96.890246 
1326.000000	96.892405 
1325.000000	96.892920 
1324.000000	96.891001 
1323.000000	96.887820 
1322.000000	96.884867 
1321.000000	96.882757 
1320.000000	96.881667 
1319.000000	96.881633 
1318.000000	96.882326 
1317.000000	96.883282 
1316.000000	96.883878 
1315.000000	96.882939 
1314.000000	96.879567 
1313.000000	96.875396 
1312.000000	96.874043 
1311.000000	96.877123 
1310.000000	96.882011 
1309.000000	96.885315 
1308.000000	96.886613 
1307.000000	96.888088 
1306.000000	96.890984 
1305.000000	96.894040 
1304.000000	96.895727 
1303.000000	96.895213 
1302.000000	96.892142 
1301.000000	96.887375 
1300.000000	96.883788 
1299.000000	96.884133 
1298.000000	96.887847 
1297.000000	96.891293 
1296.000000	96.891453 
1295.000000	96.888722 
1294.000000	96.885805 
1293.000000	96.885035 
1292.000000	96.886791 
1291.000000	96.889607 
1290.000000	96.891684 
1289.000000	96.892413 
1288.000000	96.892200 
1287.000000	96.891096 
1286.000000	96.888580 
1285.000000	96.885138 
1284.000000	96.882820 
1283.000000	96.882831 
1282.000000	96.883707 
1281.000000	96.882953 
1280.000000	96.880146 
1279.000000	96.877413 
1278.000000	96.877108 
1277.000000	96.879928 
1276.000000	96.884715 
1275.000000	96.889357 
1274.000000	96.892070 
1273.000000	96.892753 
1272.000000	96.892939 
1271.000000	96.893699 
1270.000000	96.894096 
1269.000000	96.892467 
1268.000000	96.888783 
1267.000000	96.884377 
1266.000000	96.880061 
1265.000000	96.876473 
1264.000000	96.875409 
1263.000000	96.878350 
1262.000000	96.883786 
1261.000000	96.887814 
1260.000000	96.888507 
1259.000000	96.888207 
1258.000000	96.890169 
1257.000000	96.894082 
1256.000000	96.896144 
1255.000000	96.893719 
1254.000000	96.889039 
1253.000000	96.886812 
1252.000000	96.888016 
1251.000000	96.888311 
1250.000000	96.884221 
1249.000000	96.878990 
1248.000000	96.879327 
1247.000000	96.886521 
1246.000000	96.894140 
1245.000000	96.895652 
1244.000000	96.891075 
1243.000000	96.885042 
1242.000000	96.881749 
1241.000000	96.883421 
1240.000000	96.890210 
1239.000000	96.898610 
1238.000000	96.902499 
1237.000000	96.898763 
1236.000000	96.890390 
1235.000000	96.882173 
1234.000000	96.875339 
1233.000000	96.868421 
1232.000000	96.860816 
1231.000000	96.852428 
1230.000000	96.841970 
1229.000000	96.828860 
1228.000000	96.814856 
1227.000000	96.800691 
1226.000000	96.782916 
1225.000000	96.757576 
1224.000000	96.725807 
1223.000000	96.692401 
1222.000000	96.659524 
1221.000000	96.625033 
1220.000000	96.586592 
1219.000000	96.544160 
1218.000000	96.498323 
1217.000000	96.449003 
1216.000000	96.395945 
1215.000000	96.338552 
1214.000000	96.275991 
1213.000000	96.209661 
1212.000000	96.143947 
1211.000000	96.081128 
1210.000000	96.017036 
1209.000000	95.945826 
1208.000000	95.868113 
1207.000000	95.790129 
1206.000000	95.715185 
1205.000000	95.640267 
1204.000000	95.561386 
1203.000000	95.478235 
1202.000000	95.393021 
1201.000000	95.307983 
1200.000000	95.224747 
1199.000000	95.143267 
1198.000000	95.060843 
1197.000000	94.974962 
1196.000000	94.886852 
1195.000000	94.799451 
1194.000000	94.712558 
1193.000000	94.623190 
1192.000000	94.530182 
1191.000000	94.434816 
1190.000000	94.337276 
1189.000000	94.236317 
1188.000000	94.132359 
1187.000000	94.027294 
1186.000000	93.921378 
1185.000000	93.813699 
1184.000000	93.705036 
1183.000000	93.596565 
1182.000000	93.486715 
1181.000000	93.373303 
1180.000000	93.257702 
1179.000000	93.142260 
1178.000000	93.024527 
1177.000000	92.899375 
1176.000000	92.766293 
1175.000000	92.629400 
1174.000000	92.490778 
1173.000000	92.349451 
1172.000000	92.206621 
1171.000000	92.065376 
1170.000000	91.924900 
1169.000000	91.781815 
1168.000000	91.638524 
1167.000000	91.504367 
1166.000000	91.388276 
1165.000000	91.296974 
1164.000000	91.240055 
1163.000000	91.227455 
1162.000000	91.258322 
1161.000000	91.317574 
1160.000000	91.384525 
1159.000000	91.439943 
1158.000000	91.466563 
1157.000000	91.452508 
1156.000000	91.397510 
1155.000000	91.310984 
1154.000000	91.202872 
1153.000000	91.080536 
1152.000000	90.953144 
1151.000000	90.830453 
1150.000000	90.714900 
1149.000000	90.601741 
1148.000000	90.488614 
1147.000000	90.378040 
1146.000000	90.269527 
1145.000000	90.157564 
1144.000000	90.040049 
1143.000000	89.921315 
1142.000000	89.804165 
1141.000000	89.685938 
1140.000000	89.564965 
1139.000000	89.443974 
1138.000000	89.324730 
1137.000000	89.205868 
1136.000000	89.087673 
1135.000000	88.971997 
1134.000000	88.856080 
1133.000000	88.734029 
1132.000000	88.605798 
1131.000000	88.476989 
1130.000000	88.348723 
1129.000000	88.216171 
1128.000000	88.078414 
1127.000000	87.940588 
1126.000000	87.804251 
1125.000000	87.664763 
1124.000000	87.520677 
1123.000000	87.376790 
1122.000000	87.235372 
1121.000000	87.093363 
1120.000000	86.950629 
1119.000000	86.811502 
1118.000000	86.675863 
1117.000000	86.539023 
1116.000000	86.402791 
1115.000000	86.275941 
1114.000000	86.160775 
1113.000000	86.050036 
1112.000000	85.939656 
1111.000000	85.833057 
1110.000000	85.730289 
1109.000000	85.625331 
1108.000000	85.516668 
1107.000000	85.408666 
1106.000000	85.300763 
1105.000000	85.187237 
1104.000000	85.069052 
1103.000000	84.953770 
1102.000000	84.841329 
1101.000000	84.724588 
1100.000000	84.604085 
1099.000000	84.489308 
1098.000000	84.383770 
1097.000000	84.280542 
1096.000000	84.175515 
1095.000000	84.070524 
1094.000000	83.962462 
1093.000000	83.844508 
1092.000000	83.720999 
1091.000000	83.606239 
1090.000000	83.505425 
1089.000000	83.410492 
1088.000000	83.316083 
1087.000000	83.224058 
1086.000000	83.131047 
1085.000000	83.028959 
1084.000000	82.920828 
1083.000000	82.819402 
1082.000000	82.726669 
1081.000000	82.631291 
1080.000000	82.529351 
1079.000000	82.430037 
1078.000000	82.336632 
1077.000000	82.239073 
1076.000000	82.130011 
1075.000000	82.011583 
1074.000000	81.882378 
1073.000000	81.734516 
1072.000000	81.567085 
1071.000000	81.385027 
1070.000000	81.181231 
1069.000000	80.938902 
1068.000000	80.657713 
1067.000000	80.360677 
1066.000000	80.069140 
1065.000000	79.786743 
1064.000000	79.512460 
1063.000000	79.248659 
1062.000000	78.988053 
1061.000000	78.712559 
1060.000000	78.415678 
1059.000000	78.110864 
1058.000000	77.810258 
1057.000000	77.510508 
1056.000000	77.205888 
1055.000000	76.898210 
1054.000000	76.586554 
1053.000000	76.264060 
1052.000000	75.932733 
1051.000000	75.604528 
1050.000000	75.280327 
1049.000000	74.946874 
1048.000000	74.600824 
1047.000000	74.254495 
1046.000000	73.913443 
1045.000000	73.570494 
1044.000000	73.225291 
1043.000000	72.887817 
1042.000000	72.558552 
1041.000000	72.226120 
1040.000000	71.889468 
1039.000000	71.562195 
1038.000000	71.251037 
1037.000000	70.951135 
1036.000000	70.665421 
1035.000000	70.405630 
1034.000000	70.170399 
1033.000000	69.945507 
1032.000000	69.728864 
1031.000000	69.531299 
1030.000000	69.350777 
1029.000000	69.172953 
1028.000000	69.000920 
1027.000000	68.856043 
1026.000000	68.743185 
1025.000000	68.641825 
1024.000000	68.537549 
1023.000000	68.435886 
1022.000000	68.338948 
1021.000000	68.236130 
1020.000000	68.125586 
1019.000000	68.019314 
1018.000000	67.919765 
1017.000000	67.815696 
1016.000000	67.706529 
1015.000000	67.605786 
1014.000000	67.515289 
1013.000000	67.421401 
1012.000000	67.321582 
1011.000000	67.229045 
1010.000000	67.146879 
1009.000000	67.064301 
1008.000000	66.983170 
1007.000000	66.921115 
1006.000000	66.883135 
1005.000000	66.856452 
1004.000000	66.837534 
1003.000000	66.836678 
1002.000000	66.851441 
1001.000000	66.864387 
1000.000000	66.873355 
999.000000	 66.896113 
998.000000	 66.938750 
997.000000	 66.986764 
996.000000	 67.033233 
995.000000	 67.088565 
994.000000	 67.156025 
993.000000	 67.224747 
992.000000	 67.293253 
991.000000	 67.373265 
990.000000	 67.464415 
989.000000	 67.552085 
988.000000	 67.636201 
987.000000	 67.735247 
986.000000	 67.855966 
985.000000	 67.986192 
984.000000	 68.122981 
983.000000	 68.279719 
982.000000	 68.458553 
981.000000	 68.643507 
980.000000	 68.828572 
979.000000	 69.026354 
978.000000	 69.241588 
977.000000	 69.462725 
976.000000	 69.687135 
975.000000	 69.928332 
974.000000	 70.189811 
973.000000	 70.456706 
972.000000	 70.721665 
971.000000	 70.995259 
970.000000	 71.282822 
969.000000	 71.574230 
968.000000	 71.864144 
967.000000	 72.160056 
966.000000	 72.463112 
965.000000	 72.762576 
964.000000	 73.055668 
963.000000	 73.351727 
962.000000	 73.651174 
961.000000	 73.941609 
960.000000	 74.220089 
959.000000	 74.497934 
958.000000	 74.778027 
957.000000	 75.048548 
956.000000	 75.305088 
955.000000	 75.558377 
954.000000	 75.814108 
953.000000	 76.064377 
952.000000	 76.304237 
951.000000	 76.537407 
950.000000	 76.761357 
949.000000	 76.966454 
948.000000	 77.154372 
947.000000	 77.338174 
946.000000	 77.519684 
945.000000	 77.685824 
944.000000	 77.831627 
943.000000	 77.967868 
942.000000	 78.101950 
941.000000	 78.230299 
940.000000	 78.354296 
939.000000	 78.484025 
938.000000	 78.620582 
937.000000	 78.753086 
936.000000	 78.878486 
935.000000	 79.006634 
934.000000	 79.141523 
933.000000	 79.275751 
932.000000	 79.407870 
931.000000	 79.546672 
930.000000	 79.693507 
929.000000	 79.838050 
928.000000	 79.976073 
927.000000	 80.114065 
926.000000	 80.252321 
925.000000	 80.380649 
924.000000	 80.494712 
923.000000	 80.600324 
922.000000	 80.699116 
921.000000	 80.786846 
920.000000	 80.867684 
919.000000	 80.952029 
918.000000	 81.037687 
917.000000	 81.111526 
916.000000	 81.172844 
915.000000	 81.237709 
914.000000	 81.318140 
913.000000	 81.415252 
912.000000	 81.534055 
911.000000	 81.684743 
910.000000	 81.866280 
909.000000	 82.068008 
908.000000	 82.289806 
907.000000	 82.541276 
906.000000	 82.820006 
905.000000	 83.111566 
904.000000	 83.412276 
903.000000	 83.730305 
902.000000	 84.062490 
901.000000	 84.392163 
900.000000	 84.712908 
899.000000	 85.033960 
898.000000	 85.359471 
897.000000	 85.681898 
896.000000	 85.997141 
895.000000	 86.306248 
894.000000	 86.601535 
893.000000	 86.871999 
892.000000	 87.124140 
891.000000	 87.377198 
890.000000	 87.635347 
889.000000	 87.883682 
888.000000	 88.112931 
887.000000	 88.327799 
886.000000	 88.529815 
885.000000	 88.713377 
884.000000	 88.881550 
883.000000	 89.044940 
882.000000	 89.202268 
881.000000	 89.344097 
880.000000	 89.478665 
879.000000	 89.629517 
878.000000	 89.801677 
877.000000	 89.975055 
876.000000	 90.138659 
875.000000	 90.306221 
874.000000	 90.489655 
873.000000	 90.682277 
872.000000	 90.878594 
871.000000	 91.086790 
870.000000	 91.309677 
869.000000	 91.533686 
868.000000	 91.748180 
867.000000	 91.958732 
866.000000	 92.172256 
865.000000	 92.385087 
864.000000	 92.594496 
863.000000	 92.807187 
862.000000	 93.027420 
861.000000	 93.248895 
860.000000	 93.465163 
859.000000	 93.676254 
858.000000	 93.880169 
857.000000	 94.070493 
856.000000	 94.247245 
855.000000	 94.417686 
854.000000	 94.581914 
853.000000	 94.730114 
852.000000	 94.858616 
851.000000	 94.976358 
850.000000	 95.091171 
849.000000	 95.201578 
848.000000	 95.305699 
847.000000	 95.405325 
846.000000	 95.497127 
845.000000	 95.572536 
844.000000	 95.630386 
843.000000	 95.677707 
842.000000	 95.715330 
841.000000	 95.735525 
840.000000	 95.736184 
839.000000	 95.723299 
838.000000	 95.697124 
837.000000	 95.651958 
836.000000	 95.594524 
835.000000	 95.546367 
834.000000	 95.519883 
833.000000	 95.505629 
832.000000	 95.491310 
831.000000	 95.479927 
830.000000	 95.480751 
829.000000	 95.495470 
828.000000	 95.523630 
827.000000	 95.570453 
826.000000	 95.638480 
825.000000	 95.720732 
824.000000	 95.809902 
823.000000	 95.903554 
822.000000	 95.995229 
821.000000	 96.074215 
820.000000	 96.138563 
819.000000	 96.194569 
818.000000	 96.239876 
817.000000	 96.259907 
816.000000	 96.244585 
815.000000	 96.197104 
814.000000	 96.121993 
813.000000	 96.014519 
812.000000	 95.865299 
811.000000	 95.664333 
810.000000	 95.396066 
809.000000	 95.042184 
808.000000	 94.596951 
807.000000	 94.073403 
806.000000	 93.491650 
805.000000	 92.870663 
804.000000	 92.234920 
803.000000	 91.615938 
802.000000	 91.040217 
801.000000	 90.527084 
800.000000	 90.101381 
799.000000	 89.790343 
798.000000	 89.600177 
797.000000	 89.511139 
796.000000	 89.500506 
795.000000	 89.553306 
794.000000	 89.648315 
793.000000	 89.756378 
792.000000	 89.860413 
791.000000	 89.959314 
790.000000	 90.047153 
789.000000	 90.106410 
788.000000	 90.125531 
787.000000	 90.104384 
786.000000	 90.038254 
785.000000	 89.915685 
784.000000	 89.738370 
783.000000	 89.526241 
782.000000	 89.298778 
781.000000	 89.070277 
780.000000	 88.867115 
779.000000	 88.725812 
778.000000	 88.663900 
777.000000	 88.671599 
776.000000	 88.738546 
775.000000	 88.866542 
774.000000	 89.047628 
773.000000	 89.252889 
772.000000	 89.455496 
771.000000	 89.647539 
770.000000	 89.825885 
769.000000	 89.980495 
768.000000	 90.105951 
767.000000	 90.207116 
766.000000	 90.285148 
765.000000	 90.335379 
764.000000	 90.367040 
763.000000	 90.406206 
762.000000	 90.468252 
761.000000	 90.543003 
760.000000	 90.615877 
759.000000	 90.687232 
758.000000	 90.762559 
757.000000	 90.842092 
756.000000	 90.931057 
755.000000	 91.042837 
754.000000	 91.178419 
753.000000	 91.315536 
752.000000	 91.429543 
751.000000	 91.515619 
750.000000	 91.584979 
749.000000	 91.652204 
748.000000	 91.731975 
747.000000	 91.833603 
746.000000	 91.950884 
745.000000	 92.069748 
744.000000	 92.191295 
743.000000	 92.332798 
742.000000	 92.500523 
741.000000	 92.678010 
740.000000	 92.848602 
739.000000	 93.014115 
738.000000	 93.183125 
737.000000	 93.354537 
736.000000	 93.521041 
735.000000	 93.677298 
734.000000	 93.817817 
733.000000	 93.937387 
732.000000	 94.038359 
731.000000	 94.127398 
730.000000	 94.202755 
729.000000	 94.256784 
728.000000	 94.293688 
727.000000	 94.330743 
726.000000	 94.379761 
725.000000	 94.441438 
724.000000	 94.516983 
723.000000	 94.607884 
722.000000	 94.703623 
721.000000	 94.788969 
720.000000	 94.867292 
719.000000	 94.956785 
718.000000	 95.059777 
717.000000	 95.157997 
716.000000	 95.240588 
715.000000	 95.314922 
714.000000	 95.386062 
713.000000	 95.447165 
712.000000	 95.498290 
711.000000	 95.553488 
710.000000	 95.618814 
709.000000	 95.681610 
708.000000	 95.731617 
707.000000	 95.773813 
706.000000	 95.809346 
705.000000	 95.823339 
704.000000	 95.802199 
703.000000	 95.744716 
702.000000	 95.645961 
701.000000	 95.486716 
700.000000	 95.251109 
699.000000	 94.944220 
698.000000	 94.587040 
697.000000	 94.214157 
696.000000	 93.882961 
695.000000	 93.659274 
694.000000	 93.576893 
693.000000	 93.619402 
692.000000	 93.746035 
691.000000	 93.921671 
690.000000	 94.118098 
689.000000	 94.310313 
688.000000	 94.486254 
687.000000	 94.646531 
686.000000	 94.787227 
685.000000	 94.898601 
684.000000	 94.985538 
683.000000	 95.068855 
682.000000	 95.159757 
681.000000	 95.252250 
680.000000	 95.343754 
679.000000	 95.442956 
678.000000	 95.548134 
677.000000	 95.645198 
676.000000	 95.735224 
675.000000	 95.832334 
674.000000	 95.931179 
673.000000	 96.007058 
672.000000	 96.054082 
671.000000	 96.103661 
670.000000	 96.198421 
669.000000	 96.345155 
668.000000	 96.491959 
667.000000	 96.591345 
666.000000	 96.639677 
665.000000	 96.644587 
664.000000	 96.636822 
663.000000	 96.651967 
662.000000	 96.708255 
661.000000	 96.779926 
660.000000	 96.846343 
659.000000	 96.913459 
658.000000	 96.977000 
657.000000	 97.003852 
656.000000	 96.981133 
655.000000	 96.937028 
654.000000	 96.896852 
653.000000	 96.854165 
652.000000	 96.811133 
651.000000	 96.803504 
650.000000	 96.846713 

