4000.000000	97.262982 
3999.000000	97.259513 
3998.000000	97.253331 
3997.000000	97.245693 
3996.000000	97.238734 
3995.000000	97.234364 
3994.000000	97.233521 
3993.000000	97.235706 
3992.000000	97.239095 
3991.000000	97.241538 
3990.000000	97.241928 
3989.000000	97.240569 
3988.000000	97.238459 
3987.000000	97.236607 
3986.000000	97.235749 
3985.000000	97.236047 
3984.000000	97.236931 
3983.000000	97.237593 
3982.000000	97.237946 
3981.000000	97.238660 
3980.000000	97.240064 
3979.000000	97.241479 
3978.000000	97.242013 
3977.000000	97.241623 
3976.000000	97.240930 
3975.000000	97.240068 
3974.000000	97.238364 
3973.000000	97.235246 
3972.000000	97.230980 
3971.000000	97.226505 
3970.000000	97.222839 
3969.000000	97.220788 
3968.000000	97.220699 
3967.000000	97.222248 
3966.000000	97.224490 
3965.000000	97.226133 
3964.000000	97.226091 
3963.000000	97.224131 
3962.000000	97.221184 
3961.000000	97.218778 
3960.000000	97.217696 
3959.000000	97.217461 
3958.000000	97.217146 
3957.000000	97.216438 
3956.000000	97.215594 
3955.000000	97.214842 
3954.000000	97.214188 
3953.000000	97.213554 
3952.000000	97.212890 
3951.000000	97.212143 
3950.000000	97.211299 
3949.000000	97.210444 
3948.000000	97.209733 
3947.000000	97.209298 
3946.000000	97.209090 
3945.000000	97.208855 
3944.000000	97.208293 
3943.000000	97.207350 
3942.000000	97.206317 
3941.000000	97.205583 
3940.000000	97.205260 
3939.000000	97.205160 
3938.000000	97.205052 
3937.000000	97.204926 
3936.000000	97.204832 
3935.000000	97.204598 
3934.000000	97.203962 
3933.000000	97.202889 
3932.000000	97.201677 
3931.000000	97.200658 
3930.000000	97.199935 
3929.000000	97.199535 
3928.000000	97.199465 
3927.000000	97.199560 
3926.000000	97.199416 
3925.000000	97.198825 
3924.000000	97.198104 
3923.000000	97.197657 
3922.000000	97.197456 
3921.000000	97.197246 
3920.000000	97.196964 
3919.000000	97.196709 
3918.000000	97.196381 
3917.000000	97.195810 
3916.000000	97.195084 
3915.000000	97.194483 
3914.000000	97.194107 
3913.000000	97.193830 
3912.000000	97.193484 
3911.000000	97.193010 
3910.000000	97.192413 
3909.000000	97.191740 
3908.000000	97.191038 
3907.000000	97.190325 
3906.000000	97.189572 
3905.000000	97.188789 
3904.000000	97.188031 
3903.000000	97.187343 
3902.000000	97.186720 
3901.000000	97.186140 
3900.000000	97.185599 
3899.000000	97.185076 
3898.000000	97.184551 
3897.000000	97.184008 
3896.000000	97.183439 
3895.000000	97.182850 
3894.000000	97.182255 
3893.000000	97.181669 
3892.000000	97.181100 
3891.000000	97.180549 
3890.000000	97.180021 
3889.000000	97.179519 
3888.000000	97.179035 
3887.000000	97.178547 
3886.000000	97.178039 
3885.000000	97.177514 
3884.000000	97.176984 
3883.000000	97.176457 
3882.000000	97.175936 
3881.000000	97.175437 
3880.000000	97.174979 
3879.000000	97.174574 
3878.000000	97.174208 
3877.000000	97.173851 
3876.000000	97.173470 
3875.000000	97.173049 
3874.000000	97.172588 
3873.000000	97.172101 
3872.000000	97.171602 
3871.000000	97.171106 
3870.000000	97.170647 
3869.000000	97.170269 
3868.000000	97.169995 
3867.000000	97.169805 
3866.000000	97.169657 
3865.000000	97.169528 
3864.000000	97.169411 
3863.000000	97.169293 
3862.000000	97.169146 
3861.000000	97.168955 
3860.000000	97.168720 
3859.000000	97.168448 
3858.000000	97.168155 
3857.000000	97.167860 
3856.000000	97.167591 
3855.000000	97.167363 
3854.000000	97.167176 
3853.000000	97.167023 
3852.000000	97.166888 
3851.000000	97.166753 
3850.000000	97.166609 
3849.000000	97.166453 
3848.000000	97.166285 
3847.000000	97.166110 
3846.000000	97.165937 
3845.000000	97.165755 
3844.000000	97.165552 
3843.000000	97.165350 
3842.000000	97.165213 
3841.000000	97.165206 
3840.000000	97.165281 
3839.000000	97.165295 
3838.000000	97.165111 
3837.000000	97.164638 
3836.000000	97.163892 
3835.000000	97.163053 
3834.000000	97.162394 
3833.000000	97.162103 
3832.000000	97.162210 
3831.000000	97.162682 
3830.000000	97.163435 
3829.000000	97.164336 
3828.000000	97.165157 
3827.000000	97.165617 
3826.000000	97.165595 
3825.000000	97.165300 
3824.000000	97.164907 
3823.000000	97.164263 
3822.000000	97.163244 
3821.000000	97.162248 
3820.000000	97.161888 
3819.000000	97.162252 
3818.000000	97.162995 
3817.000000	97.163580 
3816.000000	97.163896 
3815.000000	97.164193 
3814.000000	97.164467 
3813.000000	97.164450 
3812.000000	97.164104 
3811.000000	97.163715 
3810.000000	97.163586 
3809.000000	97.163712 
3808.000000	97.163827 
3807.000000	97.163761 
3806.000000	97.163669 
3805.000000	97.163752 
3804.000000	97.163962 
3803.000000	97.164064 
3802.000000	97.163922 
3801.000000	97.163764 
3800.000000	97.163843 
3799.000000	97.164050 
3798.000000	97.164163 
3797.000000	97.164196 
3796.000000	97.164408 
3795.000000	97.164907 
3794.000000	97.165471 
3793.000000	97.165794 
3792.000000	97.165850 
3791.000000	97.165814 
3790.000000	97.165703 
3789.000000	97.165316 
3788.000000	97.164541 
3787.000000	97.163574 
3786.000000	97.162679 
3785.000000	97.161962 
3784.000000	97.161465 
3783.000000	97.161253 
3782.000000	97.161272 
3781.000000	97.161300 
3780.000000	97.161129 
3779.000000	97.160779 
3778.000000	97.160319 
3777.000000	97.159562 
3776.000000	97.158237 
3775.000000	97.156424 
3774.000000	97.154700 
3773.000000	97.153655 
3772.000000	97.153253 
3771.000000	97.152965 
3770.000000	97.152502 
3769.000000	97.152068 
3768.000000	97.151669 
3767.000000	97.150826 
3766.000000	97.149211 
3765.000000	97.147170 
3764.000000	97.145464 
3763.000000	97.144377 
3762.000000	97.143473 
3761.000000	97.142285 
3760.000000	97.140937 
3759.000000	97.139830 
3758.000000	97.138786 
3757.000000	97.137420 
3756.000000	97.135806 
3755.000000	97.134175 
3754.000000	97.132467 
3753.000000	97.130523 
3752.000000	97.128718 
3751.000000	97.127479 
3750.000000	97.126370 
3749.000000	97.124935 
3748.000000	97.123765 
3747.000000	97.123447 
3746.000000	97.123290 
3745.000000	97.122042 
3744.000000	97.120260 
3743.000000	97.119267 
3742.000000	97.118709 
3741.000000	97.117466 
3740.000000	97.115502 
3739.000000	97.114110 
3738.000000	97.113841 
3737.000000	97.113505 
3736.000000	97.112298 
3735.000000	97.111492 
3734.000000	97.112239 
3733.000000	97.113376 
3732.000000	97.113167 
3731.000000	97.111580 
3730.000000	97.109706 
3729.000000	97.108139 
3728.000000	97.106485 
3727.000000	97.104568 
3726.000000	97.103405 
3725.000000	97.103753 
3724.000000	97.104793 
3723.000000	97.105391 
3722.000000	97.105770 
3721.000000	97.106620 
3720.000000	97.107458 
3719.000000	97.107327 
3718.000000	97.105504 
3717.000000	97.102457 
3716.000000	97.099694 
3715.000000	97.097690 
3714.000000	97.095528 
3713.000000	97.092933 
3712.000000	97.091502 
3711.000000	97.092237 
3710.000000	97.093309 
3709.000000	97.092523 
3708.000000	97.088968 
3707.000000	97.082855 
3706.000000	97.075776 
3705.000000	97.070046 
3704.000000	97.067194 
3703.000000	97.066704 
3702.000000	97.066021 
3701.000000	97.062580 
3700.000000	97.056381 
3699.000000	97.049835 
3698.000000	97.044152 
3697.000000	97.038500 
3696.000000	97.033273 
3695.000000	97.029434 
3694.000000	97.025968 
3693.000000	97.022235 
3692.000000	97.020677 
3691.000000	97.023829 
3690.000000	97.028503 
3689.000000	97.028876 
3688.000000	97.024609 
3687.000000	97.020503 
3686.000000	97.018943 
3685.000000	97.016891 
3684.000000	97.011851 
3683.000000	97.006632 
3682.000000	97.004144 
3681.000000	97.000118 
3680.000000	96.989205 
3679.000000	96.974705 
3678.000000	96.965144 
3677.000000	96.958974 
3676.000000	96.947488 
3675.000000	96.932394 
3674.000000	96.921424 
3673.000000	96.916120 
3672.000000	96.911399 
3671.000000	96.903213 
3670.000000	96.896692 
3669.000000	96.897386 
3668.000000	96.899528 
3667.000000	96.895874 
3666.000000	96.887513 
3665.000000	96.879514 
3664.000000	96.874254 
3663.000000	96.869607 
3662.000000	96.861117 
3661.000000	96.846435 
3660.000000	96.828201 
3659.000000	96.810845 
3658.000000	96.796549 
3657.000000	96.783139 
3656.000000	96.769676 
3655.000000	96.758809 
3654.000000	96.752197 
3653.000000	96.747242 
3652.000000	96.738151 
3651.000000	96.722051 
3650.000000	96.702933 
3649.000000	96.684480 
3648.000000	96.665408 
3647.000000	96.647116 
3646.000000	96.634545 
3645.000000	96.629250 
3644.000000	96.627512 
3643.000000	96.625000 
3642.000000	96.620434 
3641.000000	96.615268 
3640.000000	96.609471 
3639.000000	96.600376 
3638.000000	96.587196 
3637.000000	96.572310 
3636.000000	96.557212 
3635.000000	96.539687 
3634.000000	96.519563 
3633.000000	96.502786 
3632.000000	96.494892 
3631.000000	96.491859 
3630.000000	96.482339 
3629.000000	96.465106 
3628.000000	96.450860 
3627.000000	96.443905 
3626.000000	96.440604 
3625.000000	96.439401 
3624.000000	96.442918 
3623.000000	96.453448 
3622.000000	96.467204 
3621.000000	96.474562 
3620.000000	96.468601 
3619.000000	96.451886 
3618.000000	96.432891 
3617.000000	96.419590 
3616.000000	96.416456 
3615.000000	96.421952 
3614.000000	96.430775 
3613.000000	96.439574 
3612.000000	96.448058 
3611.000000	96.454879 
3610.000000	96.456509 
3609.000000	96.451750 
3608.000000	96.444956 
3607.000000	96.441838 
3606.000000	96.443758 
3605.000000	96.449276 
3604.000000	96.457748 
3603.000000	96.469056 
3602.000000	96.481628 
3601.000000	96.492064 
3600.000000	96.498644 
3599.000000	96.501951 
3598.000000	96.503205 
3597.000000	96.503585 
3596.000000	96.504388 
3595.000000	96.504697 
3594.000000	96.502804 
3593.000000	96.498704 
3592.000000	96.494601 
3591.000000	96.493192 
3590.000000	96.494766 
3589.000000	96.497245 
3588.000000	96.499686 
3587.000000	96.503521 
3586.000000	96.509140 
3585.000000	96.514910 
3584.000000	96.519699 
3583.000000	96.523539 
3582.000000	96.526660 
3581.000000	96.528180 
3580.000000	96.526773 
3579.000000	96.522093 
3578.000000	96.515611 
3577.000000	96.510129 
3576.000000	96.508038 
3575.000000	96.509745 
3574.000000	96.513414 
3573.000000	96.516506 
3572.000000	96.517218 
3571.000000	96.515271 
3570.000000	96.511112 
3569.000000	96.505113 
3568.000000	96.498613 
3567.000000	96.494468 
3566.000000	96.494235 
3565.000000	96.496656 
3564.000000	96.499721 
3563.000000	96.502326 
3562.000000	96.504095 
3561.000000	96.504744 
3560.000000	96.503855 
3559.000000	96.501308 
3558.000000	96.497554 
3557.000000	96.493596 
3556.000000	96.490580 
3555.000000	96.489352 
3554.000000	96.490110 
3553.000000	96.492463 
3552.000000	96.495621 
3551.000000	96.498514 
3550.000000	96.500096 
3549.000000	96.499863 
3548.000000	96.498095 
3547.000000	96.495460 
3546.000000	96.492273 
3545.000000	96.488503 
3544.000000	96.484564 
3543.000000	96.481523 
3542.000000	96.480348 
3541.000000	96.481378 
3540.000000	96.484325 
3539.000000	96.488270 
3538.000000	96.491721 
3537.000000	96.493351 
3536.000000	96.492987 
3535.000000	96.491484 
3534.000000	96.489886 
3533.000000	96.488684 
3532.000000	96.487997 
3531.000000	96.487856 
3530.000000	96.488010 
3529.000000	96.487894 
3528.000000	96.487182 
3527.000000	96.486182 
3526.000000	96.485347 
3525.000000	96.484820 
3524.000000	96.484793 
3523.000000	96.485856 
3522.000000	96.488375 
3521.000000	96.491856 
3520.000000	96.495177 
3519.000000	96.497354 
3518.000000	96.497964 
3517.000000	96.496986 
3516.000000	96.494727 
3515.000000	96.491947 
3514.000000	96.489785 
3513.000000	96.488997 
3512.000000	96.489226 
3511.000000	96.489350 
3510.000000	96.488775 
3509.000000	96.488203 
3508.000000	96.488930 
3507.000000	96.491482 
3506.000000	96.494948 
3505.000000	96.497605 
3504.000000	96.498413 
3503.000000	96.497794 
3502.000000	96.496982 
3501.000000	96.496596 
3500.000000	96.496065 
3499.000000	96.494429 
3498.000000	96.491479 
3497.000000	96.488136 
3496.000000	96.485658 
3495.000000	96.484619 
3494.000000	96.484874 
3493.000000	96.486225 
3492.000000	96.488590 
3491.000000	96.491442 
3490.000000	96.493637 
3489.000000	96.494165 
3488.000000	96.492900 
3487.000000	96.490508 
3486.000000	96.487740 
3485.000000	96.485011 
3484.000000	96.482501 
3483.000000	96.480329 
3482.000000	96.478657 
3481.000000	96.477709 
3480.000000	96.477570 
3479.000000	96.477822 
3478.000000	96.477546 
3477.000000	96.475997 
3476.000000	96.473310 
3475.000000	96.470453 
3474.000000	96.468356 
3473.000000	96.467245 
3472.000000	96.466815 
3471.000000	96.466804 
3470.000000	96.467234 
3469.000000	96.468019 
3468.000000	96.468494 
3467.000000	96.467760 
3466.000000	96.465548 
3465.000000	96.462431 
3464.000000	96.459066 
3463.000000	96.455450 
3462.000000	96.451279 
3461.000000	96.446885 
3460.000000	96.443279 
3459.000000	96.441183 
3458.000000	96.440312 
3457.000000	96.439623 
3456.000000	96.438309 
3455.000000	96.436464 
3454.000000	96.434818 
3453.000000	96.433777 
3452.000000	96.432953 
3451.000000	96.431614 
3450.000000	96.429429 
3449.000000	96.426747 
3448.000000	96.424248 
3447.000000	96.422314 
3446.000000	96.420677 
3445.000000	96.418793 
3444.000000	96.416548 
3443.000000	96.414441 
3442.000000	96.412996 
3441.000000	96.412081 
3440.000000	96.410980 
3439.000000	96.409157 
3438.000000	96.406769 
3437.000000	96.404398 
3436.000000	96.402513 
3435.000000	96.401275 
3434.000000	96.400648 
3433.000000	96.400354 
3432.000000	96.399876 
3431.000000	96.398703 
3430.000000	96.396661 
3429.000000	96.394016 
3428.000000	96.391220 
3427.000000	96.388618 
3426.000000	96.386415 
3425.000000	96.384827 
3424.000000	96.384007 
3423.000000	96.383758 
3422.000000	96.383573 
3421.000000	96.383100 
3420.000000	96.382444 
3419.000000	96.381865 
3418.000000	96.381344 
3417.000000	96.380593 
3416.000000	96.379447 
3415.000000	96.378026 
3414.000000	96.376545 
3413.000000	96.375122 
3412.000000	96.373826 
3411.000000	96.372768 
3410.000000	96.372033 
3409.000000	96.371564 
3408.000000	96.371157 
3407.000000	96.370591 
3406.000000	96.369788 
3405.000000	96.368822 
3404.000000	96.367843 
3403.000000	96.366968 
3402.000000	96.366224 
3401.000000	96.365570 
3400.000000	96.364941 
3399.000000	96.364282 
3398.000000	96.363580 
3397.000000	96.362863 
3396.000000	96.362191 
3395.000000	96.361609 
3394.000000	96.361120 
3393.000000	96.360681 
3392.000000	96.360235 
3391.000000	96.359757 
3390.000000	96.359273 
3389.000000	96.358847 
3388.000000	96.358534 
3387.000000	96.358332 
3386.000000	96.358182 
3385.000000	96.358015 
3384.000000	96.357808 
3383.000000	96.357612 
3382.000000	96.357520 
3381.000000	96.357592 
3380.000000	96.357797 
3379.000000	96.358010 
3378.000000	96.358128 
3377.000000	96.358186 
3376.000000	96.358338 
3375.000000	96.358686 
3374.000000	96.359137 
3373.000000	96.359483 
3372.000000	96.359640 
3371.000000	96.359768 
3370.000000	96.360122 
3369.000000	96.360797 
3368.000000	96.361630 
3367.000000	96.362303 
3366.000000	96.362594 
3365.000000	96.362523 
3364.000000	96.362336 
3363.000000	96.362292 
3362.000000	96.362481 
3361.000000	96.362888 
3360.000000	96.363594 
3359.000000	96.364778 
3358.000000	96.366467 
3357.000000	96.368341 
3356.000000	96.369839 
3355.000000	96.370582 
3354.000000	96.370677 
3353.000000	96.370684 
3352.000000	96.371195 
3351.000000	96.372393 
3350.000000	96.373995 
3349.000000	96.375530 
3348.000000	96.376718 
3347.000000	96.377646 
3346.000000	96.378625 
3345.000000	96.379845 
3344.000000	96.381080 
3343.000000	96.381790 
3342.000000	96.381615 
3341.000000	96.380785 
3340.000000	96.379982 
3339.000000	96.379830 
3338.000000	96.380600 
3337.000000	96.382240 
3336.000000	96.384397 
3335.000000	96.386377 
3334.000000	96.387466 
3333.000000	96.387457 
3332.000000	96.386784 
3331.000000	96.386027 
3330.000000	96.385351 
3329.000000	96.384628 
3328.000000	96.383969 
3327.000000	96.383896 
3326.000000	96.384917 
3325.000000	96.387032 
3324.000000	96.389592 
3323.000000	96.391524 
3322.000000	96.392009 
3321.000000	96.391083 
3320.000000	96.389601 
3319.000000	96.388556 
3318.000000	96.388394 
3317.000000	96.389086 
3316.000000	96.390558 
3315.000000	96.392729 
3314.000000	96.395262 
3313.000000	96.397658 
3312.000000	96.399659 
3311.000000	96.401326 
3310.000000	96.402717 
3309.000000	96.403709 
3308.000000	96.404174 
3307.000000	96.404104 
3306.000000	96.403533 
3305.000000	96.402571 
3304.000000	96.401608 
3303.000000	96.401182 
3302.000000	96.401565 
3301.000000	96.402592 
3300.000000	96.403898 
3299.000000	96.405226 
3298.000000	96.406492 
3297.000000	96.407670 
3296.000000	96.408721 
3295.000000	96.409639 
3294.000000	96.410489 
3293.000000	96.411367 
3292.000000	96.412295 
3291.000000	96.413202 
3290.000000	96.414018 
3289.000000	96.414791 
3288.000000	96.415675 
3287.000000	96.416761 
3286.000000	96.417958 
3285.000000	96.419064 
3284.000000	96.419960 
3283.000000	96.420708 
3282.000000	96.421466 
3281.000000	96.422352 
3280.000000	96.423367 
3279.000000	96.424440 
3278.000000	96.425500 
3277.000000	96.426525 
3276.000000	96.427526 
3275.000000	96.428522 
3274.000000	96.429532 
3273.000000	96.430580 
3272.000000	96.431686 
3271.000000	96.432849 
3270.000000	96.434039 
3269.000000	96.435218 
3268.000000	96.436375 
3267.000000	96.437523 
3266.000000	96.438693 
3265.000000	96.439914 
3264.000000	96.441195 
3263.000000	96.442493 
3262.000000	96.443733 
3261.000000	96.444874 
3260.000000	96.445940 
3259.000000	96.446991 
3258.000000	96.448074 
3257.000000	96.449221 
3256.000000	96.450459 
3255.000000	96.451791 
3254.000000	96.453176 
3253.000000	96.454559 
3252.000000	96.455933 
3251.000000	96.457328 
3250.000000	96.458733 
3249.000000	96.460056 
3248.000000	96.461218 
3247.000000	96.462268 
3246.000000	96.463396 
3245.000000	96.464769 
3244.000000	96.466360 
3243.000000	96.467921 
3242.000000	96.469221 
3241.000000	96.470226 
3240.000000	96.471081 
3239.000000	96.471951 
3238.000000	96.472962 
3237.000000	96.474272 
3236.000000	96.476071 
3235.000000	96.478428 
3234.000000	96.481109 
3233.000000	96.483619 
3232.000000	96.485502 
3231.000000	96.486600 
3230.000000	96.487027 
3229.000000	96.487010 
3228.000000	96.486864 
3227.000000	96.487050 
3226.000000	96.488028 
3225.000000	96.489896 
3224.000000	96.492180 
3223.000000	96.494182 
3222.000000	96.495641 
3221.000000	96.496915 
3220.000000	96.498472 
3219.000000	96.500331 
3218.000000	96.502128 
3217.000000	96.503604 
3216.000000	96.504847 
3215.000000	96.506155 
3214.000000	96.507810 
3213.000000	96.509879 
3212.000000	96.512003 
3211.000000	96.513442 
3210.000000	96.513585 
3209.000000	96.512515 
3208.000000	96.511074 
3207.000000	96.510275 
3206.000000	96.510634 
3205.000000	96.512119 
3204.000000	96.514497 
3203.000000	96.517575 
3202.000000	96.521083 
3201.000000	96.524523 
3200.000000	96.527259 
3199.000000	96.528883 
3198.000000	96.529564 
3197.000000	96.529903 
3196.000000	96.530402 
3195.000000	96.531184 
3194.000000	96.532253 
3193.000000	96.533790 
3192.000000	96.535928 
3191.000000	96.538299 
3190.000000	96.540130 
3189.000000	96.540936 
3188.000000	96.541026 
3187.000000	96.541301 
3186.000000	96.542487 
3185.000000	96.544595 
3184.000000	96.547064 
3183.000000	96.549449 
3182.000000	96.551867 
3181.000000	96.554623 
3180.000000	96.557534 
3179.000000	96.559895 
3178.000000	96.561204 
3177.000000	96.561683 
3176.000000	96.562025 
3175.000000	96.562767 
3174.000000	96.564093 
3173.000000	96.566073 
3172.000000	96.568723 
3171.000000	96.571850 
3170.000000	96.575075 
3169.000000	96.578063 
3168.000000	96.580602 
3167.000000	96.582512 
3166.000000	96.583683 
3165.000000	96.584233 
3164.000000	96.584501 
3163.000000	96.584875 
3162.000000	96.585690 
3161.000000	96.587197 
3160.000000	96.589459 
3159.000000	96.592212 
3158.000000	96.594917 
3157.000000	96.597117 
3156.000000	96.598720 
3155.000000	96.599933 
3154.000000	96.601076 
3153.000000	96.602426 
3152.000000	96.604106 
3151.000000	96.606053 
3150.000000	96.608066 
3149.000000	96.609951 
3148.000000	96.611658 
3147.000000	96.613260 
3146.000000	96.614865 
3145.000000	96.616537 
3144.000000	96.618246 
3143.000000	96.619873 
3142.000000	96.621311 
3141.000000	96.622625 
3140.000000	96.624083 
3139.000000	96.625952 
3138.000000	96.628274 
3137.000000	96.630853 
3136.000000	96.633346 
3135.000000	96.635444 
3134.000000	96.637018 
3133.000000	96.638157 
3132.000000	96.639117 
3131.000000	96.640193 
3130.000000	96.641584 
3129.000000	96.643367 
3128.000000	96.645486 
3127.000000	96.647755 
3126.000000	96.649974 
3125.000000	96.652046 
3124.000000	96.653972 
3123.000000	96.655768 
3122.000000	96.657451 
3121.000000	96.659111 
3120.000000	96.660941 
3119.000000	96.663083 
3118.000000	96.665481 
3117.000000	96.667910 
3116.000000	96.670179 
3115.000000	96.672237 
3114.000000	96.674102 
3113.000000	96.675817 
3112.000000	96.677466 
3111.000000	96.679127 
3110.000000	96.680780 
3109.000000	96.682323 
3108.000000	96.683746 
3107.000000	96.685259 
3106.000000	96.687141 
3105.000000	96.689453 
3104.000000	96.691976 
3103.000000	96.694426 
3102.000000	96.696640 
3101.000000	96.698527 
3100.000000	96.699964 
3099.000000	96.700921 
3098.000000	96.701654 
3097.000000	96.702604 
3096.000000	96.704011 
3095.000000	96.705737 
3094.000000	96.707589 
3093.000000	96.709652 
3092.000000	96.712062 
3091.000000	96.714570 
3090.000000	96.716613 
3089.000000	96.717865 
3088.000000	96.718487 
3087.000000	96.718946 
3086.000000	96.719672 
3085.000000	96.720849 
3084.000000	96.722411 
3083.000000	96.724142 
3082.000000	96.725917 
3081.000000	96.727872 
3080.000000	96.730130 
3079.000000	96.732370 
3078.000000	96.733985 
3077.000000	96.734775 
3076.000000	96.735167 
3075.000000	96.735729 
3074.000000	96.736614 
3073.000000	96.737682 
3072.000000	96.738891 
3071.000000	96.740309 
3070.000000	96.741882 
3069.000000	96.743439 
3068.000000	96.744889 
3067.000000	96.746208 
3066.000000	96.747278 
3065.000000	96.747949 
3064.000000	96.748250 
3063.000000	96.748376 
3062.000000	96.748499 
3061.000000	96.748745 
3060.000000	96.749279 
3059.000000	96.750224 
3058.000000	96.751507 
3057.000000	96.752916 
3056.000000	96.754250 
3055.000000	96.755321 
3054.000000	96.755946 
3053.000000	96.756119 
3052.000000	96.756165 
3051.000000	96.756530 
3050.000000	96.757341 
3049.000000	96.758327 
3048.000000	96.759145 
3047.000000	96.759727 
3046.000000	96.760187 
3045.000000	96.760587 
3044.000000	96.760917 
3043.000000	96.761264 
3042.000000	96.761797 
3041.000000	96.762512 
3040.000000	96.763085 
3039.000000	96.763162 
3038.000000	96.762758 
3037.000000	96.762305 
3036.000000	96.762252 
3035.000000	96.762626 
3034.000000	96.763060 
3033.000000	96.763192 
3032.000000	96.762979 
3031.000000	96.762634 
3030.000000	96.762367 
3029.000000	96.762234 
3028.000000	96.762151 
3027.000000	96.761914 
3026.000000	96.761311 
3025.000000	96.760347 
3024.000000	96.759309 
3023.000000	96.758459 
3022.000000	96.757754 
3021.000000	96.757077 
3020.000000	96.756640 
3019.000000	96.756785 
3018.000000	96.757354 
3017.000000	96.757603 
3016.000000	96.756955 
3015.000000	96.755608 
3014.000000	96.754381 
3013.000000	96.754054 
3012.000000	96.754815 
3011.000000	96.755986 
3010.000000	96.756307 
3009.000000	96.754908 
3008.000000	96.752016 
3007.000000	96.748695 
3006.000000	96.745770 
3005.000000	96.743464 
3004.000000	96.741977 
3003.000000	96.741663 
3002.000000	96.742514 
3001.000000	96.744035 
3000.000000	96.745830 
2999.000000	96.747581 
2998.000000	96.748411 
2997.000000	96.747235 
2996.000000	96.744158 
2995.000000	96.740826 
2994.000000	96.738687 
2993.000000	96.737526 
2992.000000	96.736226 
2991.000000	96.734316 
2990.000000	96.732140 
2989.000000	96.730137 
2988.000000	96.728778 
2987.000000	96.728716 
2986.000000	96.730238 
2985.000000	96.732825 
2984.000000	96.735752 
2983.000000	96.738819 
2982.000000	96.742028 
2981.000000	96.744943 
2980.000000	96.746845 
2979.000000	96.747294 
2978.000000	96.746224 
2977.000000	96.743960 
2976.000000	96.741580 
2975.000000	96.740643 
2974.000000	96.741871 
2973.000000	96.744320 
2972.000000	96.746282 
2971.000000	96.746896 
2970.000000	96.746550 
2969.000000	96.746190 
2968.000000	96.746720 
2967.000000	96.748601 
2966.000000	96.751413 
2965.000000	96.754181 
2964.000000	96.756661 
2963.000000	96.759839 
2962.000000	96.764508 
2961.000000	96.769705 
2960.000000	96.773386 
2959.000000	96.774626 
2958.000000	96.774466 
2957.000000	96.774595 
2956.000000	96.775714 
2955.000000	96.777414 
2954.000000	96.779225 
2953.000000	96.781451 
2952.000000	96.784980 
2951.000000	96.790209 
2950.000000	96.796042 
2949.000000	96.800295 
2948.000000	96.801528 
2947.000000	96.800243 
2946.000000	96.798301 
2945.000000	96.797237 
2944.000000	96.797401 
2943.000000	96.798454 
2942.000000	96.799812 
2941.000000	96.800595 
2940.000000	96.800024 
2939.000000	96.798379 
2938.000000	96.797204 
2937.000000	96.797942 
2936.000000	96.800456 
2935.000000	96.803174 
2934.000000	96.804664 
2933.000000	96.804836 
2932.000000	96.804635 
2931.000000	96.804915 
2930.000000	96.805786 
2929.000000	96.806893 
2928.000000	96.807970 
2927.000000	96.808982 
2926.000000	96.809878 
2925.000000	96.810501 
2924.000000	96.810827 
2923.000000	96.811105 
2922.000000	96.811612 
2921.000000	96.812369 
2920.000000	96.813253 
2919.000000	96.814310 
2918.000000	96.815666 
2917.000000	96.817141 
2916.000000	96.818233 
2915.000000	96.818708 
2914.000000	96.818984 
2913.000000	96.819687 
2912.000000	96.820849 
2911.000000	96.821802 
2910.000000	96.821968 
2909.000000	96.821584 
2908.000000	96.821528 
2907.000000	96.822399 
2906.000000	96.823967 
2905.000000	96.825468 
2904.000000	96.826333 
2903.000000	96.826725 
2902.000000	96.827329 
2901.000000	96.828670 
2900.000000	96.830782 
2899.000000	96.833337 
2898.000000	96.836013 
2897.000000	96.838606 
2896.000000	96.840863 
2895.000000	96.842439 
2894.000000	96.843178 
2893.000000	96.843444 
2892.000000	96.844001 
2891.000000	96.845375 
2890.000000	96.847446 
2889.000000	96.849709 
2888.000000	96.851826 
2887.000000	96.853724 
2886.000000	96.855282 
2885.000000	96.856366 
2884.000000	96.857308 
2883.000000	96.858917 
2882.000000	96.861643 
2881.000000	96.864983 
2880.000000	96.868003 
2879.000000	96.870472 
2878.000000	96.872966 
2877.000000	96.875900 
2876.000000	96.878868 
2875.000000	96.881169 
2874.000000	96.882656 
2873.000000	96.883786 
2872.000000	96.885075 
2871.000000	96.886745 
2870.000000	96.888848 
2869.000000	96.891412 
2868.000000	96.894370 
2867.000000	96.897509 
2866.000000	96.900558 
2865.000000	96.903239 
2864.000000	96.905307 
2863.000000	96.906753 
2862.000000	96.907933 
2861.000000	96.909337 
2860.000000	96.911136 
2859.000000	96.913152 
2858.000000	96.915279 
2857.000000	96.917715 
2856.000000	96.920662 
2855.000000	96.923919 
2854.000000	96.926953 
2853.000000	96.929354 
2852.000000	96.931052 
2851.000000	96.932203 
2850.000000	96.933072 
2849.000000	96.934024 
2848.000000	96.935412 
2847.000000	96.937320 
2846.000000	96.939455 
2845.000000	96.941388 
2844.000000	96.942941 
2843.000000	96.944331 
2842.000000	96.945921 
2841.000000	96.947815 
2840.000000	96.949684 
2839.000000	96.951087 
2838.000000	96.951986 
2837.000000	96.952843 
2836.000000	96.954147 
2835.000000	96.955924 
2834.000000	96.957894 
2833.000000	96.959959 
2832.000000	96.962276 
2831.000000	96.964794 
2830.000000	96.966956 
2829.000000	96.968098 
2828.000000	96.968056 
2827.000000	96.967351 
2826.000000	96.966868 
2825.000000	96.967290 
2824.000000	96.968790 
2823.000000	96.971095 
2822.000000	96.973726 
2821.000000	96.976252 
2820.000000	96.978389 
2819.000000	96.979944 
2818.000000	96.980834 
2817.000000	96.981201 
2816.000000	96.981379 
2815.000000	96.981638 
2814.000000	96.981985 
2813.000000	96.982205 
2812.000000	96.982115 
2811.000000	96.981840 
2810.000000	96.981851 
2809.000000	96.982635 
2808.000000	96.984256 
2807.000000	96.986308 
2806.000000	96.988325 
2805.000000	96.990183 
2804.000000	96.991930 
2803.000000	96.993422 
2802.000000	96.994418 
2801.000000	96.995041 
2800.000000	96.995843 
2799.000000	96.997204 
2798.000000	96.998807 
2797.000000	96.999925 
2796.000000	97.000211 
2795.000000	97.000002 
2794.000000	96.999952 
2793.000000	97.000437 
2792.000000	97.001385 
2791.000000	97.002518 
2790.000000	97.003596 
2789.000000	97.004520 
2788.000000	97.005343 
2787.000000	97.006222 
2786.000000	97.007310 
2785.000000	97.008587 
2784.000000	97.009841 
2783.000000	97.010857 
2782.000000	97.011618 
2781.000000	97.012299 
2780.000000	97.013096 
2779.000000	97.014060 
2778.000000	97.015107 
2777.000000	97.016114 
2776.000000	97.017008 
2775.000000	97.017795 
2774.000000	97.018526 
2773.000000	97.019255 
2772.000000	97.020010 
2771.000000	97.020796 
2770.000000	97.021610 
2769.000000	97.022454 
2768.000000	97.023310 
2767.000000	97.024139 
2766.000000	97.024913 
2765.000000	97.025636 
2764.000000	97.026336 
2763.000000	97.027030 
2762.000000	97.027703 
2761.000000	97.028331 
2760.000000	97.028924 
2759.000000	97.029531 
2758.000000	97.030191 
2757.000000	97.030874 
2756.000000	97.031509 
2755.000000	97.032064 
2754.000000	97.032604 
2753.000000	97.033253 
2752.000000	97.034059 
2751.000000	97.034887 
2750.000000	97.035554 
2749.000000	97.036066 
2748.000000	97.036562 
2747.000000	97.037048 
2746.000000	97.037341 
2745.000000	97.037377 
2744.000000	97.037411 
2743.000000	97.037760 
2742.000000	97.038476 
2741.000000	97.039348 
2740.000000	97.040170 
2739.000000	97.040836 
2738.000000	97.041220 
2737.000000	97.041138 
2736.000000	97.040532 
2735.000000	97.039634 
2734.000000	97.038924 
2733.000000	97.038882 
2732.000000	97.039672 
2731.000000	97.040975 
2730.000000	97.042165 
2729.000000	97.042793 
2728.000000	97.042875 
2727.000000	97.042725 
2726.000000	97.042654 
2725.000000	97.042868 
2724.000000	97.043471 
2723.000000	97.044371 
2722.000000	97.045280 
2721.000000	97.045970 
2720.000000	97.046535 
2719.000000	97.047201 
2718.000000	97.047861 
2717.000000	97.047965 
2716.000000	97.047027 
2715.000000	97.045203 
2714.000000	97.043319 
2713.000000	97.042280 
2712.000000	97.042512 
2711.000000	97.043896 
2710.000000	97.046127 
2709.000000	97.049004 
2708.000000	97.052289 
2707.000000	97.055456 
2706.000000	97.057797 
2705.000000	97.058720 
2704.000000	97.057821 
2703.000000	97.054845 
2702.000000	97.050098 
2701.000000	97.045014 
2700.000000	97.041730 
2699.000000	97.041655 
2698.000000	97.044542 
2697.000000	97.048795 
2696.000000	97.052757 
2695.000000	97.055869 
2694.000000	97.058581 
2693.000000	97.061228 
2692.000000	97.063137 
2691.000000	97.063137 
2690.000000	97.061013 
2689.000000	97.058132 
2688.000000	97.056284 
2687.000000	97.056123 
2686.000000	97.057202 
2685.000000	97.059027 
2684.000000	97.061234 
2683.000000	97.062903 
2682.000000	97.062781 
2681.000000	97.060527 
2680.000000	97.057098 
2679.000000	97.053667 
2678.000000	97.050869 
2677.000000	97.049453 
2676.000000	97.050687 
2675.000000	97.055293 
2674.000000	97.062441 
2673.000000	97.070408 
2672.000000	97.077781 
2671.000000	97.083310 
2670.000000	97.085318 
2669.000000	97.082538 
2668.000000	97.075428 
2667.000000	97.065840 
2666.000000	97.055576 
2665.000000	97.046107 
2664.000000	97.039452 
2663.000000	97.037900 
2662.000000	97.042217 
2661.000000	97.050676 
2660.000000	97.060250 
2659.000000	97.068575 
2658.000000	97.074574 
2657.000000	97.077871 
2656.000000	97.078296 
2655.000000	97.075771 
2654.000000	97.070360 
2653.000000	97.062732 
2652.000000	97.054812 
2651.000000	97.049341 
2650.000000	97.048139 
2649.000000	97.050791 
2648.000000	97.055038 
2647.000000	97.058307 
2646.000000	97.058900 
2645.000000	97.056261 
2644.000000	97.050992 
2643.000000	97.044818 
2642.000000	97.039904 
2641.000000	97.037704 
2640.000000	97.038453 
2639.000000	97.041580 
2638.000000	97.046279 
2637.000000	97.051663 
2636.000000	97.056792 
2635.000000	97.060861 
2634.000000	97.063237 
2633.000000	97.063282 
2632.000000	97.060469 
2631.000000	97.055007 
2630.000000	97.048268 
2629.000000	97.042323 
2628.000000	97.038902 
2627.000000	97.038718 
2626.000000	97.041441 
2625.000000	97.045966 
2624.000000	97.050848 
2623.000000	97.054828 
2622.000000	97.057113 
2621.000000	97.057182 
2620.000000	97.054644 
2619.000000	97.049651 
2618.000000	97.043470 
2617.000000	97.038203 
2616.000000	97.035536 
2615.000000	97.035817 
2614.000000	97.038330 
2613.000000	97.042006 
2612.000000	97.045734 
2611.000000	97.048371 
2610.000000	97.049106 
2609.000000	97.047902 
2608.000000	97.045426 
2607.000000	97.042660 
2606.000000	97.040719 
2605.000000	97.040683 
2604.000000	97.042980 
2603.000000	97.046794 
2602.000000	97.050508 
2601.000000	97.052921 
2600.000000	97.053672 
2599.000000	97.052576 
2598.000000	97.049309 
2597.000000	97.044106 
2596.000000	97.038314 
2595.000000	97.033789 
2594.000000	97.031870 
2593.000000	97.033126 
2592.000000	97.037575 
2591.000000	97.044489 
2590.000000	97.052095 
2589.000000	97.058161 
2588.000000	97.061188 
2587.000000	97.060879 
2586.000000	97.057694 
2585.000000	97.052416 
2584.000000	97.046240 
2583.000000	97.040785 
2582.000000	97.037572 
2581.000000	97.037458 
2580.000000	97.040434 
2579.000000	97.045740 
2578.000000	97.052081 
2577.000000	97.057879 
2576.000000	97.061635 
2575.000000	97.062353 
2574.000000	97.059897 
2573.000000	97.055144 
2572.000000	97.049688 
2571.000000	97.045138 
2570.000000	97.042659 
2569.000000	97.042945 
2568.000000	97.046071 
2567.000000	97.051040 
2566.000000	97.055766 
2565.000000	97.058183 
2564.000000	97.057579 
2563.000000	97.054727 
2562.000000	97.050958 
2561.000000	97.047392 
2560.000000	97.045006 
2559.000000	97.044818 
2558.000000	97.047421 
2557.000000	97.052396 
2556.000000	97.058434 
2555.000000	97.064014 
2554.000000	97.067878 
2553.000000	97.069110 
2552.000000	97.067303 
2551.000000	97.062944 
2550.000000	97.057458 
2549.000000	97.052549 
2548.000000	97.049348 
2547.000000	97.048274 
2546.000000	97.049485 
2545.000000	97.052954 
2544.000000	97.057950 
2543.000000	97.062773 
2542.000000	97.065575 
2541.000000	97.065662 
2540.000000	97.063765 
2539.000000	97.061012 
2538.000000	97.057898 
2537.000000	97.054560 
2536.000000	97.051692 
2535.000000	97.050491 
2534.000000	97.051524 
2533.000000	97.054026 
2532.000000	97.056549 
2531.000000	97.058227 
2530.000000	97.059149 
2529.000000	97.059621 
2528.000000	97.059506 
2527.000000	97.058480 
2526.000000	97.056709 
2525.000000	97.055005 
2524.000000	97.054305 
2523.000000	97.055140 
2522.000000	97.057481 
2521.000000	97.060691 
2520.000000	97.063633 
2519.000000	97.065188 
2518.000000	97.064914 
2517.000000	97.063147 
2516.000000	97.060502 
2515.000000	97.057524 
2514.000000	97.054954 
2513.000000	97.053879 
2512.000000	97.055103 
2511.000000	97.058495 
2510.000000	97.063166 
2509.000000	97.068024 
2508.000000	97.071931 
2507.000000	97.073706 
2506.000000	97.072723 
2505.000000	97.069702 
2504.000000	97.066410 
2503.000000	97.064103 
2502.000000	97.062796 
2501.000000	97.062219 
2500.000000	97.062810 
2499.000000	97.065223 
2498.000000	97.069189 
2497.000000	97.073439 
2496.000000	97.076696 
2495.000000	97.078362 
2494.000000	97.078404 
2493.000000	97.077140 
2492.000000	97.075292 
2491.000000	97.073860 
2490.000000	97.073655 
2489.000000	97.074895 
2488.000000	97.077186 
2487.000000	97.079834 
2486.000000	97.082298 
2485.000000	97.084374 
2484.000000	97.085888 
2483.000000	97.086335 
2482.000000	97.085186 
2481.000000	97.082710 
2480.000000	97.080264 
2479.000000	97.079425 
2478.000000	97.080913 
2477.000000	97.084371 
2476.000000	97.088740 
2475.000000	97.092757 
2474.000000	97.095430 
2473.000000	97.096315 
2472.000000	97.095238 
2471.000000	97.091883 
2470.000000	97.086200 
2469.000000	97.079440 
2468.000000	97.074137 
2467.000000	97.072281 
2466.000000	97.073892 
2465.000000	97.077525 
2464.000000	97.081875 
2463.000000	97.086539 
2462.000000	97.091388 
2461.000000	97.095836 
2460.000000	97.098830 
2459.000000	97.099352 
2458.000000	97.097010 
2457.000000	97.092477 
2456.000000	97.087417 
2455.000000	97.083660 
2454.000000	97.082274 
2453.000000	97.083268 
2452.000000	97.085648 
2451.000000	97.087852 
2450.000000	97.088728 
2449.000000	97.088359 
2448.000000	97.087685 
2447.000000	97.087263 
2446.000000	97.086835 
2445.000000	97.086200 
2444.000000	97.085882 
2443.000000	97.086565 
2442.000000	97.088345 
2441.000000	97.090825 
2440.000000	97.093456 
2439.000000	97.095488 
2438.000000	97.096131 
2437.000000	97.095182 
2436.000000	97.093204 
2435.000000	97.090947 
2434.000000	97.089029 
2433.000000	97.088435 
2432.000000	97.090552 
2431.000000	97.095936 
2430.000000	97.103312 
2429.000000	97.110401 
2428.000000	97.115566 
2427.000000	97.118020 
2426.000000	97.117135 
2425.000000	97.112672 
2424.000000	97.105655 
2423.000000	97.098152 
2422.000000	97.092171 
2421.000000	97.089228 
2420.000000	97.090306 
2419.000000	97.095216 
2418.000000	97.102217 
2417.000000	97.109176 
2416.000000	97.114689 
2415.000000	97.117622 
2414.000000	97.116875 
2413.000000	97.112809 
2412.000000	97.107969 
2411.000000	97.104813 
2410.000000	97.103493 
2409.000000	97.103327 
2408.000000	97.105174 
2407.000000	97.109920 
2406.000000	97.115302 
2405.000000	97.116957 
2404.000000	97.112746 
2403.000000	97.104421 
2402.000000	97.095272 
2401.000000	97.088096 
2400.000000	97.085241 
2399.000000	97.088122 
2398.000000	97.095858 
2397.000000	97.105826 
2396.000000	97.115872 
2395.000000	97.124533 
2394.000000	97.129370 
2393.000000	97.127624 
2392.000000	97.119215 
2391.000000	97.107064 
2390.000000	97.093806 
2389.000000	97.079928 
2388.000000	97.065521 
2387.000000	97.051835 
2386.000000	97.040055 
2385.000000	97.030186 
2384.000000	97.022208 
2383.000000	97.017030 
2382.000000	97.015629 
2381.000000	97.018446 
2380.000000	97.025952 
2379.000000	97.038040 
2378.000000	97.051619 
2377.000000	97.060526 
2376.000000	97.060205 
2375.000000	97.052110 
2374.000000	97.041940 
2373.000000	97.033350 
2372.000000	97.025455 
2371.000000	97.016408 
2370.000000	97.006108 
2369.000000	96.993929 
2368.000000	96.977087 
2367.000000	96.954997 
2366.000000	96.934593 
2365.000000	96.926362 
2364.000000	96.933661 
2363.000000	96.948685 
2362.000000	96.961616 
2361.000000	96.970865 
2360.000000	96.978424 
2359.000000	96.982549 
2358.000000	96.979829 
2357.000000	96.971434 
2356.000000	96.962588 
2355.000000	96.955440 
2354.000000	96.951321 
2353.000000	96.950468 
2352.000000	96.951497 
2351.000000	96.950904 
2350.000000	96.945570 
2349.000000	96.937449 
2348.000000	96.931007 
2347.000000	96.929766 
2346.000000	96.930956 
2345.000000	96.927213 
2344.000000	96.916905 
2343.000000	96.904312 
2342.000000	96.898575 
2341.000000	96.904181 
2340.000000	96.919032 
2339.000000	96.936487 
2338.000000	96.950055 
2337.000000	96.957297 
2336.000000	96.957260 
2335.000000	96.950919 
2334.000000	96.939467 
2333.000000	96.926455 
2332.000000	96.913985 
2331.000000	96.905417 
2330.000000	96.898792 
2329.000000	96.893399 
2328.000000	96.885818 
2327.000000	96.878286 
2326.000000	96.872130 
2325.000000	96.867594 
2324.000000	96.863636 
2323.000000	96.859842 
2322.000000	96.857081 
2321.000000	96.854797 
2320.000000	96.852748 
2319.000000	96.853884 
2318.000000	96.859984 
2317.000000	96.871217 
2316.000000	96.883281 
2315.000000	96.894068 
2314.000000	96.899893 
2313.000000	96.900072 
2312.000000	96.893416 
2311.000000	96.883385 
2310.000000	96.872154 
2309.000000	96.862769 
2308.000000	96.856776 
2307.000000	96.857542 
2306.000000	96.864757 
2305.000000	96.875093 
2304.000000	96.883825 
2303.000000	96.891140 
2302.000000	96.898707 
2301.000000	96.906677 
2300.000000	96.911188 
2299.000000	96.910276 
2298.000000	96.904787 
2297.000000	96.899118 
2296.000000	96.897065 
2295.000000	96.901671 
2294.000000	96.912748 
2293.000000	96.927378 
2292.000000	96.940845 
2291.000000	96.950085 
2290.000000	96.954710 
2289.000000	96.955892 
2288.000000	96.954878 
2287.000000	96.952698 
2286.000000	96.951052 
2285.000000	96.952156 
2284.000000	96.957872 
2283.000000	96.968198 
2282.000000	96.980890 
2281.000000	96.992291 
2280.000000	96.999478 
2279.000000	97.001296 
2278.000000	96.998239 
2277.000000	96.992021 
2276.000000	96.985165 
2275.000000	96.980202 
2274.000000	96.978703 
2273.000000	96.981248 
2272.000000	96.987626 
2271.000000	96.996705 
2270.000000	97.006191 
2269.000000	97.013623 
2268.000000	97.017842 
2267.000000	97.019033 
2266.000000	97.017322 
2265.000000	97.012762 
2264.000000	97.006352 
2263.000000	96.999868 
2262.000000	96.994683 
2261.000000	96.991595 
2260.000000	96.991476 
2259.000000	96.994696 
2258.000000	96.999951 
2257.000000	97.004733 
2256.000000	97.007660 
2255.000000	97.009133 
2254.000000	97.009446 
2253.000000	97.007787 
2252.000000	97.003746 
2251.000000	96.998659 
2250.000000	96.994515 
2249.000000	96.992305 
2248.000000	96.992119 
2247.000000	96.993959 
2246.000000	96.997332 
2245.000000	97.000447 
2244.000000	97.001070 
2243.000000	96.998451 
2242.000000	96.993709 
2241.000000	96.988905 
2240.000000	96.985588 
2239.000000	96.984088 
2238.000000	96.983827 
2237.000000	96.983972 
2236.000000	96.984226 
2235.000000	96.984940 
2234.000000	96.986303 
2233.000000	96.987708 
2232.000000	96.988180 
2231.000000	96.987245 
2230.000000	96.985005 
2229.000000	96.981735 
2228.000000	96.978028 
2227.000000	96.975071 
2226.000000	96.973830 
2225.000000	96.974162 
2224.000000	96.974929 
2223.000000	96.975088 
2222.000000	96.974626 
2221.000000	96.974048 
2220.000000	96.973427 
2219.000000	96.972258 
2218.000000	96.970252 
2217.000000	96.967815 
2216.000000	96.965680 
2215.000000	96.964232 
2214.000000	96.963339 
2213.000000	96.962668 
2212.000000	96.962030 
2211.000000	96.961455 
2210.000000	96.960942 
2209.000000	96.960226 
2208.000000	96.958874 
2207.000000	96.956652 
2206.000000	96.953770 
2205.000000	96.950825 
2204.000000	96.948467 
2203.000000	96.947226 
2202.000000	96.947434 
2201.000000	96.948965 
2200.000000	96.950880 
2199.000000	96.951785 
2198.000000	96.950835 
2197.000000	96.948296 
2196.000000	96.945198 
2195.000000	96.942203 
2194.000000	96.939182 
2193.000000	96.936012 
2192.000000	96.933380 
2191.000000	96.932371 
2190.000000	96.933399 
2189.000000	96.935990 
2188.000000	96.939394 
2187.000000	96.942658 
2186.000000	96.944008 
2185.000000	96.941512 
2184.000000	96.935299 
2183.000000	96.928855 
2182.000000	96.926144 
2181.000000	96.927562 
2180.000000	96.930081 
2179.000000	96.931265 
2178.000000	96.932236 
2177.000000	96.935659 
2176.000000	96.942103 
2175.000000	96.949068 
2174.000000	96.953128 
2173.000000	96.952695 
2172.000000	96.949142 
2171.000000	96.945443 
2170.000000	96.943069 
2169.000000	96.940666 
2168.000000	96.936903 
2167.000000	96.934226 
2166.000000	96.937145 
2165.000000	96.945848 
2164.000000	96.953703 
2163.000000	96.953772 
2162.000000	96.946806 
2161.000000	96.940724 
2160.000000	96.942390 
2159.000000	96.952024 
2158.000000	96.965568 
2157.000000	96.979896 
2156.000000	96.994041 
2155.000000	97.007139 
2154.000000	97.018035 
2153.000000	97.026695 
2152.000000	97.034067 
2151.000000	97.039582 
2150.000000	97.040202 
2149.000000	97.033904 
2148.000000	97.023846 
2147.000000	97.017082 
2146.000000	97.018276 
2145.000000	97.026398 
2144.000000	97.037853 
2143.000000	97.050826 
2142.000000	97.064771 
2141.000000	97.077300 
2140.000000	97.084704 
2139.000000	97.085906 
2138.000000	97.084147 
2137.000000	97.083788 
2136.000000	97.086288 
2135.000000	97.089344 
2134.000000	97.089574 
2133.000000	97.086483 
2132.000000	97.083868 
2131.000000	97.086311 
2130.000000	97.093955 
2129.000000	97.101907 
2128.000000	97.105414 
2127.000000	97.104320 
2126.000000	97.101661 
2125.000000	97.099480 
2124.000000	97.097646 
2123.000000	97.095900 
2122.000000	97.094916 
2121.000000	97.095121 
2120.000000	97.095908 
2119.000000	97.096395 
2118.000000	97.096062 
2117.000000	97.094581 
2116.000000	97.091625 
2115.000000	97.086747 
2114.000000	97.079591 
2113.000000	97.070904 
2112.000000	97.063394 
2111.000000	97.060434 
2110.000000	97.063021 
2109.000000	97.068539 
2108.000000	97.073055 
2107.000000	97.074721 
2106.000000	97.074254 
2105.000000	97.073057 
2104.000000	97.071927 
2103.000000	97.070952 
2102.000000	97.069506 
2101.000000	97.066600 
2100.000000	97.062223 
2099.000000	97.058278 
2098.000000	97.057145 
2097.000000	97.059259 
2096.000000	97.062853 
2095.000000	97.065600 
2094.000000	97.066340 
2093.000000	97.065109 
2092.000000	97.062447 
2091.000000	97.059218 
2090.000000	97.056552 
2089.000000	97.055244 
2088.000000	97.055216 
2087.000000	97.055679 
2086.000000	97.055750 
2085.000000	97.054870 
2084.000000	97.052882 
2083.000000	97.050023 
2082.000000	97.046876 
2081.000000	97.044086 
2080.000000	97.041946 
2079.000000	97.040283 
2078.000000	97.038707 
2077.000000	97.036986 
2076.000000	97.035311 
2075.000000	97.034247 
2074.000000	97.034177 
2073.000000	97.034557 
2072.000000	97.033925 
2071.000000	97.031127 
2070.000000	97.026445 
2069.000000	97.021475 
2068.000000	97.017782 
2067.000000	97.015876 
2066.000000	97.015419 
2065.000000	97.015785 
2064.000000	97.016245 
2063.000000	97.016184 
2062.000000	97.015610 
2061.000000	97.015299 
2060.000000	97.016003 
2059.000000	97.017373 
2058.000000	97.017972 
2057.000000	97.016428 
2056.000000	97.012219 
2055.000000	97.005625 
2054.000000	96.997763 
2053.000000	96.990604 
2052.000000	96.986353 
2051.000000	96.986041 
2050.000000	96.988685 
2049.000000	96.991930 
2048.000000	96.993584 
2047.000000	96.992699 
2046.000000	96.989564 
2045.000000	96.985394 
2044.000000	96.981732 
2043.000000	96.979471 
2042.000000	96.978447 
2041.000000	96.978276 
2040.000000	96.979350 
2039.000000	96.982457 
2038.000000	96.987359 
2037.000000	96.992107 
2036.000000	96.994294 
2035.000000	96.992932 
2034.000000	96.989207 
2033.000000	96.986075 
2032.000000	96.986289 
2031.000000	96.990054 
2030.000000	96.994676 
2029.000000	96.997242 
2028.000000	96.997829 
2027.000000	96.998903 
2026.000000	97.001691 
2025.000000	97.004774 
2024.000000	97.006589 
2023.000000	97.007755 
2022.000000	97.009728 
2021.000000	97.012007 
2020.000000	97.012270 
2019.000000	97.009242 
2018.000000	97.004201 
2017.000000	96.999728 
2016.000000	96.997763 
2015.000000	96.998757 
2014.000000	97.001263 
2013.000000	97.002256 
2012.000000	96.999626 
2011.000000	96.994953 
2010.000000	96.992692 
2009.000000	96.995671 
2008.000000	97.002291 
2007.000000	97.008401 
2006.000000	97.011492 
2005.000000	97.011982 
2004.000000	97.011442 
2003.000000	97.011143 
2002.000000	97.011992 
2001.000000	97.014201 
2000.000000	97.016346 
1999.000000	97.015549 
1998.000000	97.009617 
1997.000000	96.999373 
1996.000000	96.988936 
1995.000000	96.982890 
1994.000000	96.982834 
1993.000000	96.986510 
1992.000000	96.989752 
1991.000000	96.990176 
1990.000000	96.988794 
1989.000000	96.987913 
1988.000000	96.988105 
1987.000000	96.987343 
1986.000000	96.982955 
1985.000000	96.974452 
1984.000000	96.964618 
1983.000000	96.957640 
1982.000000	96.956030 
1981.000000	96.959598 
1980.000000	96.966924 
1979.000000	96.976731 
1978.000000	96.987172 
1977.000000	96.995066 
1976.000000	96.997684 
1975.000000	96.995231 
1974.000000	96.990864 
1973.000000	96.988209 
1972.000000	96.988686 
1971.000000	96.991224 
1970.000000	96.993847 
1969.000000	96.995187 
1968.000000	96.995006 
1967.000000	96.994129 
1966.000000	96.994104 
1965.000000	96.996264 
1964.000000	97.000701 
1963.000000	97.006146 
1962.000000	97.010873 
1961.000000	97.013755 
1960.000000	97.014467 
1959.000000	97.013307 
1958.000000	97.011400 
1957.000000	97.010584 
1956.000000	97.012150 
1955.000000	97.015662 
1954.000000	97.019313 
1953.000000	97.021617 
1952.000000	97.022440 
1951.000000	97.022498 
1950.000000	97.022666 
1949.000000	97.023841 
1948.000000	97.026640 
1947.000000	97.030646 
1946.000000	97.034320 
1945.000000	97.036353 
1944.000000	97.036819 
1943.000000	97.036736 
1942.000000	97.036795 
1941.000000	97.036912 
1940.000000	97.036879 
1939.000000	97.036685 
1938.000000	97.036462 
1937.000000	97.036636 
1936.000000	97.037858 
1935.000000	97.040263 
1934.000000	97.042920 
1933.000000	97.044786 
1932.000000	97.046093 
1931.000000	97.047896 
1930.000000	97.050327 
1929.000000	97.052177 
1928.000000	97.052526 
1927.000000	97.051698 
1926.000000	97.050512 
1925.000000	97.049493 
1924.000000	97.049177 
1923.000000	97.050193 
1922.000000	97.052154 
1921.000000	97.053483 
1920.000000	97.053237 
1919.000000	97.052069 
1918.000000	97.050950 
1917.000000	97.049540 
1916.000000	97.047211 
1915.000000	97.044950 
1914.000000	97.044377 
1913.000000	97.045562 
1912.000000	97.046975 
1911.000000	97.047470 
1910.000000	97.047210 
1909.000000	97.046788 
1908.000000	97.046409 
1907.000000	97.045862 
1906.000000	97.044553 
1905.000000	97.041594 
1904.000000	97.036884 
1903.000000	97.032146 
1902.000000	97.029734 
1901.000000	97.030361 
1900.000000	97.033000 
1899.000000	97.036448 
1898.000000	97.039991 
1897.000000	97.042559 
1896.000000	97.042565 
1895.000000	97.039210 
1894.000000	97.033163 
1893.000000	97.025934 
1892.000000	97.019186 
1891.000000	97.014681 
1890.000000	97.013770 
1889.000000	97.015887 
1888.000000	97.018725 
1887.000000	97.020962 
1886.000000	97.023038 
1885.000000	97.025050 
1884.000000	97.025668 
1883.000000	97.023762 
1882.000000	97.020154 
1881.000000	97.017026 
1880.000000	97.015779 
1879.000000	97.015849 
1878.000000	97.015903 
1877.000000	97.015937 
1876.000000	97.017463 
1875.000000	97.021484 
1874.000000	97.026723 
1873.000000	97.030253 
1872.000000	97.030043 
1871.000000	97.026278 
1870.000000	97.020869 
1869.000000	97.016610 
1868.000000	97.015938 
1867.000000	97.019776 
1866.000000	97.026811 
1865.000000	97.033744 
1864.000000	97.038155 
1863.000000	97.041082 
1862.000000	97.045280 
1861.000000	97.051152 
1860.000000	97.056118 
1859.000000	97.058166 
1858.000000	97.057943 
1857.000000	97.057062 
1856.000000	97.056301 
1855.000000	97.056065 
1854.000000	97.056842 
1853.000000	97.058996 
1852.000000	97.063399 
1851.000000	97.071247 
1850.000000	97.082129 
1849.000000	97.093055 
1848.000000	97.100665 
1847.000000	97.104141 
1846.000000	97.104849 
1845.000000	97.104494 
1844.000000	97.104326 
1843.000000	97.104664 
1842.000000	97.105260 
1841.000000	97.106029 
1840.000000	97.107563 
1839.000000	97.110760 
1838.000000	97.115207 
1837.000000	97.118306 
1836.000000	97.118057 
1835.000000	97.116058 
1834.000000	97.115453 
1833.000000	97.117029 
1832.000000	97.119250 
1831.000000	97.121115 
1830.000000	97.123859 
1829.000000	97.128492 
1828.000000	97.133778 
1827.000000	97.138108 
1826.000000	97.140764 
1825.000000	97.141752 
1824.000000	97.141062 
1823.000000	97.138779 
1822.000000	97.135627 
1821.000000	97.132517 
1820.000000	97.130314 
1819.000000	97.130243 
1818.000000	97.133573 
1817.000000	97.139617 
1816.000000	97.145282 
1815.000000	97.148489 
1814.000000	97.150062 
1813.000000	97.151450 
1812.000000	97.152031 
1811.000000	97.150201 
1810.000000	97.146471 
1809.000000	97.143144 
1808.000000	97.141737 
1807.000000	97.142468 
1806.000000	97.145092 
1805.000000	97.148545 
1804.000000	97.150676 
1803.000000	97.149650 
1802.000000	97.145424 
1801.000000	97.139970 
1800.000000	97.135432 
1799.000000	97.133032 
1798.000000	97.133683 
1797.000000	97.137253 
1796.000000	97.142116 
1795.000000	97.146622 
1794.000000	97.150341 
1793.000000	97.153826 
1792.000000	97.157113 
1791.000000	97.158991 
1790.000000	97.158955 
1789.000000	97.157733 
1788.000000	97.155935 
1787.000000	97.153875 
1786.000000	97.152387 
1785.000000	97.152306 
1784.000000	97.153464 
1783.000000	97.155417 
1782.000000	97.158432 
1781.000000	97.163747 
1780.000000	97.171758 
1779.000000	97.180492 
1778.000000	97.187379 
1777.000000	97.191049 
1776.000000	97.191513 
1775.000000	97.189189 
1774.000000	97.184342 
1773.000000	97.179354 
1772.000000	97.178531 
1771.000000	97.182366 
1770.000000	97.188049 
1769.000000	97.193617 
1768.000000	97.198569 
1767.000000	97.202642 
1766.000000	97.205532 
1765.000000	97.207394 
1764.000000	97.208249 
1763.000000	97.207977 
1762.000000	97.207762 
1761.000000	97.209833 
1760.000000	97.214992 
1759.000000	97.222113 
1758.000000	97.229082 
1757.000000	97.234228 
1756.000000	97.237225 
1755.000000	97.237869 
1754.000000	97.235542 
1753.000000	97.229813 
1752.000000	97.221821 
1751.000000	97.214580 
1750.000000	97.210352 
1749.000000	97.209549 
1748.000000	97.212505 
1747.000000	97.218974 
1746.000000	97.227052 
1745.000000	97.234979 
1744.000000	97.242019 
1743.000000	97.247036 
1742.000000	97.248249 
1741.000000	97.245108 
1740.000000	97.239836 
1739.000000	97.236197 
1738.000000	97.235769 
1737.000000	97.237195 
1736.000000	97.238048 
1735.000000	97.238145 
1734.000000	97.240918 
1733.000000	97.245263 
1732.000000	97.248013 
1731.000000	97.249962 
1730.000000	97.251892 
1729.000000	97.252452 
1728.000000	97.250546 
1727.000000	97.246912 
1726.000000	97.243475 
1725.000000	97.242311 
1724.000000	97.244647 
1723.000000	97.250661 
1722.000000	97.259534 
1721.000000	97.268755 
1720.000000	97.274158 
1719.000000	97.271820 
1718.000000	97.261724 
1717.000000	97.247508 
1716.000000	97.232692 
1715.000000	97.221017 
1714.000000	97.215446 
1713.000000	97.215435 
1712.000000	97.218176 
1711.000000	97.222422 
1710.000000	97.228560 
1709.000000	97.235553 
1708.000000	97.240421 
1707.000000	97.241211 
1706.000000	97.238968 
1705.000000	97.235492 
1704.000000	97.230578 
1703.000000	97.223422 
1702.000000	97.212987 
1701.000000	97.200653 
1700.000000	97.192147 
1699.000000	97.188871 
1698.000000	97.189986 
1697.000000	97.194438 
1696.000000	97.199586 
1695.000000	97.201583 
1694.000000	97.199292 
1693.000000	97.194741 
1692.000000	97.188974 
1691.000000	97.182422 
1690.000000	97.176395 
1689.000000	97.172421 
1688.000000	97.170669 
1687.000000	97.169775 
1686.000000	97.168032 
1685.000000	97.165561 
1684.000000	97.164283 
1683.000000	97.162374 
1682.000000	97.158117 
1681.000000	97.152924 
1680.000000	97.148749 
1679.000000	97.146209 
1678.000000	97.144508 
1677.000000	97.142658 
1676.000000	97.140877 
1675.000000	97.139859 
1674.000000	97.138835 
1673.000000	97.137122 
1672.000000	97.134966 
1671.000000	97.132438 
1670.000000	97.129237 
1669.000000	97.125229 
1668.000000	97.121299 
1667.000000	97.118538 
1666.000000	97.116780 
1665.000000	97.115164 
1664.000000	97.113502 
1663.000000	97.112670 
1662.000000	97.112659 
1661.000000	97.112027 
1660.000000	97.110339 
1659.000000	97.108246 
1658.000000	97.106356 
1657.000000	97.104835 
1656.000000	97.103054 
1655.000000	97.098721 
1654.000000	97.091473 
1653.000000	97.087729 
1652.000000	97.086699 
1651.000000	97.085587 
1650.000000	97.084655 
1649.000000	97.082311 
1648.000000	97.077400 
1647.000000	97.072931 
1646.000000	97.071412 
1645.000000	97.070868 
1644.000000	97.069990 
1643.000000	97.069865 
1642.000000	97.071283 
1641.000000	97.074078 
1640.000000	97.077809 
1639.000000	97.081611 
1638.000000	97.083973 
1637.000000	97.083251 
1636.000000	97.080030 
1635.000000	97.075774 
1634.000000	97.071247 
1633.000000	97.067980 
1632.000000	97.066451 
1631.000000	97.066243 
1630.000000	97.067108 
1629.000000	97.069389 
1628.000000	97.073944 
1627.000000	97.080477 
1626.000000	97.086269 
1625.000000	97.088258 
1624.000000	97.086217 
1623.000000	97.083331 
1622.000000	97.082138 
1621.000000	97.082662 
1620.000000	97.084496 
1619.000000	97.087003 
1618.000000	97.089149 
1617.000000	97.090954 
1616.000000	97.093497 
1615.000000	97.096985 
1614.000000	97.100324 
1613.000000	97.101672 
1612.000000	97.100246 
1611.000000	97.097353 
1610.000000	97.095106 
1609.000000	97.095417 
1608.000000	97.100081 
1607.000000	97.109192 
1606.000000	97.119607 
1605.000000	97.128315 
1604.000000	97.135573 
1603.000000	97.142100 
1602.000000	97.146385 
1601.000000	97.146927 
1600.000000	97.145077 
1599.000000	97.143451 
1598.000000	97.143135 
1597.000000	97.144341 
1596.000000	97.148383 
1595.000000	97.156822 
1594.000000	97.168652 
1593.000000	97.180331 
1592.000000	97.189221 
1591.000000	97.194985 
1590.000000	97.197829 
1589.000000	97.197849 
1588.000000	97.196337 
1587.000000	97.195731 
1586.000000	97.197096 
1585.000000	97.199533 
1584.000000	97.203146 
1583.000000	97.209153 
1582.000000	97.217062 
1581.000000	97.225387 
1580.000000	97.233877 
1579.000000	97.241657 
1578.000000	97.245247 
1577.000000	97.242356 
1576.000000	97.237002 
1575.000000	97.234184 
1574.000000	97.234780 
1573.000000	97.238429 
1572.000000	97.244739 
1571.000000	97.253226 
1570.000000	97.262446 
1569.000000	97.268368 
1568.000000	97.268987 
1567.000000	97.265676 
1566.000000	97.259125 
1565.000000	97.250619 
1564.000000	97.244765 
1563.000000	97.243988 
1562.000000	97.244335 
1561.000000	97.237201 
1560.000000	97.223482 
1559.000000	97.227872 
1558.000000	97.245035 
1557.000000	97.250598 
1556.000000	97.249822 
1555.000000	97.248789 
1554.000000	97.243654 
1553.000000	97.231903 
1552.000000	97.215994 
1551.000000	97.200570 
1550.000000	97.190018 
1549.000000	97.186353 
1548.000000	97.187721 
1547.000000	97.190498 
1546.000000	97.190225 
1545.000000	97.184818 
1544.000000	97.176003 
1543.000000	97.164411 
1542.000000	97.147780 
1541.000000	97.125575 
1540.000000	97.103805 
1539.000000	97.086928 
1538.000000	97.073916 
1537.000000	97.064348 
1536.000000	97.057033 
1535.000000	97.050265 
1534.000000	97.044253 
1533.000000	97.038278 
1532.000000	97.027675 
1531.000000	97.010692 
1530.000000	96.990523 
1529.000000	96.970151 
1528.000000	96.951160 
1527.000000	96.935341 
1526.000000	96.923994 
1525.000000	96.916250 
1524.000000	96.909782 
1523.000000	96.902200 
1522.000000	96.892375 
1521.000000	96.878631 
1520.000000	96.858448 
1519.000000	96.833527 
1518.000000	96.808400 
1517.000000	96.787570 
1516.000000	96.772824 
1515.000000	96.761891 
1514.000000	96.752369 
1513.000000	96.743074 
1512.000000	96.732477 
1511.000000	96.719325 
1510.000000	96.703593 
1509.000000	96.685595 
1508.000000	96.666037 
1507.000000	96.648606 
1506.000000	96.633602 
1505.000000	96.617098 
1504.000000	96.600127 
1503.000000	96.584381 
1502.000000	96.569668 
1501.000000	96.555830 
1500.000000	96.542848 
1499.000000	96.530064 
1498.000000	96.516051 
1497.000000	96.500151 
1496.000000	96.482881 
1495.000000	96.465643 
1494.000000	96.450076 
1493.000000	96.436647 
1492.000000	96.424174 
1491.000000	96.411540 
1490.000000	96.399590 
1489.000000	96.388780 
1488.000000	96.376469 
1487.000000	96.361248 
1486.000000	96.344236 
1485.000000	96.324636 
1484.000000	96.301932 
1483.000000	96.278955 
1482.000000	96.260201 
1481.000000	96.247895 
1480.000000	96.239672 
1479.000000	96.232415 
1478.000000	96.225386 
1477.000000	96.218377 
1476.000000	96.208958 
1475.000000	96.193817 
1474.000000	96.172486 
1473.000000	96.151317 
1472.000000	96.136336 
1471.000000	96.123775 
1470.000000	96.110234 
1469.000000	96.097605 
1468.000000	96.086727 
1467.000000	96.076658 
1466.000000	96.067281 
1465.000000	96.060119 
1464.000000	96.053433 
1463.000000	96.040974 
1462.000000	96.021864 
1461.000000	96.001416 
1460.000000	95.984288 
1459.000000	95.970142 
1458.000000	95.958686 
1457.000000	95.955296 
1456.000000	95.954075 
1455.000000	95.944145 
1454.000000	95.928958 
1453.000000	95.916143 
1452.000000	95.908781 
1451.000000	95.904465 
1450.000000	95.899719 
1449.000000	95.895433 
1448.000000	95.894807 
1447.000000	95.898627 
1446.000000	95.904122 
1445.000000	95.910929 
1444.000000	95.919889 
1443.000000	95.926682 
1442.000000	95.926640 
1441.000000	95.921927 
1440.000000	95.918092 
1439.000000	95.915335 
1438.000000	95.909320 
1437.000000	95.901958 
1436.000000	95.898693 
1435.000000	95.896597 
1434.000000	95.893911 
1433.000000	95.894705 
1432.000000	95.900854 
1431.000000	95.910484 
1430.000000	95.921543 
1429.000000	95.933211 
1428.000000	95.942219 
1427.000000	95.945254 
1426.000000	95.943733 
1425.000000	95.945888 
1424.000000	95.960505 
1423.000000	95.983765 
1422.000000	96.005448 
1421.000000	96.023210 
1420.000000	96.040608 
1419.000000	96.055110 
1418.000000	96.057875 
1417.000000	96.052450 
1416.000000	96.052858 
1415.000000	96.063332 
1414.000000	96.076924 
1413.000000	96.089045 
1412.000000	96.103823 
1411.000000	96.124998 
1410.000000	96.149441 
1409.000000	96.172641 
1408.000000	96.192872 
1407.000000	96.209598 
1406.000000	96.222022 
1405.000000	96.232615 
1404.000000	96.246309 
1403.000000	96.262395 
1402.000000	96.277317 
1401.000000	96.292928 
1400.000000	96.315667 
1399.000000	96.347067 
1398.000000	96.379227 
1397.000000	96.405818 
1396.000000	96.429017 
1395.000000	96.452019 
1394.000000	96.471602 
1393.000000	96.485421 
1392.000000	96.499605 
1391.000000	96.520023 
1390.000000	96.545697 
1389.000000	96.572572 
1388.000000	96.598617 
1387.000000	96.623535 
1386.000000	96.645740 
1385.000000	96.665141 
1384.000000	96.684346 
1383.000000	96.703496 
1382.000000	96.719847 
1381.000000	96.732910 
1380.000000	96.746038 
1379.000000	96.762456 
1378.000000	96.781483 
1377.000000	96.799973 
1376.000000	96.816383 
1375.000000	96.832149 
1374.000000	96.848682 
1373.000000	96.864487 
1372.000000	96.877247 
1371.000000	96.887460 
1370.000000	96.897178 
1369.000000	96.908122 
1368.000000	96.922505 
1367.000000	96.941416 
1366.000000	96.963797 
1365.000000	96.987453 
1364.000000	97.009229 
1363.000000	97.025782 
1362.000000	97.035218 
1361.000000	97.038470 
1360.000000	97.039282 
1359.000000	97.041850 
1358.000000	97.048348 
1357.000000	97.058983 
1356.000000	97.073355 
1355.000000	97.090849 
1354.000000	97.110418 
1353.000000	97.130519 
1352.000000	97.148230 
1351.000000	97.161005 
1350.000000	97.168389 
1349.000000	97.171209 
1348.000000	97.171361 
1347.000000	97.171363 
1346.000000	97.173817 
1345.000000	97.180029 
1344.000000	97.189013 
1343.000000	97.198736 
1342.000000	97.208138 
1341.000000	97.217158 
1340.000000	97.225011 
1339.000000	97.229534 
1338.000000	97.229322 
1337.000000	97.226325 
1336.000000	97.224360 
1335.000000	97.225536 
1334.000000	97.229711 
1333.000000	97.236258 
1332.000000	97.244577 
1331.000000	97.253518 
1330.000000	97.261411 
1329.000000	97.266834 
1328.000000	97.268889 
1327.000000	97.267351 
1326.000000	97.262652 
1325.000000	97.255639 
1324.000000	97.247803 
1323.000000	97.240795 
1322.000000	97.236043 
1321.000000	97.234995 
1320.000000	97.238926 
1319.000000	97.247730 
1318.000000	97.259000 
1317.000000	97.268936 
1316.000000	97.273984 
1315.000000	97.272032 
1314.000000	97.263578 
1313.000000	97.252475 
1312.000000	97.244006 
1311.000000	97.241176 
1310.000000	97.243281 
1309.000000	97.247964 
1308.000000	97.253513 
1307.000000	97.259337 
1306.000000	97.265052 
1305.000000	97.269773 
1304.000000	97.272289 
1303.000000	97.271244 
1302.000000	97.266080 
1301.000000	97.258303 
1300.000000	97.251315 
1299.000000	97.248272 
1298.000000	97.249950 
1297.000000	97.254669 
1296.000000	97.259893 
1295.000000	97.264003 
1294.000000	97.266646 
1293.000000	97.267692 
1292.000000	97.266203 
1291.000000	97.261165 
1290.000000	97.253763 
1289.000000	97.248031 
1288.000000	97.247810 
1287.000000	97.252999 
1286.000000	97.259738 
1285.000000	97.264380 
1284.000000	97.266185 
1283.000000	97.265989 
1282.000000	97.263969 
1281.000000	97.259437 
1280.000000	97.252123 
1279.000000	97.243234 
1278.000000	97.235768 
1277.000000	97.233514 
1276.000000	97.238265 
1275.000000	97.247853 
1274.000000	97.257910 
1273.000000	97.265670 
1272.000000	97.270738 
1271.000000	97.272396 
1270.000000	97.268808 
1269.000000	97.260025 
1268.000000	97.249793 
1267.000000	97.242447 
1266.000000	97.239093 
1265.000000	97.238652 
1264.000000	97.241225 
1263.000000	97.247868 
1262.000000	97.257431 
1261.000000	97.265902 
1260.000000	97.269892 
1259.000000	97.269623 
1258.000000	97.267529 
1257.000000	97.264668 
1256.000000	97.259662 
1255.000000	97.251926 
1254.000000	97.245117 
1253.000000	97.244978 
1252.000000	97.252523 
1251.000000	97.261231 
1250.000000	97.263093 
1249.000000	97.256230 
1248.000000	97.244348 
1247.000000	97.230165 
1246.000000	97.213257 
1245.000000	97.194520 
1244.000000	97.178526 
1243.000000	97.169537 
1242.000000	97.167668 
1241.000000	97.170212 
1240.000000	97.173931 
1239.000000	97.174587 
1238.000000	97.167545 
1237.000000	97.151423 
1236.000000	97.129118 
1235.000000	97.103379 
1234.000000	97.073636 
1233.000000	97.039345 
1232.000000	97.004060 
1231.000000	96.973171 
1230.000000	96.948934 
1229.000000	96.929920 
1228.000000	96.913166 
1227.000000	96.893691 
1226.000000	96.863850 
1225.000000	96.817394 
1224.000000	96.754480 
1223.000000	96.680591 
1222.000000	96.601091 
1221.000000	96.518995 
1220.000000	96.437006 
1219.000000	96.357776 
1218.000000	96.281083 
1217.000000	96.203179 
1216.000000	96.119310 
1215.000000	96.025288 
1214.000000	95.918320 
1213.000000	95.800227 
1212.000000	95.679329 
1211.000000	95.564558 
1210.000000	95.457007 
1209.000000	95.351429 
1208.000000	95.246367 
1207.000000	95.147289 
1206.000000	95.057619 
1205.000000	94.971528 
1204.000000	94.879149 
1203.000000	94.775939 
1202.000000	94.664406 
1201.000000	94.549541 
1200.000000	94.435350 
1199.000000	94.324048 
1198.000000	94.216041 
1197.000000	94.111459 
1196.000000	94.012136 
1195.000000	93.920120 
1194.000000	93.833484 
1193.000000	93.745547 
1192.000000	93.649197 
1191.000000	93.541117 
1190.000000	93.422717 
1189.000000	93.299076 
1188.000000	93.176311 
1187.000000	93.057560 
1186.000000	92.941710 
1185.000000	92.827466 
1184.000000	92.716213 
1183.000000	92.607636 
1182.000000	92.495222 
1181.000000	92.371005 
1180.000000	92.233365 
1179.000000	92.085736 
1178.000000	91.929871 
1177.000000	91.766373 
1176.000000	91.600348 
1175.000000	91.439120 
1174.000000	91.283750 
1173.000000	91.129102 
1172.000000	90.972560 
1171.000000	90.815766 
1170.000000	90.657547 
1169.000000	90.493370 
1168.000000	90.324094 
1167.000000	90.158798 
1166.000000	90.007843 
1165.000000	89.880589 
1164.000000	89.790843 
1163.000000	89.754692 
1162.000000	89.777580 
1161.000000	89.847533 
1160.000000	89.941486 
1159.000000	90.032741 
1158.000000	90.094372 
1157.000000	90.106389 
1156.000000	90.064385 
1155.000000	89.977556 
1154.000000	89.857899 
1153.000000	89.715730 
1152.000000	89.564076 
1151.000000	89.417594 
1150.000000	89.282994 
1149.000000	89.156827 
1148.000000	89.034805 
1147.000000	88.916041 
1146.000000	88.796622 
1145.000000	88.668411 
1144.000000	88.529047 
1143.000000	88.386581 
1142.000000	88.250064 
1141.000000	88.120881 
1140.000000	87.996029 
1139.000000	87.873543 
1138.000000	87.751654 
1137.000000	87.628230 
1136.000000	87.503138 
1135.000000	87.376023 
1134.000000	87.241919 
1133.000000	87.096382 
1132.000000	86.945002 
1131.000000	86.799259 
1130.000000	86.662148 
1129.000000	86.526970 
1128.000000	86.390911 
1127.000000	86.258758 
1126.000000	86.131023 
1125.000000	85.999931 
1124.000000	85.861246 
1123.000000	85.719718 
1122.000000	85.578696 
1121.000000	85.434764 
1120.000000	85.287457 
1119.000000	85.143944 
1118.000000	85.008473 
1117.000000	84.876764 
1116.000000	84.745717 
1115.000000	84.619072 
1114.000000	84.498600 
1113.000000	84.378998 
1112.000000	84.256342 
1111.000000	84.132658 
1110.000000	84.008678 
1109.000000	83.881927 
1108.000000	83.754543 
1107.000000	83.633039 
1106.000000	83.518425 
1105.000000	83.406171 
1104.000000	83.296184 
1103.000000	83.191617 
1102.000000	83.087089 
1101.000000	82.971709 
1100.000000	82.844979 
1099.000000	82.718174 
1098.000000	82.599392 
1097.000000	82.488543 
1096.000000	82.386944 
1095.000000	82.297345 
1094.000000	82.214496 
1093.000000	82.130414 
1092.000000	82.049451 
1091.000000	81.982798 
1090.000000	81.928008 
1089.000000	81.870498 
1088.000000	81.806083 
1087.000000	81.745054 
1086.000000	81.693284 
1085.000000	81.647391 
1084.000000	81.609748 
1083.000000	81.588665 
1082.000000	81.580187 
1081.000000	81.568556 
1080.000000	81.548971 
1079.000000	81.531691 
1078.000000	81.519448 
1077.000000	81.499506 
1076.000000	81.463816 
1075.000000	81.419289 
1074.000000	81.372073 
1073.000000	81.317981 
1072.000000	81.253513 
1071.000000	81.178962 
1070.000000	81.084627 
1069.000000	80.951302 
1068.000000	80.772325 
1067.000000	80.561766 
1066.000000	80.335593 
1065.000000	80.098630 
1064.000000	79.855758 
1063.000000	79.619747 
1062.000000	79.399279 
1061.000000	79.192391 
1060.000000	78.997855 
1059.000000	78.818786 
1058.000000	78.649885 
1057.000000	78.476651 
1056.000000	78.293376 
1055.000000	78.107965 
1054.000000	77.924710 
1053.000000	77.737968 
1052.000000	77.548609 
1051.000000	77.369609 
1050.000000	77.206923 
1049.000000	77.050955 
1048.000000	76.893399 
1047.000000	76.734776 
1046.000000	76.570885 
1045.000000	76.390486 
1044.000000	76.191138 
1043.000000	75.982102 
1042.000000	75.769439 
1041.000000	75.553778 
1040.000000	75.344010 
1039.000000	75.155376 
1038.000000	74.990841 
1037.000000	74.840791 
1036.000000	74.702145 
1035.000000	74.579594 
1034.000000	74.467737 
1033.000000	74.353259 
1032.000000	74.237230 
1031.000000	74.134585 
1030.000000	74.049449 
1029.000000	73.972160 
1028.000000	73.902672 
1027.000000	73.854242 
1026.000000	73.829807 
1025.000000	73.815904 
1024.000000	73.803500 
1023.000000	73.793493 
1022.000000	73.778538 
1021.000000	73.742706 
1020.000000	73.684907 
1019.000000	73.622669 
1018.000000	73.568973 
1017.000000	73.524655 
1016.000000	73.494206 
1015.000000	73.485478 
1014.000000	73.489938 
1013.000000	73.486031 
1012.000000	73.467046 
1011.000000	73.444895 
1010.000000	73.424166 
1009.000000	73.396111 
1008.000000	73.362106 
1007.000000	73.339251 
1006.000000	73.337202 
1005.000000	73.351317 
1004.000000	73.382032 
1003.000000	73.436867 
1002.000000	73.507946 
1001.000000	73.571944 
1000.000000	73.620041 
999.000000	 73.665911 
998.000000	 73.717759 
997.000000	 73.766013 
996.000000	 73.806954 
995.000000	 73.856482 
994.000000	 73.930071 
993.000000	 74.026752 
992.000000	 74.139541 
991.000000	 74.263413 
990.000000	 74.387106 
989.000000	 74.496245 
988.000000	 74.591880 
987.000000	 74.689632 
986.000000	 74.796861 
985.000000	 74.908690 
984.000000	 75.028555 
983.000000	 75.171307 
982.000000	 75.340920 
981.000000	 75.525003 
980.000000	 75.716018 
979.000000	 75.918037 
978.000000	 76.127784 
977.000000	 76.330585 
976.000000	 76.522528 
975.000000	 76.717556 
974.000000	 76.925628 
973.000000	 77.141869 
972.000000	 77.363159 
971.000000	 77.597208 
970.000000	 77.847933 
969.000000	 78.107833 
968.000000	 78.370814 
967.000000	 78.637204 
966.000000	 78.901446 
965.000000	 79.151048 
964.000000	 79.383235 
963.000000	 79.608326 
962.000000	 79.833154 
961.000000	 80.055977 
960.000000	 80.280587 
959.000000	 80.518228 
958.000000	 80.769427 
957.000000	 81.018417 
956.000000	 81.251085 
955.000000	 81.465860 
954.000000	 81.664661 
953.000000	 81.847659 
952.000000	 82.020631 
951.000000	 82.193781 
950.000000	 82.369340 
949.000000	 82.542568 
948.000000	 82.716408 
947.000000	 82.900228 
946.000000	 83.091298 
945.000000	 83.272661 
944.000000	 83.433003 
943.000000	 83.574988 
942.000000	 83.702233 
941.000000	 83.813541 
940.000000	 83.914580 
939.000000	 84.020903 
938.000000	 84.143147 
937.000000	 84.280420 
936.000000	 84.431274 
935.000000	 84.597235 
934.000000	 84.771149 
933.000000	 84.936004 
932.000000	 85.081404 
931.000000	 85.210870 
930.000000	 85.330276 
929.000000	 85.441040 
928.000000	 85.548447 
927.000000	 85.663953 
926.000000	 85.792911 
925.000000	 85.929264 
924.000000	 86.065828 
923.000000	 86.200146 
922.000000	 86.327944 
921.000000	 86.442119 
920.000000	 86.542016 
919.000000	 86.634267 
918.000000	 86.721929 
917.000000	 86.802546 
916.000000	 86.879464 
915.000000	 86.965118 
914.000000	 87.069640 
913.000000	 87.193944 
912.000000	 87.334837 
911.000000	 87.487787 
910.000000	 87.644093 
909.000000	 87.795833 
908.000000	 87.945369 
907.000000	 88.101538 
906.000000	 88.267568 
905.000000	 88.442315 
904.000000	 88.630436 
903.000000	 88.838402 
902.000000	 89.061041 
901.000000	 89.284636 
900.000000	 89.503719 
899.000000	 89.722656 
898.000000	 89.940280 
897.000000	 90.145043 
896.000000	 90.326773 
895.000000	 90.484048 
894.000000	 90.621733 
893.000000	 90.751828 
892.000000	 90.894332 
891.000000	 91.063489 
890.000000	 91.250809 
889.000000	 91.430980 
888.000000	 91.583053 
887.000000	 91.696647 
886.000000	 91.764946 
885.000000	 91.789174 
884.000000	 91.788831 
883.000000	 91.790041 
882.000000	 91.801205 
881.000000	 91.816062 
880.000000	 91.841165 
879.000000	 91.899437 
878.000000	 92.000746 
877.000000	 92.128379 
876.000000	 92.262529 
875.000000	 92.400073 
874.000000	 92.544416 
873.000000	 92.695488 
872.000000	 92.859957 
871.000000	 93.053963 
870.000000	 93.283530 
869.000000	 93.533729 
868.000000	 93.784995 
867.000000	 94.028746 
866.000000	 94.260597 
865.000000	 94.471077 
864.000000	 94.652524 
863.000000	 94.807053 
862.000000	 94.941133 
861.000000	 95.060001 
860.000000	 95.172803 
859.000000	 95.294111 
858.000000	 95.432503 
857.000000	 95.583842 
856.000000	 95.740792 
855.000000	 95.900454 
854.000000	 96.056403 
853.000000	 96.191970 
852.000000	 96.291087 
851.000000	 96.353390 
850.000000	 96.394273 
849.000000	 96.433097 
848.000000	 96.483728 
847.000000	 96.551083 
846.000000	 96.632095 
845.000000	 96.721946 
844.000000	 96.818907 
843.000000	 96.918202 
842.000000	 97.003828 
841.000000	 97.056229 
840.000000	 97.069276 
839.000000	 97.052628 
838.000000	 97.018991 
837.000000	 96.979129 
836.000000	 96.948970 
835.000000	 96.947452 
834.000000	 96.980249 
833.000000	 97.033964 
832.000000	 97.090760 
831.000000	 97.140160 
830.000000	 97.174004 
829.000000	 97.182495 
828.000000	 97.164054 
827.000000	 97.132306 
826.000000	 97.106684 
825.000000	 97.101497 
824.000000	 97.126178 
823.000000	 97.183536 
822.000000	 97.260782 
821.000000	 97.332897 
820.000000	 97.379787 
819.000000	 97.391443 
818.000000	 97.357564 
817.000000	 97.266829 
816.000000	 97.121406 
815.000000	 96.941159 
814.000000	 96.745153 
813.000000	 96.533802 
812.000000	 96.292314 
811.000000	 96.001642 
810.000000	 95.639998 
809.000000	 95.184881 
808.000000	 94.625405 
807.000000	 93.969913 
806.000000	 93.237821 
805.000000	 92.452936 
804.000000	 91.651184 
803.000000	 90.881822 
802.000000	 90.187149 
801.000000	 89.588415 
800.000000	 89.099330 
799.000000	 88.738038 
798.000000	 88.512035 
797.000000	 88.403494 
796.000000	 88.381767 
795.000000	 88.420594 
794.000000	 88.497271 
793.000000	 88.591078 
792.000000	 88.693063 
791.000000	 88.805560 
790.000000	 88.923436 
789.000000	 89.025191 
788.000000	 89.086793 
787.000000	 89.091556 
786.000000	 89.021585 
785.000000	 88.855614 
784.000000	 88.588089 
783.000000	 88.244237 
782.000000	 87.870465 
781.000000	 87.517699 
780.000000	 87.236113 
779.000000	 87.068807 
778.000000	 87.035890 
777.000000	 87.129021 
776.000000	 87.323960 
775.000000	 87.588074 
774.000000	 87.877527 
773.000000	 88.148788 
772.000000	 88.383501 
771.000000	 88.592825 
770.000000	 88.795684 
769.000000	 89.003816 
768.000000	 89.224873 
767.000000	 89.459854 
766.000000	 89.692486 
765.000000	 89.898927 
764.000000	 90.074762 
763.000000	 90.236759 
762.000000	 90.392804 
761.000000	 90.528616 
760.000000	 90.633599 
759.000000	 90.723914 
758.000000	 90.829184 
757.000000	 90.969311 
756.000000	 91.153335 
755.000000	 91.383863 
754.000000	 91.645073 
753.000000	 91.895554 
752.000000	 92.090157 
751.000000	 92.209389 
750.000000	 92.263757 
749.000000	 92.278236 
748.000000	 92.281381 
747.000000	 92.303252 
746.000000	 92.370648 
745.000000	 92.498984 
744.000000	 92.688310 
743.000000	 92.923060 
742.000000	 93.173724 
741.000000	 93.405289 
740.000000	 93.590812 
739.000000	 93.718939 
738.000000	 93.793005 
737.000000	 93.829418 
736.000000	 93.855602 
735.000000	 93.901714 
734.000000	 93.989211 
733.000000	 94.125819 
732.000000	 94.305569 
731.000000	 94.505591 
730.000000	 94.685965 
729.000000	 94.806261 
728.000000	 94.851065 
727.000000	 94.835883 
726.000000	 94.788560 
725.000000	 94.735534 
724.000000	 94.704996 
723.000000	 94.726770 
722.000000	 94.819337 
721.000000	 94.980436 
720.000000	 95.189764 
719.000000	 95.412216 
718.000000	 95.600945 
717.000000	 95.712882 
716.000000	 95.730047 
715.000000	 95.667733 
714.000000	 95.565084 
713.000000	 95.471056 
712.000000	 95.435599 
711.000000	 95.494992 
710.000000	 95.651685 
709.000000	 95.872359 
708.000000	 96.109886 
707.000000	 96.321649 
706.000000	 96.465700 
705.000000	 96.501049 
704.000000	 96.408270 
703.000000	 96.200383 
702.000000	 95.908754 
701.000000	 95.566296 
700.000000	 95.207436 
699.000000	 94.872261 
698.000000	 94.594541 
697.000000	 94.392446 
696.000000	 94.276815 
695.000000	 94.251652 
694.000000	 94.299153 
693.000000	 94.375563 
692.000000	 94.437352 
691.000000	 94.473400 
690.000000	 94.506067 
689.000000	 94.571752 
688.000000	 94.704013 
687.000000	 94.919578 
686.000000	 95.207818 
685.000000	 95.530069 
684.000000	 95.832827 
683.000000	 96.066099 
682.000000	 96.194453 
681.000000	 96.208251 
680.000000	 96.133504 
679.000000	 96.025231 
678.000000	 95.940121 
677.000000	 95.918367 
676.000000	 95.991023 
675.000000	 96.169075 
674.000000	 96.419318 
673.000000	 96.673458 
672.000000	 96.884767 
671.000000	 97.068549 
670.000000	 97.256344 
669.000000	 97.404875 
668.000000	 97.353663 
667.000000	 97.069750 
666.000000	 96.776577 
665.000000	 96.626123 
664.000000	 96.623452 
663.000000	 96.756179 
662.000000	 96.988689 
661.000000	 97.248337 
660.000000	 97.459841 
659.000000	 97.574813 
658.000000	 97.570002 
657.000000	 97.449453 
656.000000	 97.257951 
655.000000	 97.070637 
654.000000	 96.949107 
653.000000	 96.913382 
652.000000	 96.967819 
651.000000	 97.119973 
650.000000	 97.350058 

