4000.000000	97.104702 
3999.000000	97.102524 
3998.000000	97.098881 
3997.000000	97.095264 
3996.000000	97.093148 
3995.000000	97.093091 
3994.000000	97.094697 
3993.000000	97.096616 
3992.000000	97.097468 
3991.000000	97.096864 
3990.000000	97.095458 
3989.000000	97.094256 
3988.000000	97.093684 
3987.000000	97.093557 
3986.000000	97.093755 
3985.000000	97.094427 
3984.000000	97.095460 
3983.000000	97.096253 
3982.000000	97.096457 
3981.000000	97.096464 
3980.000000	97.096685 
3979.000000	97.096734 
3978.000000	97.095913 
3977.000000	97.094308 
3976.000000	97.092803 
3975.000000	97.091862 
3974.000000	97.090981 
3973.000000	97.089528 
3972.000000	97.087511 
3971.000000	97.085475 
3970.000000	97.083984 
3969.000000	97.083505 
3968.000000	97.084215 
3967.000000	97.085721 
3966.000000	97.087212 
3965.000000	97.087939 
3964.000000	97.087567 
3963.000000	97.086202 
3962.000000	97.084358 
3961.000000	97.082735 
3960.000000	97.081676 
3959.000000	97.080998 
3958.000000	97.080419 
3957.000000	97.080053 
3956.000000	97.080000 
3955.000000	97.079837 
3954.000000	97.079043 
3953.000000	97.077570 
3952.000000	97.075830 
3951.000000	97.074100 
3950.000000	97.072303 
3949.000000	97.070379 
3948.000000	97.068633 
3947.000000	97.067687 
3946.000000	97.067933 
3945.000000	97.068989 
3944.000000	97.069739 
3943.000000	97.069493 
3942.000000	97.068872 
3941.000000	97.069004 
3940.000000	97.070163 
3939.000000	97.071576 
3938.000000	97.072286 
3937.000000	97.072146 
3936.000000	97.071446 
3935.000000	97.070009 
3934.000000	97.067509 
3933.000000	97.064460 
3932.000000	97.062256 
3931.000000	97.061570 
3930.000000	97.061881 
3929.000000	97.062701 
3928.000000	97.064061 
3927.000000	97.065558 
3926.000000	97.065766 
3925.000000	97.063956 
3924.000000	97.061564 
3923.000000	97.060340 
3922.000000	97.059976 
3921.000000	97.059110 
3920.000000	97.057565 
3919.000000	97.056474 
3918.000000	97.056275 
3917.000000	97.056404 
3916.000000	97.056744 
3915.000000	97.057899 
3914.000000	97.059714 
3913.000000	97.061135 
3912.000000	97.061411 
3911.000000	97.060914 
3910.000000	97.060151 
3909.000000	97.059390 
3908.000000	97.058733 
3907.000000	97.058122 
3906.000000	97.057004 
3905.000000	97.054617 
3904.000000	97.051243 
3903.000000	97.048278 
3902.000000	97.046769 
3901.000000	97.046528 
3900.000000	97.046691 
3899.000000	97.046757 
3898.000000	97.046749 
3897.000000	97.046626 
3896.000000	97.046266 
3895.000000	97.045857 
3894.000000	97.045635 
3893.000000	97.045566 
3892.000000	97.045310 
3891.000000	97.044752 
3890.000000	97.044094 
3889.000000	97.043531 
3888.000000	97.043039 
3887.000000	97.042538 
3886.000000	97.042037 
3885.000000	97.041545 
3884.000000	97.041057 
3883.000000	97.040569 
3882.000000	97.040076 
3881.000000	97.039584 
3880.000000	97.039116 
3879.000000	97.038687 
3878.000000	97.038295 
3877.000000	97.037925 
3876.000000	97.037563 
3875.000000	97.037202 
3874.000000	97.036848 
3873.000000	97.036508 
3872.000000	97.036184 
3871.000000	97.035870 
3870.000000	97.035573 
3869.000000	97.035312 
3868.000000	97.035100 
3867.000000	97.034925 
3866.000000	97.034763 
3865.000000	97.034610 
3864.000000	97.034476 
3863.000000	97.034365 
3862.000000	97.034265 
3861.000000	97.034169 
3860.000000	97.034074 
3859.000000	97.033977 
3858.000000	97.033869 
3857.000000	97.033755 
3856.000000	97.033653 
3855.000000	97.033571 
3854.000000	97.033510 
3853.000000	97.033470 
3852.000000	97.033450 
3851.000000	97.033445 
3850.000000	97.033456 
3849.000000	97.033484 
3848.000000	97.033532 
3847.000000	97.033591 
3846.000000	97.033645 
3845.000000	97.033678 
3844.000000	97.033687 
3843.000000	97.033681 
3842.000000	97.033679 
3841.000000	97.033706 
3840.000000	97.033775 
3839.000000	97.033887 
3838.000000	97.034028 
3837.000000	97.034182 
3836.000000	97.034337 
3835.000000	97.034498 
3834.000000	97.034671 
3833.000000	97.034863 
3832.000000	97.035077 
3831.000000	97.035308 
3830.000000	97.035549 
3829.000000	97.035793 
3828.000000	97.036035 
3827.000000	97.036267 
3826.000000	97.036478 
3825.000000	97.036671 
3824.000000	97.036860 
3823.000000	97.037054 
3822.000000	97.037256 
3821.000000	97.037472 
3820.000000	97.037720 
3819.000000	97.038013 
3818.000000	97.038348 
3817.000000	97.038715 
3816.000000	97.039113 
3815.000000	97.039543 
3814.000000	97.039989 
3813.000000	97.040420 
3812.000000	97.040820 
3811.000000	97.041183 
3810.000000	97.041534 
3809.000000	97.041907 
3808.000000	97.042266 
3807.000000	97.042512 
3806.000000	97.042620 
3805.000000	97.042700 
3804.000000	97.042833 
3803.000000	97.042976 
3802.000000	97.043079 
3801.000000	97.043384 
3800.000000	97.044063 
3799.000000	97.044817 
3798.000000	97.045282 
3797.000000	97.045477 
3796.000000	97.045804 
3795.000000	97.046513 
3794.000000	97.047293 
3793.000000	97.047618 
3792.000000	97.047529 
3791.000000	97.047661 
3790.000000	97.048243 
3789.000000	97.048656 
3788.000000	97.048330 
3787.000000	97.047485 
3786.000000	97.046595 
3785.000000	97.045633 
3784.000000	97.044511 
3783.000000	97.043702 
3782.000000	97.043393 
3781.000000	97.043030 
3780.000000	97.042305 
3779.000000	97.042300 
3778.000000	97.043997 
3777.000000	97.046580 
3776.000000	97.047832 
3775.000000	97.046527 
3774.000000	97.043710 
3773.000000	97.041432 
3772.000000	97.039942 
3771.000000	97.037776 
3770.000000	97.034825 
3769.000000	97.032949 
3768.000000	97.032686 
3767.000000	97.032254 
3766.000000	97.030009 
3765.000000	97.026853 
3764.000000	97.025513 
3763.000000	97.026970 
3762.000000	97.028858 
3761.000000	97.028458 
3760.000000	97.026114 
3759.000000	97.024068 
3758.000000	97.021788 
3757.000000	97.017587 
3756.000000	97.012333 
3755.000000	97.007903 
3754.000000	97.004170 
3753.000000	96.999855 
3752.000000	96.996567 
3751.000000	96.996670 
3750.000000	96.997122 
3749.000000	96.993904 
3748.000000	96.989979 
3747.000000	96.990615 
3746.000000	96.994498 
3745.000000	96.995614 
3744.000000	96.995856 
3743.000000	96.999193 
3742.000000	97.001533 
3741.000000	96.998385 
3740.000000	96.991956 
3739.000000	96.989527 
3738.000000	96.993424 
3737.000000	96.997041 
3736.000000	96.995145 
3735.000000	96.992270 
3734.000000	96.994540 
3733.000000	96.999665 
3732.000000	97.002693 
3731.000000	97.003424 
3730.000000	97.003780 
3729.000000	97.003287 
3728.000000	96.999663 
3727.000000	96.993100 
3726.000000	96.988148 
3725.000000	96.987904 
3724.000000	96.990173 
3723.000000	96.991799 
3722.000000	96.992833 
3721.000000	96.994246 
3720.000000	96.994771 
3719.000000	96.993166 
3718.000000	96.989141 
3717.000000	96.984168 
3716.000000	96.980911 
3715.000000	96.979437 
3714.000000	96.976728 
3713.000000	96.970616 
3712.000000	96.963394 
3711.000000	96.959359 
3710.000000	96.958878 
3709.000000	96.959225 
3708.000000	96.957185 
3707.000000	96.950739 
3706.000000	96.940950 
3705.000000	96.931139 
3704.000000	96.923986 
3703.000000	96.919402 
3702.000000	96.914706 
3701.000000	96.907142 
3700.000000	96.896556 
3699.000000	96.885353 
3698.000000	96.874998 
3697.000000	96.865005 
3696.000000	96.856275 
3695.000000	96.849573 
3694.000000	96.842673 
3693.000000	96.834142 
3692.000000	96.827190 
3691.000000	96.826198 
3690.000000	96.829319 
3689.000000	96.831047 
3688.000000	96.829413 
3687.000000	96.825886 
3686.000000	96.820665 
3685.000000	96.811442 
3684.000000	96.798625 
3683.000000	96.788118 
3682.000000	96.783716 
3681.000000	96.778823 
3680.000000	96.764986 
3679.000000	96.744289 
3678.000000	96.726296 
3677.000000	96.710809 
3676.000000	96.691173 
3675.000000	96.672666 
3674.000000	96.662049 
3673.000000	96.655783 
3672.000000	96.646025 
3671.000000	96.629642 
3670.000000	96.614959 
3669.000000	96.610302 
3668.000000	96.608917 
3667.000000	96.601297 
3666.000000	96.588639 
3665.000000	96.576877 
3664.000000	96.568060 
3663.000000	96.559464 
3662.000000	96.547049 
3661.000000	96.529540 
3660.000000	96.510420 
3659.000000	96.493565 
3658.000000	96.479121 
3657.000000	96.462028 
3656.000000	96.439952 
3655.000000	96.416484 
3654.000000	96.395027 
3653.000000	96.375030 
3652.000000	96.352355 
3651.000000	96.324923 
3650.000000	96.298177 
3649.000000	96.278250 
3648.000000	96.264214 
3647.000000	96.254671 
3646.000000	96.250965 
3645.000000	96.251876 
3644.000000	96.252302 
3643.000000	96.248409 
3642.000000	96.240587 
3641.000000	96.231935 
3640.000000	96.223296 
3639.000000	96.212082 
3638.000000	96.197624 
3637.000000	96.182389 
3636.000000	96.167207 
3635.000000	96.148020 
3634.000000	96.122760 
3633.000000	96.096758 
3632.000000	96.076359 
3631.000000	96.058817 
3630.000000	96.035216 
3629.000000	96.010499 
3628.000000	95.999448 
3627.000000	96.000496 
3626.000000	96.001916 
3625.000000	96.000594 
3624.000000	96.001674 
3623.000000	96.009627 
3622.000000	96.020957 
3621.000000	96.025438 
3620.000000	96.016421 
3619.000000	95.997981 
3618.000000	95.978659 
3617.000000	95.964926 
3616.000000	95.961866 
3615.000000	95.970850 
3614.000000	95.988559 
3613.000000	96.010051 
3612.000000	96.030539 
3611.000000	96.045285 
3610.000000	96.052332 
3609.000000	96.055462 
3608.000000	96.061195 
3607.000000	96.071334 
3606.000000	96.081443 
3605.000000	96.089191 
3604.000000	96.098112 
3603.000000	96.111844 
3602.000000	96.128593 
3601.000000	96.141915 
3600.000000	96.148357 
3599.000000	96.149469 
3598.000000	96.148657 
3597.000000	96.148636 
3596.000000	96.151401 
3595.000000	96.155346 
3594.000000	96.157156 
3593.000000	96.155691 
3592.000000	96.153389 
3591.000000	96.154055 
3590.000000	96.158329 
3589.000000	96.162720 
3588.000000	96.164827 
3587.000000	96.166888 
3586.000000	96.171032 
3585.000000	96.176688 
3584.000000	96.183680 
3583.000000	96.192744 
3582.000000	96.204008 
3581.000000	96.215319 
3580.000000	96.223759 
3579.000000	96.227745 
3578.000000	96.227904 
3577.000000	96.226257 
3576.000000	96.224592 
3575.000000	96.223449 
3574.000000	96.222084 
3573.000000	96.219981 
3572.000000	96.216993 
3571.000000	96.213090 
3570.000000	96.207401 
3569.000000	96.198480 
3568.000000	96.187875 
3567.000000	96.181405 
3566.000000	96.182124 
3565.000000	96.186509 
3564.000000	96.190137 
3563.000000	96.192266 
3562.000000	96.194420 
3561.000000	96.197708 
3560.000000	96.201819 
3559.000000	96.205922 
3558.000000	96.209264 
3557.000000	96.211350 
3556.000000	96.211945 
3555.000000	96.211251 
3554.000000	96.209686 
3553.000000	96.207810 
3552.000000	96.206268 
3551.000000	96.205120 
3550.000000	96.203628 
3549.000000	96.201150 
3548.000000	96.198101 
3547.000000	96.195632 
3546.000000	96.194307 
3545.000000	96.193788 
3544.000000	96.193934 
3543.000000	96.195131 
3542.000000	96.197283 
3541.000000	96.199551 
3540.000000	96.201048 
3539.000000	96.201294 
3538.000000	96.200297 
3537.000000	96.198690 
3536.000000	96.197589 
3535.000000	96.197532 
3534.000000	96.198115 
3533.000000	96.198637 
3532.000000	96.198938 
3531.000000	96.199339 
3530.000000	96.199963 
3529.000000	96.200426 
3528.000000	96.200252 
3527.000000	96.199379 
3526.000000	96.198170 
3525.000000	96.197153 
3524.000000	96.196768 
3523.000000	96.197205 
3522.000000	96.198266 
3521.000000	96.199479 
3520.000000	96.200422 
3519.000000	96.200944 
3518.000000	96.201089 
3517.000000	96.200928 
3516.000000	96.200555 
3515.000000	96.200159 
3514.000000	96.200012 
3513.000000	96.200245 
3512.000000	96.200677 
3511.000000	96.200936 
3510.000000	96.200817 
3509.000000	96.200474 
3508.000000	96.200255 
3507.000000	96.200352 
3506.000000	96.200600 
3505.000000	96.200595 
3504.000000	96.200044 
3503.000000	96.199017 
3502.000000	96.197941 
3501.000000	96.197311 
3500.000000	96.197370 
3499.000000	96.197972 
3498.000000	96.198651 
3497.000000	96.198958 
3496.000000	96.198700 
3495.000000	96.197902 
3494.000000	96.196733 
3493.000000	96.195541 
3492.000000	96.194690 
3491.000000	96.194208 
3490.000000	96.193760 
3489.000000	96.193023 
3488.000000	96.191921 
3487.000000	96.190456 
3486.000000	96.188624 
3485.000000	96.186716 
3484.000000	96.185370 
3483.000000	96.184940 
3482.000000	96.184990 
3481.000000	96.184724 
3480.000000	96.183852 
3479.000000	96.182697 
3478.000000	96.181487 
3477.000000	96.179987 
3476.000000	96.177901 
3475.000000	96.175404 
3474.000000	96.173134 
3473.000000	96.171768 
3472.000000	96.171549 
3471.000000	96.171974 
3470.000000	96.172008 
3469.000000	96.170833 
3468.000000	96.168447 
3467.000000	96.165669 
3466.000000	96.163482 
3465.000000	96.162099 
3464.000000	96.160624 
3463.000000	96.157723 
3462.000000	96.152877 
3461.000000	96.147147 
3460.000000	96.142483 
3459.000000	96.139894 
3458.000000	96.138688 
3457.000000	96.137321 
3456.000000	96.135095 
3455.000000	96.132788 
3454.000000	96.131591 
3453.000000	96.131719 
3452.000000	96.132322 
3451.000000	96.132367 
3450.000000	96.131357 
3449.000000	96.129346 
3448.000000	96.126659 
3447.000000	96.123743 
3446.000000	96.120942 
3445.000000	96.118377 
3444.000000	96.116076 
3443.000000	96.114131 
3442.000000	96.112598 
3441.000000	96.111297 
3440.000000	96.109876 
3439.000000	96.108107 
3438.000000	96.106050 
3437.000000	96.103913 
3436.000000	96.101928 
3435.000000	96.100328 
3434.000000	96.099256 
3433.000000	96.098566 
3432.000000	96.097860 
3431.000000	96.096824 
3430.000000	96.095441 
3429.000000	96.093901 
3428.000000	96.092355 
3427.000000	96.090851 
3426.000000	96.089454 
3425.000000	96.088278 
3424.000000	96.087311 
3423.000000	96.086271 
3422.000000	96.084825 
3421.000000	96.082942 
3420.000000	96.080990 
3419.000000	96.079442 
3418.000000	96.078429 
3417.000000	96.077755 
3416.000000	96.077117 
3415.000000	96.076311 
3414.000000	96.075239 
3413.000000	96.073858 
3412.000000	96.072272 
3411.000000	96.070762 
3410.000000	96.069589 
3409.000000	96.068787 
3408.000000	96.068211 
3407.000000	96.067711 
3406.000000	96.067203 
3405.000000	96.066664 
3404.000000	96.066126 
3403.000000	96.065605 
3402.000000	96.064986 
3401.000000	96.064078 
3400.000000	96.062846 
3399.000000	96.061511 
3398.000000	96.060325 
3397.000000	96.059340 
3396.000000	96.058501 
3395.000000	96.057886 
3394.000000	96.057640 
3393.000000	96.057679 
3392.000000	96.057657 
3391.000000	96.057309 
3390.000000	96.056762 
3389.000000	96.056414 
3388.000000	96.056573 
3387.000000	96.057242 
3386.000000	96.058171 
3385.000000	96.058938 
3384.000000	96.059066 
3383.000000	96.058332 
3382.000000	96.057211 
3381.000000	96.056726 
3380.000000	96.057429 
3379.000000	96.058683 
3378.000000	96.059341 
3377.000000	96.059271 
3376.000000	96.059420 
3375.000000	96.060243 
3374.000000	96.060871 
3373.000000	96.060420 
3372.000000	96.059531 
3371.000000	96.059813 
3370.000000	96.061867 
3369.000000	96.064552 
3368.000000	96.066219 
3367.000000	96.066356 
3366.000000	96.065840 
3365.000000	96.065869 
3364.000000	96.066853 
3363.000000	96.068186 
3362.000000	96.068907 
3361.000000	96.068639 
3360.000000	96.067938 
3359.000000	96.067747 
3358.000000	96.068530 
3357.000000	96.069965 
3356.000000	96.071386 
3355.000000	96.072482 
3354.000000	96.073670 
3353.000000	96.075838 
3352.000000	96.079541 
3351.000000	96.084286 
3350.000000	96.088699 
3349.000000	96.091654 
3348.000000	96.093261 
3347.000000	96.094658 
3346.000000	96.096865 
3345.000000	96.099824 
3344.000000	96.102453 
3343.000000	96.103451 
3342.000000	96.102277 
3341.000000	96.099735 
3340.000000	96.097443 
3339.000000	96.096497 
3338.000000	96.096860 
3337.000000	96.097947 
3336.000000	96.099398 
3335.000000	96.101126 
3334.000000	96.102863 
3333.000000	96.104142 
3332.000000	96.104804 
3331.000000	96.105206 
3330.000000	96.105827 
3329.000000	96.106820 
3328.000000	96.108059 
3327.000000	96.109397 
3326.000000	96.110737 
3325.000000	96.111900 
3324.000000	96.112667 
3323.000000	96.113069 
3322.000000	96.113544 
3321.000000	96.114621 
3320.000000	96.116383 
3319.000000	96.118392 
3318.000000	96.120190 
3317.000000	96.121740 
3316.000000	96.123239 
3315.000000	96.124658 
3314.000000	96.125762 
3313.000000	96.126602 
3312.000000	96.127669 
3311.000000	96.129467 
3310.000000	96.132072 
3309.000000	96.135145 
3308.000000	96.138111 
3307.000000	96.140223 
3306.000000	96.140795 
3305.000000	96.139821 
3304.000000	96.138387 
3303.000000	96.138086 
3302.000000	96.139654 
3301.000000	96.142261 
3300.000000	96.144117 
3299.000000	96.143924 
3298.000000	96.141861 
3297.000000	96.139456 
3296.000000	96.138464 
3295.000000	96.139766 
3294.000000	96.143186 
3293.000000	96.147967 
3292.000000	96.153263 
3291.000000	96.158300 
3290.000000	96.162374 
3289.000000	96.165024 
3288.000000	96.166329 
3287.000000	96.166905 
3286.000000	96.167381 
3285.000000	96.167771 
3284.000000	96.167528 
3283.000000	96.166396 
3282.000000	96.165068 
3281.000000	96.164570 
3280.000000	96.164887 
3279.000000	96.164839 
3278.000000	96.163803 
3277.000000	96.163025 
3276.000000	96.164415 
3275.000000	96.168320 
3274.000000	96.173379 
3273.000000	96.178465 
3272.000000	96.183682 
3271.000000	96.189240 
3270.000000	96.194355 
3269.000000	96.197895 
3268.000000	96.199604 
3267.000000	96.200178 
3266.000000	96.200521 
3265.000000	96.201274 
3264.000000	96.202578 
3263.000000	96.203844 
3262.000000	96.204189 
3261.000000	96.203496 
3260.000000	96.202635 
3259.000000	96.202366 
3258.000000	96.202533 
3257.000000	96.202811 
3256.000000	96.203733 
3255.000000	96.206141 
3254.000000	96.209909 
3253.000000	96.213911 
3252.000000	96.217317 
3251.000000	96.220336 
3250.000000	96.223437 
3249.000000	96.226367 
3248.000000	96.228394 
3247.000000	96.229380 
3246.000000	96.230153 
3245.000000	96.231600 
3244.000000	96.233619 
3243.000000	96.235298 
3242.000000	96.236106 
3241.000000	96.236515 
3240.000000	96.237353 
3239.000000	96.238935 
3238.000000	96.241134 
3237.000000	96.243942 
3236.000000	96.247394 
3235.000000	96.251047 
3234.000000	96.254033 
3233.000000	96.255866 
3232.000000	96.256848 
3231.000000	96.257785 
3230.000000	96.259283 
3229.000000	96.261329 
3228.000000	96.263543 
3227.000000	96.265637 
3226.000000	96.267628 
3225.000000	96.269696 
3224.000000	96.271939 
3223.000000	96.274242 
3222.000000	96.276387 
3221.000000	96.278290 
3220.000000	96.280075 
3219.000000	96.281923 
3218.000000	96.283882 
3217.000000	96.285901 
3216.000000	96.288003 
3215.000000	96.290383 
3214.000000	96.293285 
3213.000000	96.296678 
3212.000000	96.300003 
3211.000000	96.302455 
3210.000000	96.303662 
3209.000000	96.304069 
3208.000000	96.304474 
3207.000000	96.305200 
3206.000000	96.306034 
3205.000000	96.306896 
3204.000000	96.308187 
3203.000000	96.310357 
3202.000000	96.313415 
3201.000000	96.316937 
3200.000000	96.320402 
3199.000000	96.323506 
3198.000000	96.326352 
3197.000000	96.329317 
3196.000000	96.332460 
3195.000000	96.335230 
3194.000000	96.337199 
3193.000000	96.338988 
3192.000000	96.341823 
3191.000000	96.345833 
3190.000000	96.349366 
3189.000000	96.350520 
3188.000000	96.349064 
3187.000000	96.346654 
3186.000000	96.345360 
3185.000000	96.346110 
3184.000000	96.348460 
3183.000000	96.351475 
3182.000000	96.354628 
3181.000000	96.357832 
3180.000000	96.361042 
3179.000000	96.364311 
3178.000000	96.368192 
3177.000000	96.373415 
3176.000000	96.379970 
3175.000000	96.386977 
3174.000000	96.393623 
3173.000000	96.399536 
3172.000000	96.403914 
3171.000000	96.405278 
3170.000000	96.403009 
3169.000000	96.398589 
3168.000000	96.394458 
3167.000000	96.391839 
3166.000000	96.390551 
3165.000000	96.390398 
3164.000000	96.391403 
3163.000000	96.392960 
3162.000000	96.394102 
3161.000000	96.394870 
3160.000000	96.396571 
3159.000000	96.400464 
3158.000000	96.406920 
3157.000000	96.415623 
3156.000000	96.425509 
3155.000000	96.434506 
3154.000000	96.440633 
3153.000000	96.443795 
3152.000000	96.445661 
3151.000000	96.447347 
3150.000000	96.448063 
3149.000000	96.446654 
3148.000000	96.443645 
3147.000000	96.440998 
3146.000000	96.440367 
3145.000000	96.442164 
3144.000000	96.445861 
3143.000000	96.450398 
3142.000000	96.454596 
3141.000000	96.457934 
3140.000000	96.461012 
3139.000000	96.464930 
3138.000000	96.470291 
3137.000000	96.476750 
3136.000000	96.483083 
3135.000000	96.487806 
3134.000000	96.490387 
3133.000000	96.491963 
3132.000000	96.494285 
3131.000000	96.497763 
3130.000000	96.501110 
3129.000000	96.503025 
3128.000000	96.503572 
3127.000000	96.503788 
3126.000000	96.504550 
3125.000000	96.506156 
3124.000000	96.508483 
3123.000000	96.510981 
3122.000000	96.512868 
3121.000000	96.513959 
3120.000000	96.515109 
3119.000000	96.517416 
3118.000000	96.521182 
3117.000000	96.525840 
3116.000000	96.530509 
3115.000000	96.534429 
3114.000000	96.537279 
3113.000000	96.539532 
3112.000000	96.542257 
3111.000000	96.546125 
3110.000000	96.550629 
3109.000000	96.554555 
3108.000000	96.557146 
3107.000000	96.558533 
3106.000000	96.559055 
3105.000000	96.558632 
3104.000000	96.557094 
3103.000000	96.554844 
3102.000000	96.552651 
3101.000000	96.550803 
3100.000000	96.548888 
3099.000000	96.546782 
3098.000000	96.545709 
3097.000000	96.547635 
3096.000000	96.553274 
3095.000000	96.560936 
3094.000000	96.567805 
3093.000000	96.572342 
3092.000000	96.574964 
3091.000000	96.576824 
3090.000000	96.578622 
3089.000000	96.580430 
3088.000000	96.581997 
3087.000000	96.583087 
3086.000000	96.583903 
3085.000000	96.585065 
3084.000000	96.586769 
3083.000000	96.588329 
3082.000000	96.589191 
3081.000000	96.590048 
3080.000000	96.591963 
3079.000000	96.594538 
3078.000000	96.596152 
3077.000000	96.596301 
3076.000000	96.596476 
3075.000000	96.598078 
3074.000000	96.600589 
3073.000000	96.602721 
3072.000000	96.604470 
3071.000000	96.606773 
3070.000000	96.609711 
3069.000000	96.612471 
3068.000000	96.614834 
3067.000000	96.617406 
3066.000000	96.620259 
3065.000000	96.622502 
3064.000000	96.623446 
3063.000000	96.623287 
3062.000000	96.622513 
3061.000000	96.621449 
3060.000000	96.620572 
3059.000000	96.620626 
3058.000000	96.622183 
3057.000000	96.625374 
3056.000000	96.629766 
3055.000000	96.633962 
3054.000000	96.635875 
3053.000000	96.634513 
3052.000000	96.631588 
3051.000000	96.630402 
3050.000000	96.632575 
3049.000000	96.636714 
3048.000000	96.640344 
3047.000000	96.642276 
3046.000000	96.642671 
3045.000000	96.641940 
3044.000000	96.640690 
3043.000000	96.640197 
3042.000000	96.641725 
3041.000000	96.644978 
3040.000000	96.647779 
3039.000000	96.647885 
3038.000000	96.645019 
3037.000000	96.640934 
3036.000000	96.637518 
3035.000000	96.634954 
3034.000000	96.632123 
3033.000000	96.628468 
3032.000000	96.624733 
3031.000000	96.621933 
3030.000000	96.620277 
3029.000000	96.619317 
3028.000000	96.618360 
3027.000000	96.616391 
3026.000000	96.612489 
3025.000000	96.607081 
3024.000000	96.602310 
3023.000000	96.600184 
3022.000000	96.600578 
3021.000000	96.601744 
3020.000000	96.602454 
3019.000000	96.602689 
3018.000000	96.602306 
3017.000000	96.600334 
3016.000000	96.596178 
3015.000000	96.590789 
3014.000000	96.586195 
3013.000000	96.584005 
3012.000000	96.584285 
3011.000000	96.585244 
3010.000000	96.584178 
3009.000000	96.579621 
3008.000000	96.572725 
3007.000000	96.566088 
3006.000000	96.560974 
3005.000000	96.556436 
3004.000000	96.551330 
3003.000000	96.546244 
3002.000000	96.542940 
3001.000000	96.542522 
3000.000000	96.544553 
2999.000000	96.547280 
2998.000000	96.548453 
2997.000000	96.546648 
2996.000000	96.542342 
2995.000000	96.537524 
2994.000000	96.533862 
2993.000000	96.531432 
2992.000000	96.529236 
2991.000000	96.526357 
2990.000000	96.522452 
2989.000000	96.517761 
2988.000000	96.513086 
2987.000000	96.509476 
2986.000000	96.507733 
2985.000000	96.508320 
2984.000000	96.511375 
2983.000000	96.516142 
2982.000000	96.520690 
2981.000000	96.523137 
2980.000000	96.523319 
2979.000000	96.522512 
2978.000000	96.521511 
2977.000000	96.519995 
2976.000000	96.517971 
2975.000000	96.516707 
2974.000000	96.517538 
2973.000000	96.520476 
2972.000000	96.524481 
2971.000000	96.528461 
2970.000000	96.531541 
2969.000000	96.533210 
2968.000000	96.533910 
2967.000000	96.534904 
2966.000000	96.536927 
2965.000000	96.539503 
2964.000000	96.542081 
2963.000000	96.545160 
2962.000000	96.549571 
2961.000000	96.555116 
2960.000000	96.560762 
2959.000000	96.565944 
2958.000000	96.570875 
2957.000000	96.575599 
2956.000000	96.579466 
2955.000000	96.581790 
2954.000000	96.582744 
2953.000000	96.583495 
2952.000000	96.585573 
2951.000000	96.589866 
2950.000000	96.595747 
2949.000000	96.601202 
2948.000000	96.604385 
2947.000000	96.605341 
2946.000000	96.606056 
2945.000000	96.608515 
2944.000000	96.612732 
2943.000000	96.616795 
2942.000000	96.618726 
2941.000000	96.618086 
2940.000000	96.616016 
2939.000000	96.614218 
2938.000000	96.613921 
2937.000000	96.615376 
2936.000000	96.617692 
2935.000000	96.619151 
2934.000000	96.618384 
2933.000000	96.615651 
2932.000000	96.612810 
2931.000000	96.611728 
2930.000000	96.612967 
2929.000000	96.616127 
2928.000000	96.620746 
2927.000000	96.626208 
2926.000000	96.631216 
2925.000000	96.634549 
2924.000000	96.636526 
2923.000000	96.638812 
2922.000000	96.642328 
2921.000000	96.646090 
2920.000000	96.648735 
2919.000000	96.650409 
2918.000000	96.652168 
2917.000000	96.653837 
2916.000000	96.653660 
2915.000000	96.650467 
2914.000000	96.645486 
2913.000000	96.641494 
2912.000000	96.640228 
2911.000000	96.641145 
2910.000000	96.642592 
2909.000000	96.643679 
2908.000000	96.644789 
2907.000000	96.646479 
2906.000000	96.648284 
2905.000000	96.648889 
2904.000000	96.647316 
2903.000000	96.644422 
2902.000000	96.642782 
2901.000000	96.644542 
2900.000000	96.649713 
2899.000000	96.656127 
2898.000000	96.661731 
2897.000000	96.666341 
2896.000000	96.670615 
2895.000000	96.673989 
2894.000000	96.675040 
2893.000000	96.673961 
2892.000000	96.673174 
2891.000000	96.674621 
2890.000000	96.677559 
2889.000000	96.680150 
2888.000000	96.682248 
2887.000000	96.684987 
2886.000000	96.688152 
2885.000000	96.690154 
2884.000000	96.690979 
2883.000000	96.693090 
2882.000000	96.698296 
2881.000000	96.705222 
2880.000000	96.711223 
2879.000000	96.715985 
2878.000000	96.721400 
2877.000000	96.728255 
2876.000000	96.734829 
2875.000000	96.739172 
2874.000000	96.741315 
2873.000000	96.742514 
2872.000000	96.743342 
2871.000000	96.743465 
2870.000000	96.742875 
2869.000000	96.742373 
2868.000000	96.742812 
2867.000000	96.744432 
2866.000000	96.746918 
2865.000000	96.749655 
2864.000000	96.752095 
2863.000000	96.754512 
2862.000000	96.758322 
2861.000000	96.764830 
2860.000000	96.773336 
2859.000000	96.781153 
2858.000000	96.786213 
2857.000000	96.789200 
2856.000000	96.792449 
2855.000000	96.796999 
2854.000000	96.801616 
2853.000000	96.804816 
2852.000000	96.806816 
2851.000000	96.808893 
2850.000000	96.811561 
2849.000000	96.814197 
2848.000000	96.816135 
2847.000000	96.817180 
2846.000000	96.817076 
2845.000000	96.815510 
2844.000000	96.813084 
2843.000000	96.811544 
2842.000000	96.812300 
2841.000000	96.815002 
2840.000000	96.818091 
2839.000000	96.820620 
2838.000000	96.822985 
2837.000000	96.826074 
2836.000000	96.830383 
2835.000000	96.836092 
2834.000000	96.843237 
2833.000000	96.851347 
2832.000000	96.859242 
2831.000000	96.865596 
2830.000000	96.869480 
2829.000000	96.870246 
2828.000000	96.867647 
2827.000000	96.862768 
2826.000000	96.858257 
2825.000000	96.856439 
2824.000000	96.857111 
2823.000000	96.857965 
2822.000000	96.857347 
2821.000000	96.855957 
2820.000000	96.855578 
2819.000000	96.857088 
2818.000000	96.860343 
2817.000000	96.865154 
2816.000000	96.871339 
2815.000000	96.878098 
2814.000000	96.884258 
2813.000000	96.889067 
2812.000000	96.892121 
2811.000000	96.892897 
2810.000000	96.891349 
2809.000000	96.888911 
2808.000000	96.887734 
2807.000000	96.888541 
2806.000000	96.890123 
2805.000000	96.891191 
2804.000000	96.891730 
2803.000000	96.892087 
2802.000000	96.891923 
2801.000000	96.891157 
2800.000000	96.891117 
2799.000000	96.893344 
2798.000000	96.897476 
2797.000000	96.901525 
2796.000000	96.904348 
2795.000000	96.906746 
2794.000000	96.909869 
2793.000000	96.913634 
2792.000000	96.917183 
2791.000000	96.919945 
2790.000000	96.921443 
2789.000000	96.920899 
2788.000000	96.918105 
2787.000000	96.914420 
2786.000000	96.911937 
2785.000000	96.911495 
2784.000000	96.912173 
2783.000000	96.912700 
2782.000000	96.912729 
2781.000000	96.912625 
2780.000000	96.912816 
2779.000000	96.913795 
2778.000000	96.916125 
2777.000000	96.919768 
2776.000000	96.923614 
2775.000000	96.926330 
2774.000000	96.927639 
2773.000000	96.928239 
2772.000000	96.928625 
2771.000000	96.928636 
2770.000000	96.928266 
2769.000000	96.928152 
2768.000000	96.928779 
2767.000000	96.929712 
2766.000000	96.930192 
2765.000000	96.930206 
2764.000000	96.930365 
2763.000000	96.930861 
2762.000000	96.931242 
2761.000000	96.931311 
2760.000000	96.931664 
2759.000000	96.933026 
2758.000000	96.935373 
2757.000000	96.937925 
2756.000000	96.939832 
2755.000000	96.940770 
2754.000000	96.941057 
2753.000000	96.941400 
2752.000000	96.942386 
2751.000000	96.944031 
2750.000000	96.945903 
2749.000000	96.947602 
2748.000000	96.948909 
2747.000000	96.949475 
2746.000000	96.948827 
2745.000000	96.947019 
2744.000000	96.945062 
2743.000000	96.944225 
2742.000000	96.944862 
2741.000000	96.946292 
2740.000000	96.947771 
2739.000000	96.949232 
2738.000000	96.950815 
2737.000000	96.952216 
2736.000000	96.953021 
2735.000000	96.953443 
2734.000000	96.954273 
2733.000000	96.955956 
2732.000000	96.958048 
2731.000000	96.959800 
2730.000000	96.961106 
2729.000000	96.962504 
2728.000000	96.964259 
2727.000000	96.965802 
2726.000000	96.966375 
2725.000000	96.965985 
2724.000000	96.965418 
2723.000000	96.965344 
2722.000000	96.965701 
2721.000000	96.966092 
2720.000000	96.966473 
2719.000000	96.967213 
2718.000000	96.968552 
2717.000000	96.970239 
2716.000000	96.971717 
2715.000000	96.972635 
2714.000000	96.973158 
2713.000000	96.973772 
2712.000000	96.974758 
2711.000000	96.975857 
2710.000000	96.976601 
2709.000000	96.976875 
2708.000000	96.976965 
2707.000000	96.977064 
2706.000000	96.977075 
2705.000000	96.976989 
2704.000000	96.977101 
2703.000000	96.977570 
2702.000000	96.978067 
2701.000000	96.978259 
2700.000000	96.978511 
2699.000000	96.979574 
2698.000000	96.981550 
2697.000000	96.983505 
2696.000000	96.984372 
2695.000000	96.984047 
2694.000000	96.983357 
2693.000000	96.983075 
2692.000000	96.983142 
2691.000000	96.983092 
2690.000000	96.982828 
2689.000000	96.982669 
2688.000000	96.982798 
2687.000000	96.983036 
2686.000000	96.983162 
2685.000000	96.983164 
2684.000000	96.983109 
2683.000000	96.983006 
2682.000000	96.982961 
2681.000000	96.983237 
2680.000000	96.983962 
2679.000000	96.984937 
2678.000000	96.985994 
2677.000000	96.987331 
2676.000000	96.989069 
2675.000000	96.990622 
2674.000000	96.991131 
2673.000000	96.990530 
2672.000000	96.989739 
2671.000000	96.989529 
2670.000000	96.989605 
2669.000000	96.989236 
2668.000000	96.988335 
2667.000000	96.987465 
2666.000000	96.987041 
2665.000000	96.987002 
2664.000000	96.987233 
2663.000000	96.987784 
2662.000000	96.988544 
2661.000000	96.989064 
2660.000000	96.988937 
2659.000000	96.988231 
2658.000000	96.987405 
2657.000000	96.986895 
2656.000000	96.986823 
2655.000000	96.986938 
2654.000000	96.986761 
2653.000000	96.986015 
2652.000000	96.985014 
2651.000000	96.984467 
2650.000000	96.984744 
2649.000000	96.985467 
2648.000000	96.985903 
2647.000000	96.985665 
2646.000000	96.984837 
2645.000000	96.983553 
2644.000000	96.981806 
2643.000000	96.979744 
2642.000000	96.977906 
2641.000000	96.976921 
2640.000000	96.977057 
2639.000000	96.978102 
2638.000000	96.979494 
2637.000000	96.980510 
2636.000000	96.980627 
2635.000000	96.979921 
2634.000000	96.979089 
2633.000000	96.978810 
2632.000000	96.979030 
2631.000000	96.979124 
2630.000000	96.978750 
2629.000000	96.978262 
2628.000000	96.978169 
2627.000000	96.978477 
2626.000000	96.978830 
2625.000000	96.979084 
2624.000000	96.979405 
2623.000000	96.979803 
2622.000000	96.979900 
2621.000000	96.979295 
2620.000000	96.977964 
2619.000000	96.976276 
2618.000000	96.974795 
2617.000000	96.974023 
2616.000000	96.974161 
2615.000000	96.974971 
2614.000000	96.975921 
2613.000000	96.976615 
2612.000000	96.977043 
2611.000000	96.977407 
2610.000000	96.977852 
2609.000000	96.978322 
2608.000000	96.978561 
2607.000000	96.978327 
2606.000000	96.977712 
2605.000000	96.977168 
2604.000000	96.977029 
2603.000000	96.977085 
2602.000000	96.976885 
2601.000000	96.976422 
2600.000000	96.976191 
2599.000000	96.976459 
2598.000000	96.976899 
2597.000000	96.977113 
2596.000000	96.977139 
2595.000000	96.977061 
2594.000000	96.976538 
2593.000000	96.975346 
2592.000000	96.974174 
2591.000000	96.974010 
2590.000000	96.974799 
2589.000000	96.975378 
2588.000000	96.975036 
2587.000000	96.974437 
2586.000000	96.974550 
2585.000000	96.975348 
2584.000000	96.976095 
2583.000000	96.976469 
2582.000000	96.976788 
2581.000000	96.977363 
2580.000000	96.978188 
2579.000000	96.979182 
2578.000000	96.980327 
2577.000000	96.981540 
2576.000000	96.982570 
2575.000000	96.983005 
2574.000000	96.982471 
2573.000000	96.981030 
2572.000000	96.979309 
2571.000000	96.977947 
2570.000000	96.976983 
2569.000000	96.976157 
2568.000000	96.975670 
2567.000000	96.975965 
2566.000000	96.976680 
2565.000000	96.976675 
2564.000000	96.975440 
2563.000000	96.973832 
2562.000000	96.972931 
2561.000000	96.972819 
2560.000000	96.973155 
2559.000000	96.974305 
2558.000000	96.976957 
2557.000000	96.980729 
2556.000000	96.984074 
2555.000000	96.985906 
2554.000000	96.986546 
2553.000000	96.986835 
2552.000000	96.986936 
2551.000000	96.986643 
2550.000000	96.986375 
2549.000000	96.986880 
2548.000000	96.987904 
2547.000000	96.988165 
2546.000000	96.987000 
2545.000000	96.985232 
2544.000000	96.983901 
2543.000000	96.982887 
2542.000000	96.981554 
2541.000000	96.980276 
2540.000000	96.980271 
2539.000000	96.981892 
2538.000000	96.984052 
2537.000000	96.985546 
2536.000000	96.986395 
2535.000000	96.987314 
2534.000000	96.988408 
2533.000000	96.989036 
2532.000000	96.988834 
2531.000000	96.988173 
2530.000000	96.987528 
2529.000000	96.986888 
2528.000000	96.986024 
2527.000000	96.985038 
2526.000000	96.984380 
2525.000000	96.984386 
2524.000000	96.984993 
2523.000000	96.985859 
2522.000000	96.986610 
2521.000000	96.987047 
2520.000000	96.987197 
2519.000000	96.987235 
2518.000000	96.987327 
2517.000000	96.987503 
2516.000000	96.987685 
2515.000000	96.987812 
2514.000000	96.987908 
2513.000000	96.988035 
2512.000000	96.988218 
2511.000000	96.988428 
2510.000000	96.988639 
2509.000000	96.988848 
2508.000000	96.989055 
2507.000000	96.989256 
2506.000000	96.989454 
2505.000000	96.989657 
2504.000000	96.989877 
2503.000000	96.990113 
2502.000000	96.990351 
2501.000000	96.990578 
2500.000000	96.990792 
2499.000000	96.991001 
2498.000000	96.991210 
2497.000000	96.991420 
2496.000000	96.991627 
2495.000000	96.991827 
2494.000000	96.992018 
2493.000000	96.992202 
2492.000000	96.992381 
2491.000000	96.992564 
2490.000000	96.992757 
2489.000000	96.992960 
2488.000000	96.993167 
2487.000000	96.993372 
2486.000000	96.993569 
2485.000000	96.993759 
2484.000000	96.993935 
2483.000000	96.994088 
2482.000000	96.994207 
2481.000000	96.994301 
2480.000000	96.994363 
2479.000000	96.994389 
2478.000000	96.994397 
2477.000000	96.994412 
2476.000000	96.994433 
2475.000000	96.994440 
2474.000000	96.994385 
2473.000000	96.994198 
2472.000000	96.993826 
2471.000000	96.993295 
2470.000000	96.992768 
2469.000000	96.992538 
2468.000000	96.992873 
2467.000000	96.993780 
2466.000000	96.994902 
2465.000000	96.995723 
2464.000000	96.995960 
2463.000000	96.995796 
2462.000000	96.995754 
2461.000000	96.996293 
2460.000000	96.997435 
2459.000000	96.998728 
2458.000000	96.999547 
2457.000000	96.999495 
2456.000000	96.998504 
2455.000000	96.996843 
2454.000000	96.995233 
2453.000000	96.994529 
2452.000000	96.994930 
2451.000000	96.995663 
2450.000000	96.995851 
2449.000000	96.995624 
2448.000000	96.995760 
2447.000000	96.996341 
2446.000000	96.996521 
2445.000000	96.995773 
2444.000000	96.994565 
2443.000000	96.993509 
2442.000000	96.992591 
2441.000000	96.991750 
2440.000000	96.991592 
2439.000000	96.992840 
2438.000000	96.995399 
2437.000000	96.998431 
2436.000000	97.001095 
2435.000000	97.002832 
2434.000000	97.003310 
2433.000000	97.002676 
2432.000000	97.001787 
2431.000000	97.001722 
2430.000000	97.002979 
2429.000000	97.005129 
2428.000000	97.007051 
2427.000000	97.007616 
2426.000000	97.006500 
2425.000000	97.004454 
2424.000000	97.002534 
2423.000000	97.000927 
2422.000000	96.999210 
2421.000000	96.997699 
2420.000000	96.997392 
2419.000000	96.998421 
2418.000000	96.999679 
2417.000000	97.000572 
2416.000000	97.001896 
2415.000000	97.004139 
2414.000000	97.006304 
2413.000000	97.007545 
2412.000000	97.008646 
2411.000000	97.010399 
2410.000000	97.011826 
2409.000000	97.011795 
2408.000000	97.011277 
2407.000000	97.011892 
2406.000000	97.013140 
2405.000000	97.013111 
2404.000000	97.011341 
2403.000000	97.009044 
2402.000000	97.007045 
2401.000000	97.005508 
2400.000000	97.005390 
2399.000000	97.007967 
2398.000000	97.012675 
2397.000000	97.017317 
2396.000000	97.020629 
2395.000000	97.022972 
2394.000000	97.024456 
2393.000000	97.024370 
2392.000000	97.023129 
2391.000000	97.022757 
2390.000000	97.024120 
2389.000000	97.025155 
2388.000000	97.023292 
2387.000000	97.018615 
2386.000000	97.013363 
2385.000000	97.009277 
2384.000000	97.006725 
2383.000000	97.005970 
2382.000000	97.007952 
2381.000000	97.013496 
2380.000000	97.022456 
2379.000000	97.033544 
2378.000000	97.044304 
2377.000000	97.051498 
2376.000000	97.052757 
2375.000000	97.048471 
2374.000000	97.041759 
2373.000000	97.035699 
2372.000000	97.030829 
2371.000000	97.026446 
2370.000000	97.023420 
2369.000000	97.023719 
2368.000000	97.026767 
2367.000000	97.028370 
2366.000000	97.025273 
2365.000000	97.019510 
2364.000000	97.016037 
2363.000000	97.016392 
2362.000000	97.017545 
2361.000000	97.016878 
2360.000000	97.014541 
2359.000000	97.011375 
2358.000000	97.008065 
2357.000000	97.007048 
2356.000000	97.011198 
2355.000000	97.019543 
2354.000000	97.026424 
2353.000000	97.025728 
2352.000000	97.017222 
2351.000000	97.005147 
2350.000000	96.993148 
2349.000000	96.983959 
2348.000000	96.980258 
2347.000000	96.980884 
2346.000000	96.977551 
2345.000000	96.964829 
2344.000000	96.947794 
2343.000000	96.935416 
2342.000000	96.933365 
2341.000000	96.941499 
2340.000000	96.954455 
2339.000000	96.964996 
2338.000000	96.970645 
2337.000000	96.973815 
2336.000000	96.977015 
2335.000000	96.979582 
2334.000000	96.979230 
2333.000000	96.973251 
2332.000000	96.960050 
2331.000000	96.940053 
2330.000000	96.915404 
2329.000000	96.889593 
2328.000000	96.866373 
2327.000000	96.849795 
2326.000000	96.839807 
2325.000000	96.833082 
2324.000000	96.826788 
2323.000000	96.821851 
2322.000000	96.819664 
2321.000000	96.818944 
2320.000000	96.819690 
2319.000000	96.825396 
2318.000000	96.838433 
2317.000000	96.855412 
2316.000000	96.869921 
2315.000000	96.878108 
2314.000000	96.878961 
2313.000000	96.873592 
2312.000000	96.865047 
2311.000000	96.858354 
2310.000000	96.855326 
2309.000000	96.853263 
2308.000000	96.849574 
2307.000000	96.846958 
2306.000000	96.848992 
2305.000000	96.854161 
2304.000000	96.857516 
2303.000000	96.857827 
2302.000000	96.858615 
2301.000000	96.862666 
2300.000000	96.868538 
2299.000000	96.872872 
2298.000000	96.873431 
2297.000000	96.870391 
2296.000000	96.865911 
2295.000000	96.863755 
2294.000000	96.866090 
2293.000000	96.871406 
2292.000000	96.875867 
2291.000000	96.877982 
2290.000000	96.879469 
2289.000000	96.882521 
2288.000000	96.887218 
2287.000000	96.892364 
2286.000000	96.897077 
2285.000000	96.901167 
2284.000000	96.904761 
2283.000000	96.907795 
2282.000000	96.909842 
2281.000000	96.910364 
2280.000000	96.909296 
2279.000000	96.907050 
2278.000000	96.904280 
2277.000000	96.901769 
2276.000000	96.900513 
2275.000000	96.901231 
2274.000000	96.903757 
2273.000000	96.907299 
2272.000000	96.911259 
2271.000000	96.915297 
2270.000000	96.918597 
2269.000000	96.920076 
2268.000000	96.919645 
2267.000000	96.918536 
2266.000000	96.917918 
2265.000000	96.917830 
2264.000000	96.917659 
2263.000000	96.917008 
2262.000000	96.915796 
2261.000000	96.914133 
2260.000000	96.912338 
2259.000000	96.910673 
2258.000000	96.909051 
2257.000000	96.907380 
2256.000000	96.906080 
2255.000000	96.905666 
2254.000000	96.905971 
2253.000000	96.906183 
2252.000000	96.905609 
2251.000000	96.904192 
2250.000000	96.902217 
2249.000000	96.900012 
2248.000000	96.897968 
2247.000000	96.896440 
2246.000000	96.895446 
2245.000000	96.894671 
2244.000000	96.893712 
2243.000000	96.892453 
2242.000000	96.891005 
2241.000000	96.889532 
2240.000000	96.888183 
2239.000000	96.887042 
2238.000000	96.886057 
2237.000000	96.884972 
2236.000000	96.883543 
2235.000000	96.881850 
2234.000000	96.880248 
2233.000000	96.878909 
2232.000000	96.877712 
2231.000000	96.876638 
2230.000000	96.875804 
2229.000000	96.874971 
2228.000000	96.873642 
2227.000000	96.871966 
2226.000000	96.870863 
2225.000000	96.870671 
2224.000000	96.870278 
2223.000000	96.868567 
2222.000000	96.866011 
2221.000000	96.863898 
2220.000000	96.862184 
2219.000000	96.859786 
2218.000000	96.856659 
2217.000000	96.854102 
2216.000000	96.852895 
2215.000000	96.852233 
2214.000000	96.850727 
2213.000000	96.847926 
2212.000000	96.844701 
2211.000000	96.842575 
2210.000000	96.842544 
2209.000000	96.844183 
2208.000000	96.845935 
2207.000000	96.846577 
2206.000000	96.846289 
2205.000000	96.846180 
2204.000000	96.847145 
2203.000000	96.849263 
2202.000000	96.851874 
2201.000000	96.853816 
2200.000000	96.853855 
2199.000000	96.851495 
2198.000000	96.847343 
2197.000000	96.842608 
2196.000000	96.838180 
2195.000000	96.834189 
2194.000000	96.830548 
2193.000000	96.827762 
2192.000000	96.826652 
2191.000000	96.826891 
2190.000000	96.826361 
2189.000000	96.823166 
2188.000000	96.818270 
2187.000000	96.814593 
2186.000000	96.812972 
2185.000000	96.810934 
2184.000000	96.806994 
2183.000000	96.804418 
2182.000000	96.807701 
2181.000000	96.816042 
2180.000000	96.822576 
2179.000000	96.821544 
2178.000000	96.813867 
2177.000000	96.805725 
2176.000000	96.802532 
2175.000000	96.804587 
2174.000000	96.808097 
2173.000000	96.809352 
2172.000000	96.808503 
2171.000000	96.809011 
2170.000000	96.812944 
2169.000000	96.817373 
2168.000000	96.816889 
2167.000000	96.809755 
2166.000000	96.799830 
2165.000000	96.791879 
2164.000000	96.786568 
2163.000000	96.781737 
2162.000000	96.777251 
2161.000000	96.776317 
2160.000000	96.781885 
2159.000000	96.793295 
2158.000000	96.806723 
2157.000000	96.818453 
2156.000000	96.827384 
2155.000000	96.834441 
2154.000000	96.840757 
2153.000000	96.847136 
2152.000000	96.854185 
2151.000000	96.861280 
2150.000000	96.865681 
2149.000000	96.864939 
2148.000000	96.860771 
2147.000000	96.858394 
2146.000000	96.860864 
2145.000000	96.866289 
2144.000000	96.871958 
2143.000000	96.878390 
2142.000000	96.886609 
2141.000000	96.893849 
2140.000000	96.896091 
2139.000000	96.894425 
2138.000000	96.895143 
2137.000000	96.902423 
2136.000000	96.913144 
2135.000000	96.920041 
2134.000000	96.918819 
2133.000000	96.911459 
2132.000000	96.904549 
2131.000000	96.903775 
2130.000000	96.909448 
2129.000000	96.917063 
2128.000000	96.922108 
2127.000000	96.924184 
2126.000000	96.925983 
2125.000000	96.929342 
2124.000000	96.933478 
2123.000000	96.936453 
2122.000000	96.936891 
2121.000000	96.934544 
2120.000000	96.930284 
2119.000000	96.925626 
2118.000000	96.921781 
2117.000000	96.919188 
2116.000000	96.917947 
2115.000000	96.917897 
2114.000000	96.917975 
2113.000000	96.916580 
2112.000000	96.913517 
2111.000000	96.910750 
2110.000000	96.910098 
2109.000000	96.911039 
2108.000000	96.911896 
2107.000000	96.912357 
2106.000000	96.913317 
2105.000000	96.914840 
2104.000000	96.915929 
2103.000000	96.915918 
2102.000000	96.914662 
2101.000000	96.911647 
2100.000000	96.906625 
2099.000000	96.901214 
2098.000000	96.898249 
2097.000000	96.898888 
2096.000000	96.901693 
2095.000000	96.904198 
2094.000000	96.905043 
2093.000000	96.904298 
2092.000000	96.902531 
2091.000000	96.900477 
2090.000000	96.898945 
2089.000000	96.898323 
2088.000000	96.898229 
2087.000000	96.897862 
2086.000000	96.896696 
2085.000000	96.894692 
2084.000000	96.892157 
2083.000000	96.889526 
2082.000000	96.887118 
2081.000000	96.884980 
2080.000000	96.883066 
2079.000000	96.881493 
2078.000000	96.880299 
2077.000000	96.878990 
2076.000000	96.876886 
2075.000000	96.874132 
2074.000000	96.871675 
2073.000000	96.869852 
2072.000000	96.867748 
2071.000000	96.864617 
2070.000000	96.861320 
2069.000000	96.859463 
2068.000000	96.859446 
2067.000000	96.860124 
2066.000000	96.860037 
2065.000000	96.858377 
2064.000000	96.854986 
2063.000000	96.850390 
2062.000000	96.846104 
2061.000000	96.844039 
2060.000000	96.845043 
2059.000000	96.848321 
2058.000000	96.851886 
2057.000000	96.853787 
2056.000000	96.852958 
2055.000000	96.849382 
2054.000000	96.844216 
2053.000000	96.839349 
2052.000000	96.836033 
2051.000000	96.833802 
2050.000000	96.831064 
2049.000000	96.827020 
2048.000000	96.822816 
2047.000000	96.820328 
2046.000000	96.820136 
2045.000000	96.821366 
2044.000000	96.823267 
2043.000000	96.825987 
2042.000000	96.829488 
2041.000000	96.832562 
2040.000000	96.833955 
2039.000000	96.834071 
2038.000000	96.834452 
2037.000000	96.835670 
2036.000000	96.836621 
2035.000000	96.836187 
2034.000000	96.834885 
2033.000000	96.834483 
2032.000000	96.836140 
2031.000000	96.839015 
2030.000000	96.840573 
2029.000000	96.838767 
2028.000000	96.834284 
2027.000000	96.830284 
2026.000000	96.829146 
2025.000000	96.830282 
2024.000000	96.831945 
2023.000000	96.834358 
2022.000000	96.839314 
2021.000000	96.846598 
2020.000000	96.852532 
2019.000000	96.853428 
2018.000000	96.849115 
2017.000000	96.842790 
2016.000000	96.837861 
2015.000000	96.835117 
2014.000000	96.833078 
2013.000000	96.830084 
2012.000000	96.826421 
2011.000000	96.824599 
2010.000000	96.826785 
2009.000000	96.832223 
2008.000000	96.837681 
2007.000000	96.840779 
2006.000000	96.841711 
2005.000000	96.841504 
2004.000000	96.840515 
2003.000000	96.839244 
2002.000000	96.839030 
2001.000000	96.840321 
2000.000000	96.841201 
1999.000000	96.839076 
1998.000000	96.833336 
1997.000000	96.825858 
1996.000000	96.819458 
1995.000000	96.815992 
1994.000000	96.815658 
1993.000000	96.817024 
1992.000000	96.817768 
1991.000000	96.816767 
1990.000000	96.815263 
1989.000000	96.815212 
1988.000000	96.816785 
1987.000000	96.818124 
1986.000000	96.817496 
1985.000000	96.815080 
1984.000000	96.812419 
1983.000000	96.810723 
1982.000000	96.810105 
1981.000000	96.810164 
1980.000000	96.810719 
1979.000000	96.811756 
1978.000000	96.812956 
1977.000000	96.813774 
1976.000000	96.813930 
1975.000000	96.813685 
1974.000000	96.813674 
1973.000000	96.814482 
1972.000000	96.816167 
1971.000000	96.818116 
1970.000000	96.819424 
1969.000000	96.819613 
1968.000000	96.818875 
1967.000000	96.817910 
1966.000000	96.817516 
1965.000000	96.818066 
1964.000000	96.819477 
1963.000000	96.821394 
1962.000000	96.823435 
1961.000000	96.825304 
1960.000000	96.826789 
1959.000000	96.827826 
1958.000000	96.828595 
1957.000000	96.829487 
1956.000000	96.830789 
1955.000000	96.832437 
1954.000000	96.834082 
1953.000000	96.835473 
1952.000000	96.836649 
1951.000000	96.837734 
1950.000000	96.838779 
1949.000000	96.839937 
1948.000000	96.841540 
1947.000000	96.843728 
1946.000000	96.846025 
1945.000000	96.847628 
1944.000000	96.848221 
1943.000000	96.848223 
1942.000000	96.848298 
1941.000000	96.848683 
1940.000000	96.849297 
1939.000000	96.850035 
1938.000000	96.850735 
1937.000000	96.851258 
1936.000000	96.851769 
1935.000000	96.852618 
1934.000000	96.853887 
1933.000000	96.855510 
1932.000000	96.857659 
1931.000000	96.860517 
1930.000000	96.863625 
1929.000000	96.865860 
1928.000000	96.866893 
1927.000000	96.867586 
1926.000000	96.868547 
1925.000000	96.869175 
1924.000000	96.868664 
1923.000000	96.867669 
1922.000000	96.867566 
1921.000000	96.868328 
1920.000000	96.868810 
1919.000000	96.868374 
1918.000000	96.867256 
1917.000000	96.865775 
1916.000000	96.864109 
1915.000000	96.862987 
1914.000000	96.863006 
1913.000000	96.863672 
1912.000000	96.863939 
1911.000000	96.863664 
1910.000000	96.863688 
1909.000000	96.864469 
1908.000000	96.865766 
1907.000000	96.866959 
1906.000000	96.867214 
1905.000000	96.865767 
1904.000000	96.862808 
1903.000000	96.860264 
1902.000000	96.860049 
1901.000000	96.861830 
1900.000000	96.863721 
1899.000000	96.864527 
1898.000000	96.864380 
1897.000000	96.863626 
1896.000000	96.862111 
1895.000000	96.859933 
1894.000000	96.857655 
1893.000000	96.855480 
1892.000000	96.853359 
1891.000000	96.851847 
1890.000000	96.851830 
1889.000000	96.853284 
1888.000000	96.855173 
1887.000000	96.856881 
1886.000000	96.858430 
1885.000000	96.859418 
1884.000000	96.859075 
1883.000000	96.857487 
1882.000000	96.855901 
1881.000000	96.855434 
1880.000000	96.856108 
1879.000000	96.857117 
1878.000000	96.857668 
1877.000000	96.857775 
1876.000000	96.858158 
1875.000000	96.859459 
1874.000000	96.861614 
1873.000000	96.863797 
1872.000000	96.865198 
1871.000000	96.865759 
1870.000000	96.865936 
1869.000000	96.866176 
1868.000000	96.866814 
1867.000000	96.868206 
1866.000000	96.870254 
1865.000000	96.872056 
1864.000000	96.872955 
1863.000000	96.873602 
1862.000000	96.875196 
1861.000000	96.877855 
1860.000000	96.880620 
1859.000000	96.882906 
1858.000000	96.885030 
1857.000000	96.887267 
1856.000000	96.889503 
1855.000000	96.891688 
1854.000000	96.893852 
1853.000000	96.895742 
1852.000000	96.897317 
1851.000000	96.899086 
1850.000000	96.901421 
1849.000000	96.904071 
1848.000000	96.906483 
1847.000000	96.908490 
1846.000000	96.910327 
1845.000000	96.912183 
1844.000000	96.914048 
1843.000000	96.915983 
1842.000000	96.918128 
1841.000000	96.920442 
1840.000000	96.922826 
1839.000000	96.925262 
1838.000000	96.927663 
1837.000000	96.929713 
1836.000000	96.931162 
1835.000000	96.932290 
1834.000000	96.933710 
1833.000000	96.935643 
1832.000000	96.937789 
1831.000000	96.939535 
1830.000000	96.940422 
1829.000000	96.940772 
1828.000000	96.941381 
1827.000000	96.942762 
1826.000000	96.944863 
1825.000000	96.947069 
1824.000000	96.948530 
1823.000000	96.949053 
1822.000000	96.949485 
1821.000000	96.950538 
1820.000000	96.951766 
1819.000000	96.952368 
1818.000000	96.953086 
1817.000000	96.955136 
1816.000000	96.957364 
1815.000000	96.958006 
1814.000000	96.957627 
1813.000000	96.958437 
1812.000000	96.960662 
1811.000000	96.961644 
1810.000000	96.960758 
1809.000000	96.960056 
1808.000000	96.960071 
1807.000000	96.960203 
1806.000000	96.961483 
1805.000000	96.964936 
1804.000000	96.968295 
1803.000000	96.968609 
1802.000000	96.966072 
1801.000000	96.963872 
1800.000000	96.963012 
1799.000000	96.960994 
1798.000000	96.957575 
1797.000000	96.954201 
1796.000000	96.950555 
1795.000000	96.946254 
1794.000000	96.942868 
1793.000000	96.942634 
1792.000000	96.944928 
1791.000000	96.947180 
1790.000000	96.949889 
1789.000000	96.954576 
1788.000000	96.960367 
1787.000000	96.965257 
1786.000000	96.968753 
1785.000000	96.971295 
1784.000000	96.972229 
1783.000000	96.971990 
1782.000000	96.971213 
1781.000000	96.970191 
1780.000000	96.970042 
1779.000000	96.971874 
1778.000000	96.976748 
1777.000000	96.983237 
1776.000000	96.988683 
1775.000000	96.991974 
1774.000000	96.993558 
1773.000000	96.994807 
1772.000000	96.996785 
1771.000000	96.998139 
1770.000000	96.998180 
1769.000000	96.998617 
1768.000000	97.000668 
1767.000000	97.003506 
1766.000000	97.005482 
1765.000000	97.006422 
1764.000000	97.007139 
1763.000000	97.007913 
1762.000000	97.008532 
1761.000000	97.009584 
1760.000000	97.011405 
1759.000000	97.013283 
1758.000000	97.014437 
1757.000000	97.014712 
1756.000000	97.015290 
1755.000000	97.016659 
1754.000000	97.017922 
1753.000000	97.018496 
1752.000000	97.019107 
1751.000000	97.020829 
1750.000000	97.023545 
1749.000000	97.025978 
1748.000000	97.027315 
1747.000000	97.028000 
1746.000000	97.028553 
1745.000000	97.029382 
1744.000000	97.030798 
1743.000000	97.032234 
1742.000000	97.032775 
1741.000000	97.032649 
1740.000000	97.033023 
1739.000000	97.034454 
1738.000000	97.036130 
1737.000000	97.037074 
1736.000000	97.036904 
1735.000000	97.035325 
1734.000000	97.032987 
1733.000000	97.031409 
1732.000000	97.031742 
1731.000000	97.034419 
1730.000000	97.038616 
1729.000000	97.041609 
1728.000000	97.041590 
1727.000000	97.039539 
1726.000000	97.037534 
1725.000000	97.037314 
1724.000000	97.038896 
1723.000000	97.040823 
1722.000000	97.042260 
1721.000000	97.042767 
1720.000000	97.041828 
1719.000000	97.038954 
1718.000000	97.035171 
1717.000000	97.032726 
1716.000000	97.029617 
1715.000000	97.024181 
1714.000000	97.019590 
1713.000000	97.017882 
1712.000000	97.016981 
1711.000000	97.015627 
1710.000000	97.014795 
1709.000000	97.014528 
1708.000000	97.013422 
1707.000000	97.011102 
1706.000000	97.008944 
1705.000000	97.007041 
1704.000000	97.002383 
1703.000000	96.993891 
1702.000000	96.984382 
1701.000000	96.978238 
1700.000000	96.976328 
1699.000000	96.973244 
1698.000000	96.969264 
1697.000000	96.966884 
1696.000000	96.964765 
1695.000000	96.961517 
1694.000000	96.958085 
1693.000000	96.955416 
1692.000000	96.952923 
1691.000000	96.949808 
1690.000000	96.945894 
1689.000000	96.941105 
1688.000000	96.935760 
1687.000000	96.930306 
1686.000000	96.925524 
1685.000000	96.921909 
1684.000000	96.917448 
1683.000000	96.911130 
1682.000000	96.904771 
1681.000000	96.898858 
1680.000000	96.894072 
1679.000000	96.890440 
1678.000000	96.886650 
1677.000000	96.881591 
1676.000000	96.875909 
1675.000000	96.871219 
1674.000000	96.866002 
1673.000000	96.859309 
1672.000000	96.853437 
1671.000000	96.850379 
1670.000000	96.848442 
1669.000000	96.843593 
1668.000000	96.837277 
1667.000000	96.833320 
1666.000000	96.830694 
1665.000000	96.827884 
1664.000000	96.825754 
1663.000000	96.825372 
1662.000000	96.823401 
1661.000000	96.815137 
1660.000000	96.804370 
1659.000000	96.798302 
1658.000000	96.796743 
1657.000000	96.794457 
1656.000000	96.789133 
1655.000000	96.783772 
1654.000000	96.778582 
1653.000000	96.771641 
1652.000000	96.759291 
1651.000000	96.747607 
1650.000000	96.738553 
1649.000000	96.734568 
1648.000000	96.733232 
1647.000000	96.730105 
1646.000000	96.725120 
1645.000000	96.721121 
1644.000000	96.717735 
1643.000000	96.714162 
1642.000000	96.712012 
1641.000000	96.711048 
1640.000000	96.710591 
1639.000000	96.709397 
1638.000000	96.708234 
1637.000000	96.708848 
1636.000000	96.710060 
1635.000000	96.710840 
1634.000000	96.710398 
1633.000000	96.709117 
1632.000000	96.706780 
1631.000000	96.706272 
1630.000000	96.710407 
1629.000000	96.718010 
1628.000000	96.725369 
1627.000000	96.732079 
1626.000000	96.738686 
1625.000000	96.743882 
1624.000000	96.747327 
1623.000000	96.751021 
1622.000000	96.755576 
1621.000000	96.758154 
1620.000000	96.759492 
1619.000000	96.763334 
1618.000000	96.770975 
1617.000000	96.776681 
1616.000000	96.776453 
1615.000000	96.776220 
1614.000000	96.780286 
1613.000000	96.785349 
1612.000000	96.788274 
1611.000000	96.790484 
1610.000000	96.793714 
1609.000000	96.797296 
1608.000000	96.802486 
1607.000000	96.812172 
1606.000000	96.823967 
1605.000000	96.832618 
1604.000000	96.838460 
1603.000000	96.844326 
1602.000000	96.849935 
1601.000000	96.853847 
1600.000000	96.857689 
1599.000000	96.863991 
1598.000000	96.871367 
1597.000000	96.876759 
1596.000000	96.880108 
1595.000000	96.884106 
1594.000000	96.889922 
1593.000000	96.895721 
1592.000000	96.900217 
1591.000000	96.904643 
1590.000000	96.910181 
1589.000000	96.916170 
1588.000000	96.922301 
1587.000000	96.929306 
1586.000000	96.936486 
1585.000000	96.940972 
1584.000000	96.943259 
1583.000000	96.947297 
1582.000000	96.953444 
1581.000000	96.958411 
1580.000000	96.961772 
1579.000000	96.966673 
1578.000000	96.974798 
1577.000000	96.984428 
1576.000000	96.992168 
1575.000000	96.997035 
1574.000000	96.999353 
1573.000000	97.000231 
1572.000000	97.002927 
1571.000000	97.009798 
1570.000000	97.017317 
1569.000000	97.018401 
1568.000000	97.015540 
1567.000000	97.015490 
1566.000000	97.017610 
1565.000000	97.017933 
1564.000000	97.017517 
1563.000000	97.017533 
1562.000000	97.018446 
1561.000000	97.016682 
1560.000000	97.020204 
1559.000000	97.028571 
1558.000000	97.030212 
1557.000000	97.026544 
1556.000000	97.023672 
1555.000000	97.023344 
1554.000000	97.023397 
1553.000000	97.022279 
1552.000000	97.021453 
1551.000000	97.019912 
1550.000000	97.016761 
1549.000000	97.013431 
1548.000000	97.011990 
1547.000000	97.012513 
1546.000000	97.012347 
1545.000000	97.009597 
1544.000000	97.005952 
1543.000000	97.004119 
1542.000000	97.005529 
1541.000000	97.009060 
1540.000000	97.007163 
1539.000000	96.998547 
1538.000000	96.988863 
1537.000000	96.979925 
1536.000000	96.971463 
1535.000000	96.965028 
1534.000000	96.961430 
1533.000000	96.959619 
1532.000000	96.957519 
1531.000000	96.954043 
1530.000000	96.950062 
1529.000000	96.946275 
1528.000000	96.941768 
1527.000000	96.936091 
1526.000000	96.930120 
1525.000000	96.925174 
1524.000000	96.921816 
1523.000000	96.919607 
1522.000000	96.917066 
1521.000000	96.912175 
1520.000000	96.904663 
1519.000000	96.896323 
1518.000000	96.888432 
1517.000000	96.881275 
1516.000000	96.874888 
1515.000000	96.869782 
1514.000000	96.866183 
1513.000000	96.863594 
1512.000000	96.860586 
1511.000000	96.855253 
1510.000000	96.847790 
1509.000000	96.839919 
1508.000000	96.833854 
1507.000000	96.828959 
1506.000000	96.824543 
1505.000000	96.820055 
1504.000000	96.814506 
1503.000000	96.807590 
1502.000000	96.799944 
1501.000000	96.792489 
1500.000000	96.786126 
1499.000000	96.780465 
1498.000000	96.774088 
1497.000000	96.767326 
1496.000000	96.761445 
1495.000000	96.756818 
1494.000000	96.753682 
1493.000000	96.752316 
1492.000000	96.752005 
1491.000000	96.750697 
1490.000000	96.746588 
1489.000000	96.740606 
1488.000000	96.733788 
1487.000000	96.725827 
1486.000000	96.717854 
1485.000000	96.709774 
1484.000000	96.701446 
1483.000000	96.694418 
1482.000000	96.689386 
1481.000000	96.685159 
1480.000000	96.679304 
1479.000000	96.671268 
1478.000000	96.662813 
1477.000000	96.655765 
1476.000000	96.649177 
1475.000000	96.641342 
1474.000000	96.633099 
1473.000000	96.626826 
1472.000000	96.623542 
1471.000000	96.621129 
1470.000000	96.617924 
1469.000000	96.613518 
1468.000000	96.607140 
1467.000000	96.598723 
1466.000000	96.590805 
1465.000000	96.586046 
1464.000000	96.583822 
1463.000000	96.579546 
1462.000000	96.570883 
1461.000000	96.560342 
1460.000000	96.551484 
1459.000000	96.544279 
1458.000000	96.533837 
1457.000000	96.520006 
1456.000000	96.511396 
1455.000000	96.508444 
1454.000000	96.504193 
1453.000000	96.498374 
1452.000000	96.494769 
1451.000000	96.494157 
1450.000000	96.494905 
1449.000000	96.496996 
1448.000000	96.499462 
1447.000000	96.499386 
1446.000000	96.495020 
1445.000000	96.489062 
1444.000000	96.486103 
1443.000000	96.485152 
1442.000000	96.482724 
1441.000000	96.478013 
1440.000000	96.472625 
1439.000000	96.465597 
1438.000000	96.455187 
1437.000000	96.445342 
1436.000000	96.442607 
1435.000000	96.444546 
1434.000000	96.445273 
1433.000000	96.445595 
1432.000000	96.448805 
1431.000000	96.454313 
1430.000000	96.458064 
1429.000000	96.459592 
1428.000000	96.460773 
1427.000000	96.462179 
1426.000000	96.462678 
1425.000000	96.462456 
1424.000000	96.465088 
1423.000000	96.469336 
1422.000000	96.470890 
1421.000000	96.470866 
1420.000000	96.474962 
1419.000000	96.480216 
1418.000000	96.477436 
1417.000000	96.471175 
1416.000000	96.472640 
1415.000000	96.482355 
1414.000000	96.491805 
1413.000000	96.495303 
1412.000000	96.496240 
1411.000000	96.498895 
1410.000000	96.502196 
1409.000000	96.505291 
1408.000000	96.509277 
1407.000000	96.514366 
1406.000000	96.519232 
1405.000000	96.524779 
1404.000000	96.535411 
1403.000000	96.549664 
1402.000000	96.561093 
1401.000000	96.568697 
1400.000000	96.577463 
1399.000000	96.589413 
1398.000000	96.599835 
1397.000000	96.605844 
1396.000000	96.610740 
1395.000000	96.618894 
1394.000000	96.629518 
1393.000000	96.640696 
1392.000000	96.654513 
1391.000000	96.671311 
1390.000000	96.687337 
1389.000000	96.698976 
1388.000000	96.705931 
1387.000000	96.710491 
1386.000000	96.715051 
1385.000000	96.721644 
1384.000000	96.732297 
1383.000000	96.746412 
1382.000000	96.760282 
1381.000000	96.770843 
1380.000000	96.778341 
1379.000000	96.785651 
1378.000000	96.794963 
1377.000000	96.805778 
1376.000000	96.815925 
1375.000000	96.823875 
1374.000000	96.829854 
1373.000000	96.836319 
1372.000000	96.845615 
1371.000000	96.857989 
1370.000000	96.871585 
1369.000000	96.883720 
1368.000000	96.894092 
1367.000000	96.903744 
1366.000000	96.912631 
1365.000000	96.920018 
1364.000000	96.925083 
1363.000000	96.927517 
1362.000000	96.929239 
1361.000000	96.934028 
1360.000000	96.944115 
1359.000000	96.958392 
1358.000000	96.973175 
1357.000000	96.984793 
1356.000000	96.992149 
1355.000000	96.996688 
1354.000000	97.000759 
1353.000000	97.007190 
1352.000000	97.016930 
1351.000000	97.028996 
1350.000000	97.041081 
1349.000000	97.049802 
1348.000000	97.054151 
1347.000000	97.056221 
1346.000000	97.059034 
1345.000000	97.064134 
1344.000000	97.071128 
1343.000000	97.078524 
1342.000000	97.084380 
1341.000000	97.086934 
1340.000000	97.086010 
1339.000000	97.083937 
1338.000000	97.083422 
1337.000000	97.085266 
1336.000000	97.088625 
1335.000000	97.092056 
1334.000000	97.094382 
1333.000000	97.095467 
1332.000000	97.096101 
1331.000000	97.097299 
1330.000000	97.099086 
1329.000000	97.100498 
1328.000000	97.100833 
1327.000000	97.100986 
1326.000000	97.102193 
1325.000000	97.104025 
1324.000000	97.105561 
1323.000000	97.106330 
1322.000000	97.106051 
1321.000000	97.104525 
1320.000000	97.101998 
1319.000000	97.099142 
1318.000000	97.096870 
1317.000000	97.096200 
1316.000000	97.097016 
1315.000000	97.097074 
1314.000000	97.094114 
1313.000000	97.089853 
1312.000000	97.089159 
1311.000000	97.093846 
1310.000000	97.099594 
1309.000000	97.101374 
1308.000000	97.099522 
1307.000000	97.098606 
1306.000000	97.101262 
1305.000000	97.105661 
1304.000000	97.109188 
1303.000000	97.110731 
1302.000000	97.109824 
1301.000000	97.106431 
1300.000000	97.102301 
1299.000000	97.100227 
1298.000000	97.101120 
1297.000000	97.103069 
1296.000000	97.103807 
1295.000000	97.103223 
1294.000000	97.102802 
1293.000000	97.103691 
1292.000000	97.105647 
1291.000000	97.107210 
1290.000000	97.106998 
1289.000000	97.105106 
1288.000000	97.102851 
1287.000000	97.100901 
1286.000000	97.098492 
1285.000000	97.095451 
1284.000000	97.093794 
1283.000000	97.095451 
1282.000000	97.099137 
1281.000000	97.101110 
1280.000000	97.099278 
1279.000000	97.095351 
1278.000000	97.092880 
1277.000000	97.094205 
1276.000000	97.099114 
1275.000000	97.105425 
1274.000000	97.110404 
1273.000000	97.112423 
1272.000000	97.111587 
1271.000000	97.108582 
1270.000000	97.103632 
1269.000000	97.097228 
1268.000000	97.091221 
1267.000000	97.087591 
1266.000000	97.086498 
1265.000000	97.087165 
1264.000000	97.089610 
1263.000000	97.093456 
1262.000000	97.096289 
1261.000000	97.095784 
1260.000000	97.093785 
1259.000000	97.095452 
1258.000000	97.102881 
1257.000000	97.111705 
1256.000000	97.115437 
1255.000000	97.112452 
1254.000000	97.107617 
1253.000000	97.106544 
1252.000000	97.108932 
1251.000000	97.109273 
1250.000000	97.104504 
1249.000000	97.098774 
1248.000000	97.098564 
1247.000000	97.104063 
1246.000000	97.108687 
1245.000000	97.107602 
1244.000000	97.102963 
1243.000000	97.099572 
1242.000000	97.099122 
1241.000000	97.100827 
1240.000000	97.104232 
1239.000000	97.108236 
1238.000000	97.109957 
1237.000000	97.107856 
1236.000000	97.104162 
1235.000000	97.101378 
1234.000000	97.098207 
1233.000000	97.091881 
1232.000000	97.082774 
1231.000000	97.073526 
1230.000000	97.065124 
1229.000000	97.056992 
1228.000000	97.049205 
1227.000000	97.041130 
1226.000000	97.029215 
1225.000000	97.009891 
1224.000000	96.984187 
1223.000000	96.956317 
1222.000000	96.928139 
1221.000000	96.898112 
1220.000000	96.865358 
1219.000000	96.831197 
1218.000000	96.796192 
1217.000000	96.758589 
1216.000000	96.716210 
1215.000000	96.667974 
1214.000000	96.614094 
1213.000000	96.557358 
1212.000000	96.503115 
1211.000000	96.454105 
1210.000000	96.405628 
1209.000000	96.349766 
1208.000000	96.284712 
1207.000000	96.216567 
1206.000000	96.151544 
1205.000000	96.089510 
1204.000000	96.025983 
1203.000000	95.957379 
1202.000000	95.883406 
1201.000000	95.806842 
1200.000000	95.731880 
1199.000000	95.660632 
1198.000000	95.590557 
1197.000000	95.517148 
1196.000000	95.438863 
1195.000000	95.357632 
1194.000000	95.275466 
1193.000000	95.192894 
1192.000000	95.109984 
1191.000000	95.026098 
1190.000000	94.939191 
1189.000000	94.847994 
1188.000000	94.754138 
1187.000000	94.659689 
1186.000000	94.564010 
1185.000000	94.465911 
1184.000000	94.366776 
1183.000000	94.267778 
1182.000000	94.166232 
1181.000000	94.059340 
1180.000000	93.949700 
1179.000000	93.841686 
1178.000000	93.733531 
1177.000000	93.618912 
1176.000000	93.495701 
1175.000000	93.367310 
1174.000000	93.235955 
1173.000000	93.101141 
1172.000000	92.965084 
1171.000000	92.832461 
1170.000000	92.703439 
1169.000000	92.573880 
1168.000000	92.444650 
1167.000000	92.324864 
1166.000000	92.224354 
1165.000000	92.149249 
1164.000000	92.106015 
1163.000000	92.101528 
1162.000000	92.134539 
1161.000000	92.191240 
1160.000000	92.251656 
1159.000000	92.297425 
1158.000000	92.314393 
1157.000000	92.294792 
1156.000000	92.239877 
1155.000000	92.157284 
1154.000000	92.054765 
1153.000000	91.939021 
1152.000000	91.818933 
1151.000000	91.703380 
1150.000000	91.594733 
1149.000000	91.489938 
1148.000000	91.388480 
1147.000000	91.293046 
1146.000000	91.201927 
1145.000000	91.108101 
1144.000000	91.007958 
1143.000000	90.904998 
1142.000000	90.803337 
1141.000000	90.703392 
1140.000000	90.605180 
1139.000000	90.509468 
1138.000000	90.414135 
1137.000000	90.315556 
1136.000000	90.214818 
1135.000000	90.116470 
1134.000000	90.020302 
1133.000000	89.921033 
1132.000000	89.816964 
1131.000000	89.712015 
1130.000000	89.608394 
1129.000000	89.504438 
1128.000000	89.400479 
1127.000000	89.299034 
1126.000000	89.198028 
1125.000000	89.091772 
1124.000000	88.980280 
1123.000000	88.869992 
1122.000000	88.763752 
1121.000000	88.658014 
1120.000000	88.551391 
1119.000000	88.447042 
1118.000000	88.344719 
1117.000000	88.240287 
1116.000000	88.135694 
1115.000000	88.039530 
1114.000000	87.954531 
1113.000000	87.874149 
1112.000000	87.794065 
1111.000000	87.716923 
1110.000000	87.642837 
1109.000000	87.565842 
1108.000000	87.482854 
1107.000000	87.396605 
1106.000000	87.308155 
1105.000000	87.216130 
1104.000000	87.124319 
1103.000000	87.039641 
1102.000000	86.960088 
1101.000000	86.876438 
1100.000000	86.786001 
1099.000000	86.694977 
1098.000000	86.607267 
1097.000000	86.520765 
1096.000000	86.436109 
1095.000000	86.356258 
1094.000000	86.276965 
1093.000000	86.190446 
1092.000000	86.100088 
1091.000000	86.018865 
1090.000000	85.951386 
1089.000000	85.889600 
1088.000000	85.826778 
1087.000000	85.762375 
1086.000000	85.692851 
1085.000000	85.612852 
1084.000000	85.527534 
1083.000000	85.449222 
1082.000000	85.379066 
1081.000000	85.305912 
1080.000000	85.225552 
1079.000000	85.146344 
1078.000000	85.072701 
1077.000000	84.997147 
1076.000000	84.911976 
1075.000000	84.815025 
1074.000000	84.701644 
1073.000000	84.565189 
1072.000000	84.407930 
1071.000000	84.237651 
1070.000000	84.051335 
1069.000000	83.837021 
1068.000000	83.594299 
1067.000000	83.338063 
1066.000000	83.079337 
1065.000000	82.817785 
1064.000000	82.555964 
1063.000000	82.302681 
1062.000000	82.056354 
1061.000000	81.802343 
1060.000000	81.533934 
1059.000000	81.261085 
1058.000000	80.992848 
1057.000000	80.726161 
1056.000000	80.457307 
1055.000000	80.188661 
1054.000000	79.918139 
1053.000000	79.637428 
1052.000000	79.347177 
1051.000000	79.058649 
1050.000000	78.774204 
1049.000000	78.483499 
1048.000000	78.184248 
1047.000000	77.887361 
1046.000000	77.597682 
1045.000000	77.309130 
1044.000000	77.021364 
1043.000000	76.741948 
1042.000000	76.469236 
1041.000000	76.191984 
1040.000000	75.909723 
1039.000000	75.635588 
1038.000000	75.376201 
1037.000000	75.127695 
1036.000000	74.893544 
1035.000000	74.685247 
1034.000000	74.501707 
1033.000000	74.328243 
1032.000000	74.159388 
1031.000000	74.002777 
1030.000000	73.859037 
1029.000000	73.720159 
1028.000000	73.589918 
1027.000000	73.482488 
1026.000000	73.397324 
1025.000000	73.317831 
1024.000000	73.237795 
1023.000000	73.165916 
1022.000000	73.101381 
1021.000000	73.029535 
1020.000000	72.946125 
1019.000000	72.862699 
1018.000000	72.784018 
1017.000000	72.702880 
1016.000000	72.620208 
1015.000000	72.546688 
1014.000000	72.481209 
1013.000000	72.411387 
1012.000000	72.338503 
1011.000000	72.277776 
1010.000000	72.231124 
1009.000000	72.184600 
1008.000000	72.136206 
1007.000000	72.100996 
1006.000000	72.084736 
1005.000000	72.077746 
1004.000000	72.078280 
1003.000000	72.095805 
1002.000000	72.126590 
1001.000000	72.152743 
1000.000000	72.171719 
999.000000	 72.201313 
998.000000	 72.249043 
997.000000	 72.301673 
996.000000	 72.351358 
995.000000	 72.407549 
994.000000	 72.475629 
993.000000	 72.547260 
992.000000	 72.618838 
991.000000	 72.697114 
990.000000	 72.780622 
989.000000	 72.858195 
988.000000	 72.931659 
987.000000	 73.017703 
986.000000	 73.122250 
985.000000	 73.235366 
984.000000	 73.355103 
983.000000	 73.492081 
982.000000	 73.645454 
981.000000	 73.799148 
980.000000	 73.948557 
979.000000	 74.107454 
978.000000	 74.282002 
977.000000	 74.461789 
976.000000	 74.643346 
975.000000	 74.838761 
974.000000	 75.052429 
973.000000	 75.271407 
972.000000	 75.487501 
971.000000	 75.708616 
970.000000	 75.939804 
969.000000	 76.172392 
968.000000	 76.399941 
967.000000	 76.627498 
966.000000	 76.858426 
965.000000	 77.088713 
964.000000	 77.319078 
963.000000	 77.555646 
962.000000	 77.794830 
961.000000	 78.025174 
960.000000	 78.247286 
959.000000	 78.473597 
958.000000	 78.705236 
957.000000	 78.928230 
956.000000	 79.136427 
955.000000	 79.339171 
954.000000	 79.542334 
953.000000	 79.740397 
952.000000	 79.931676 
951.000000	 80.122576 
950.000000	 80.311746 
949.000000	 80.487844 
948.000000	 80.647764 
947.000000	 80.800148 
946.000000	 80.947164 
945.000000	 81.080162 
944.000000	 81.197437 
943.000000	 81.309117 
942.000000	 81.420368 
941.000000	 81.526517 
940.000000	 81.628640 
939.000000	 81.736197 
938.000000	 81.849687 
937.000000	 81.958271 
936.000000	 82.059448 
935.000000	 82.164168 
934.000000	 82.277853 
933.000000	 82.393266 
932.000000	 82.506804 
931.000000	 82.624547 
930.000000	 82.746987 
929.000000	 82.864542 
928.000000	 82.973842 
927.000000	 83.082817 
926.000000	 83.194373 
925.000000	 83.299858 
924.000000	 83.393334 
923.000000	 83.478204 
922.000000	 83.556508 
921.000000	 83.626332 
920.000000	 83.692372 
919.000000	 83.763571 
918.000000	 83.837423 
917.000000	 83.902185 
916.000000	 83.957426 
915.000000	 84.016889 
914.000000	 84.089033 
913.000000	 84.171390 
912.000000	 84.266098 
911.000000	 84.383153 
910.000000	 84.524823 
909.000000	 84.683931 
908.000000	 84.860079 
907.000000	 85.059984 
906.000000	 85.279918 
905.000000	 85.506672 
904.000000	 85.738579 
903.000000	 85.986512 
902.000000	 86.250941 
901.000000	 86.517036 
900.000000	 86.776076 
899.000000	 87.033549 
898.000000	 87.292330 
897.000000	 87.545433 
896.000000	 87.789076 
895.000000	 88.026257 
894.000000	 88.254569 
893.000000	 88.466948 
892.000000	 88.666990 
891.000000	 88.867240 
890.000000	 89.069649 
889.000000	 89.263215 
888.000000	 89.442356 
887.000000	 89.611191 
886.000000	 89.769055 
885.000000	 89.909900 
884.000000	 90.037836 
883.000000	 90.164801 
882.000000	 90.290604 
881.000000	 90.405334 
880.000000	 90.514935 
879.000000	 90.642458 
878.000000	 90.797253 
877.000000	 90.963541 
876.000000	 91.126387 
875.000000	 91.288474 
874.000000	 91.454661 
873.000000	 91.621816 
872.000000	 91.792438 
871.000000	 91.977636 
870.000000	 92.176786 
869.000000	 92.371995 
868.000000	 92.551307 
867.000000	 92.721295 
866.000000	 92.890197 
865.000000	 93.055656 
864.000000	 93.217514 
863.000000	 93.386576 
862.000000	 93.569554 
861.000000	 93.757065 
860.000000	 93.936004 
859.000000	 94.103973 
858.000000	 94.264746 
857.000000	 94.419451 
856.000000	 94.568644 
855.000000	 94.713762 
854.000000	 94.850868 
853.000000	 94.971705 
852.000000	 95.075440 
851.000000	 95.171276 
850.000000	 95.266955 
849.000000	 95.363666 
848.000000	 95.462865 
847.000000	 95.565771 
846.000000	 95.664396 
845.000000	 95.746490 
844.000000	 95.812269 
843.000000	 95.873251 
842.000000	 95.931534 
841.000000	 95.974182 
840.000000	 95.992448 
839.000000	 95.992877 
838.000000	 95.984658 
837.000000	 95.969718 
836.000000	 95.951688 
835.000000	 95.941184 
834.000000	 95.943171 
833.000000	 95.949486 
832.000000	 95.951812 
831.000000	 95.952886 
830.000000	 95.958935 
829.000000	 95.971860 
828.000000	 95.996373 
827.000000	 96.043571 
826.000000	 96.117151 
825.000000	 96.204345 
824.000000	 96.288501 
823.000000	 96.362423 
822.000000	 96.425160 
821.000000	 96.477450 
820.000000	 96.524801 
819.000000	 96.572990 
818.000000	 96.615415 
817.000000	 96.634259 
816.000000	 96.617796 
815.000000	 96.569108 
814.000000	 96.496102 
813.000000	 96.400616 
812.000000	 96.277822 
811.000000	 96.116104 
810.000000	 95.895576 
809.000000	 95.597842 
808.000000	 95.222080 
807.000000	 94.784802 
806.000000	 94.303272 
805.000000	 93.789536 
804.000000	 93.262380 
803.000000	 92.750944 
802.000000	 92.280356 
801.000000	 91.865208 
800.000000	 91.519663 
799.000000	 91.257889 
798.000000	 91.079543 
797.000000	 90.970289 
796.000000	 90.920195 
795.000000	 90.925389 
794.000000	 90.970580 
793.000000	 91.030121 
792.000000	 91.089632 
791.000000	 91.147830 
790.000000	 91.195946 
789.000000	 91.217061 
788.000000	 91.208416 
787.000000	 91.181674 
786.000000	 91.136113 
785.000000	 91.053108 
784.000000	 90.923302 
783.000000	 90.758725 
782.000000	 90.573308 
781.000000	 90.375355 
780.000000	 90.186931 
779.000000	 90.045098 
778.000000	 89.970255 
777.000000	 89.952977 
776.000000	 89.981416 
775.000000	 90.058662 
774.000000	 90.181124 
773.000000	 90.323625 
772.000000	 90.462562 
771.000000	 90.596193 
770.000000	 90.728665 
769.000000	 90.851992 
768.000000	 90.957137 
767.000000	 91.046007 
766.000000	 91.119500 
765.000000	 91.170483 
764.000000	 91.202305 
763.000000	 91.237919 
762.000000	 91.294977 
761.000000	 91.364966 
760.000000	 91.430822 
759.000000	 91.492465 
758.000000	 91.561585 
757.000000	 91.643939 
756.000000	 91.741000 
755.000000	 91.857420 
754.000000	 91.991207 
753.000000	 92.123848 
752.000000	 92.233296 
751.000000	 92.313381 
750.000000	 92.374960 
749.000000	 92.435629 
748.000000	 92.512425 
747.000000	 92.613096 
746.000000	 92.727228 
745.000000	 92.835582 
744.000000	 92.933884 
743.000000	 93.037408 
742.000000	 93.158315 
741.000000	 93.291627 
740.000000	 93.428532 
739.000000	 93.568674 
738.000000	 93.711563 
737.000000	 93.849147 
736.000000	 93.975941 
735.000000	 94.096331 
734.000000	 94.214670 
733.000000	 94.328081 
732.000000	 94.433746 
731.000000	 94.531533 
730.000000	 94.613898 
729.000000	 94.666205 
728.000000	 94.687778 
727.000000	 94.701375 
726.000000	 94.731876 
725.000000	 94.785601 
724.000000	 94.855575 
723.000000	 94.934429 
722.000000	 95.015234 
721.000000	 95.091864 
720.000000	 95.167146 
719.000000	 95.250122 
718.000000	 95.340043 
717.000000	 95.424990 
716.000000	 95.497799 
715.000000	 95.561327 
714.000000	 95.617315 
713.000000	 95.664263 
712.000000	 95.710509 
711.000000	 95.772467 
710.000000	 95.852292 
709.000000	 95.931953 
708.000000	 95.995836 
707.000000	 96.044743 
706.000000	 96.079636 
705.000000	 96.090992 
704.000000	 96.073530 
703.000000	 96.031826 
702.000000	 95.962556 
701.000000	 95.846037 
700.000000	 95.664975 
699.000000	 95.421826 
698.000000	 95.130983 
697.000000	 94.815620 
696.000000	 94.522494 
695.000000	 94.314310 
694.000000	 94.230983 
693.000000	 94.264420 
692.000000	 94.376264 
691.000000	 94.529607 
690.000000	 94.695228 
689.000000	 94.848984 
688.000000	 94.980937 
687.000000	 95.096473 
686.000000	 95.201033 
685.000000	 95.294039 
684.000000	 95.381802 
683.000000	 95.478446 
682.000000	 95.583382 
681.000000	 95.677459 
680.000000	 95.751130 
679.000000	 95.822983 
678.000000	 95.911615 
677.000000	 96.009382 
676.000000	 96.104623 
675.000000	 96.196460 
674.000000	 96.281333 
673.000000	 96.348904 
672.000000	 96.398738 
671.000000	 96.458193 
670.000000	 96.571284 
669.000000	 96.759680 
668.000000	 96.927573 
667.000000	 96.971629 
666.000000	 96.952532 
665.000000	 96.930009 
664.000000	 96.915747 
663.000000	 96.927627 
662.000000	 96.979004 
661.000000	 97.044925 
660.000000	 97.100665 
659.000000	 97.146588 
658.000000	 97.184066 
657.000000	 97.196398 
656.000000	 97.184792 
655.000000	 97.169416 
654.000000	 97.147510 
653.000000	 97.095659 
652.000000	 97.028831 
651.000000	 97.006860 
650.000000	 97.049091 

