4000.000000	97.840426 
3999.000000	97.838881 
3998.000000	97.836496 
3997.000000	97.833829 
3996.000000	97.831510 
3995.000000	97.830097 
3994.000000	97.829848 
3993.000000	97.830376 
3992.000000	97.830792 
3991.000000	97.830410 
3990.000000	97.829294 
3989.000000	97.828062 
3988.000000	97.827233 
3987.000000	97.826911 
3986.000000	97.826985 
3985.000000	97.827307 
3984.000000	97.827660 
3983.000000	97.827807 
3982.000000	97.827781 
3981.000000	97.827850 
3980.000000	97.828007 
3979.000000	97.827738 
3978.000000	97.826593 
3977.000000	97.824807 
3976.000000	97.823173 
3975.000000	97.822190 
3974.000000	97.821637 
3973.000000	97.820981 
3972.000000	97.819894 
3971.000000	97.818406 
3970.000000	97.816787 
3969.000000	97.815458 
3968.000000	97.814786 
3967.000000	97.814804 
3966.000000	97.815144 
3965.000000	97.815212 
3964.000000	97.814546 
3963.000000	97.813107 
3962.000000	97.811337 
3961.000000	97.809883 
3960.000000	97.809038 
3959.000000	97.808611 
3958.000000	97.808243 
3957.000000	97.807781 
3956.000000	97.807251 
3955.000000	97.806640 
3954.000000	97.805904 
3953.000000	97.805067 
3952.000000	97.804216 
3951.000000	97.803371 
3950.000000	97.802460 
3949.000000	97.801414 
3948.000000	97.800262 
3947.000000	97.799171 
3946.000000	97.798313 
3945.000000	97.797682 
3944.000000	97.797028 
3943.000000	97.796124 
3942.000000	97.795125 
3941.000000	97.794440 
3940.000000	97.794261 
3939.000000	97.794373 
3938.000000	97.794409 
3937.000000	97.794274 
3936.000000	97.793994 
3935.000000	97.793257 
3934.000000	97.791628 
3933.000000	97.789165 
3932.000000	97.786708 
3931.000000	97.785013 
3930.000000	97.784178 
3929.000000	97.784141 
3928.000000	97.784948 
3927.000000	97.786246 
3926.000000	97.786883 
3925.000000	97.785987 
3924.000000	97.784160 
3923.000000	97.782622 
3922.000000	97.781571 
3921.000000	97.780462 
3920.000000	97.779238 
3919.000000	97.778453 
3918.000000	97.778112 
3917.000000	97.777633 
3916.000000	97.776922 
3915.000000	97.776561 
3914.000000	97.776758 
3913.000000	97.777132 
3912.000000	97.777351 
3911.000000	97.777608 
3910.000000	97.777895 
3909.000000	97.777915 
3908.000000	97.777443 
3907.000000	97.776443 
3906.000000	97.774748 
3905.000000	97.771986 
3904.000000	97.768405 
3903.000000	97.765129 
3902.000000	97.763158 
3901.000000	97.762608 
3900.000000	97.762918 
3899.000000	97.763526 
3898.000000	97.764113 
3897.000000	97.764352 
3896.000000	97.763989 
3895.000000	97.763184 
3894.000000	97.762298 
3893.000000	97.761563 
3892.000000	97.760830 
3891.000000	97.759961 
3890.000000	97.759076 
3889.000000	97.758351 
3888.000000	97.757754 
3887.000000	97.757121 
3886.000000	97.756426 
3885.000000	97.755761 
3884.000000	97.755119 
3883.000000	97.754441 
3882.000000	97.753740 
3881.000000	97.753060 
3880.000000	97.752416 
3879.000000	97.751796 
3878.000000	97.751193 
3877.000000	97.750599 
3876.000000	97.750002 
3875.000000	97.749396 
3874.000000	97.748786 
3873.000000	97.748177 
3872.000000	97.747578 
3871.000000	97.746994 
3870.000000	97.746438 
3869.000000	97.745927 
3868.000000	97.745469 
3867.000000	97.745053 
3866.000000	97.744666 
3865.000000	97.744304 
3864.000000	97.743970 
3863.000000	97.743657 
3862.000000	97.743345 
3861.000000	97.743018 
3860.000000	97.742673 
3859.000000	97.742310 
3858.000000	97.741929 
3857.000000	97.741524 
3856.000000	97.741113 
3855.000000	97.740715 
3854.000000	97.740251 
3853.000000	97.739789 
3852.000000	97.739543 
3851.000000	97.739530 
3850.000000	97.739563 
3849.000000	97.739539 
3848.000000	97.739614 
3847.000000	97.739939 
3846.000000	97.740271 
3845.000000	97.740249 
3844.000000	97.739761 
3843.000000	97.738948 
3842.000000	97.738009 
3841.000000	97.737150 
3840.000000	97.736425 
3839.000000	97.736126 
3838.000000	97.736494 
3837.000000	97.737109 
3836.000000	97.737304 
3835.000000	97.737008 
3834.000000	97.736758 
3833.000000	97.736992 
3832.000000	97.737696 
3831.000000	97.738690 
3830.000000	97.739746 
3829.000000	97.740727 
3828.000000	97.741580 
3827.000000	97.742159 
3826.000000	97.742264 
3825.000000	97.742063 
3824.000000	97.741674 
3823.000000	97.740775 
3822.000000	97.739019 
3821.000000	97.737082 
3820.000000	97.736178 
3819.000000	97.736468 
3818.000000	97.737363 
3817.000000	97.738135 
3816.000000	97.738894 
3815.000000	97.740187 
3814.000000	97.741605 
3813.000000	97.742167 
3812.000000	97.741784 
3811.000000	97.741433 
3810.000000	97.741982 
3809.000000	97.743090 
3808.000000	97.743506 
3807.000000	97.742673 
3806.000000	97.741352 
3805.000000	97.740481 
3804.000000	97.740176 
3803.000000	97.740126 
3802.000000	97.740208 
3801.000000	97.740917 
3800.000000	97.742173 
3799.000000	97.742864 
3798.000000	97.742466 
3797.000000	97.741811 
3796.000000	97.742261 
3795.000000	97.744019 
3794.000000	97.745853 
3793.000000	97.746587 
3792.000000	97.746584 
3791.000000	97.747098 
3790.000000	97.748327 
3789.000000	97.749083 
3788.000000	97.748580 
3787.000000	97.747487 
3786.000000	97.746850 
3785.000000	97.746666 
3784.000000	97.746224 
3783.000000	97.745182 
3782.000000	97.743299 
3781.000000	97.740475 
3780.000000	97.737676 
3779.000000	97.737079 
3778.000000	97.739607 
3777.000000	97.743398 
3776.000000	97.745162 
3775.000000	97.743343 
3774.000000	97.739416 
3773.000000	97.736265 
3772.000000	97.734838 
3771.000000	97.733628 
3770.000000	97.731756 
3769.000000	97.730408 
3768.000000	97.730237 
3767.000000	97.730041 
3766.000000	97.728400 
3765.000000	97.725865 
3764.000000	97.724787 
3763.000000	97.726158 
3762.000000	97.727809 
3761.000000	97.727120 
3760.000000	97.724366 
3759.000000	97.721671 
3758.000000	97.718345 
3757.000000	97.712669 
3756.000000	97.705607 
3755.000000	97.699114 
3754.000000	97.693243 
3753.000000	97.687090 
3752.000000	97.682609 
3751.000000	97.682195 
3750.000000	97.682640 
3749.000000	97.679840 
3748.000000	97.676397 
3747.000000	97.677123 
3746.000000	97.680931 
3745.000000	97.682507 
3744.000000	97.683413 
3743.000000	97.686678 
3742.000000	97.688223 
3741.000000	97.684359 
3740.000000	97.678019 
3739.000000	97.676280 
3738.000000	97.680639 
3737.000000	97.684218 
3736.000000	97.682513 
3735.000000	97.680753 
3734.000000	97.684696 
3733.000000	97.691221 
3732.000000	97.694519 
3731.000000	97.693872 
3730.000000	97.691757 
3729.000000	97.689537 
3728.000000	97.686741 
3727.000000	97.683393 
3726.000000	97.681387 
3725.000000	97.681575 
3724.000000	97.682367 
3723.000000	97.682600 
3722.000000	97.683302 
3721.000000	97.685401 
3720.000000	97.687823 
3719.000000	97.689556 
3718.000000	97.690109 
3717.000000	97.689464 
3716.000000	97.687898 
3715.000000	97.684701 
3714.000000	97.678955 
3713.000000	97.671772 
3712.000000	97.666605 
3711.000000	97.665566 
3710.000000	97.666744 
3709.000000	97.667454 
3708.000000	97.666616 
3707.000000	97.664092 
3706.000000	97.660490 
3705.000000	97.656814 
3704.000000	97.653835 
3703.000000	97.651492 
3702.000000	97.648649 
3701.000000	97.643810 
3700.000000	97.636648 
3699.000000	97.628798 
3698.000000	97.622016 
3697.000000	97.616779 
3696.000000	97.613505 
3695.000000	97.611815 
3694.000000	97.609434 
3693.000000	97.604855 
3692.000000	97.599802 
3691.000000	97.597250 
3690.000000	97.596902 
3689.000000	97.596225 
3688.000000	97.594424 
3687.000000	97.592384 
3686.000000	97.590166 
3685.000000	97.586331 
3684.000000	97.580921 
3683.000000	97.576894 
3682.000000	97.575664 
3681.000000	97.572607 
3680.000000	97.562416 
3679.000000	97.546565 
3678.000000	97.531962 
3677.000000	97.520341 
3676.000000	97.508350 
3675.000000	97.497619 
3674.000000	97.490720 
3673.000000	97.486089 
3672.000000	97.480836 
3671.000000	97.474240 
3670.000000	97.470002 
3669.000000	97.470450 
3668.000000	97.470883 
3667.000000	97.467363 
3666.000000	97.462438 
3665.000000	97.460044 
3664.000000	97.460534 
3663.000000	97.461143 
3662.000000	97.458522 
3661.000000	97.451013 
3660.000000	97.439762 
3659.000000	97.426921 
3658.000000	97.414074 
3657.000000	97.400929 
3656.000000	97.388113 
3655.000000	97.377688 
3654.000000	97.370135 
3653.000000	97.363404 
3652.000000	97.353658 
3651.000000	97.338407 
3650.000000	97.320100 
3649.000000	97.303620 
3648.000000	97.291188 
3647.000000	97.283389 
3646.000000	97.280617 
3645.000000	97.281872 
3644.000000	97.284750 
3643.000000	97.287450 
3642.000000	97.289397 
3641.000000	97.290451 
3640.000000	97.289414 
3639.000000	97.284464 
3638.000000	97.275805 
3637.000000	97.265493 
3636.000000	97.254518 
3635.000000	97.241356 
3634.000000	97.225870 
3633.000000	97.211957 
3632.000000	97.203662 
3631.000000	97.199379 
3630.000000	97.192697 
3629.000000	97.183094 
3628.000000	97.177023 
3627.000000	97.175774 
3626.000000	97.175749 
3625.000000	97.176164 
3624.000000	97.179434 
3623.000000	97.187209 
3622.000000	97.196627 
3621.000000	97.200775 
3620.000000	97.194540 
3619.000000	97.179984 
3618.000000	97.164300 
3617.000000	97.154095 
3616.000000	97.152728 
3615.000000	97.159132 
3614.000000	97.168950 
3613.000000	97.178056 
3612.000000	97.184481 
3611.000000	97.187226 
3610.000000	97.185764 
3609.000000	97.181386 
3608.000000	97.177475 
3607.000000	97.176774 
3606.000000	97.179149 
3605.000000	97.183594 
3604.000000	97.190165 
3603.000000	97.199018 
3602.000000	97.209096 
3601.000000	97.218029 
3600.000000	97.224122 
3599.000000	97.227010 
3598.000000	97.227216 
3597.000000	97.225834 
3596.000000	97.224555 
3595.000000	97.224086 
3594.000000	97.224270 
3593.000000	97.224965 
3592.000000	97.226198 
3591.000000	97.227680 
3590.000000	97.227961 
3589.000000	97.225025 
3588.000000	97.218917 
3587.000000	97.212734 
3586.000000	97.209568 
3585.000000	97.210364 
3584.000000	97.214781 
3583.000000	97.221571 
3582.000000	97.228667 
3581.000000	97.233701 
3580.000000	97.235509 
3579.000000	97.234879 
3578.000000	97.233773 
3577.000000	97.233733 
3576.000000	97.234772 
3575.000000	97.235775 
3574.000000	97.235684 
3573.000000	97.234576 
3572.000000	97.233311 
3571.000000	97.232431 
3570.000000	97.231235 
3569.000000	97.228158 
3568.000000	97.222902 
3567.000000	97.218029 
3566.000000	97.216505 
3565.000000	97.218576 
3564.000000	97.222300 
3563.000000	97.225439 
3562.000000	97.226834 
3561.000000	97.226627 
3560.000000	97.225686 
3559.000000	97.224883 
3558.000000	97.224589 
3557.000000	97.224696 
3556.000000	97.224862 
3555.000000	97.224754 
3554.000000	97.224207 
3553.000000	97.223327 
3552.000000	97.222395 
3551.000000	97.221539 
3550.000000	97.220640 
3549.000000	97.219616 
3548.000000	97.218648 
3547.000000	97.217964 
3546.000000	97.217457 
3545.000000	97.216778 
3544.000000	97.215965 
3543.000000	97.215670 
3542.000000	97.216552 
3541.000000	97.218668 
3540.000000	97.221347 
3539.000000	97.223420 
3538.000000	97.223840 
3537.000000	97.222348 
3536.000000	97.219737 
3535.000000	97.217215 
3534.000000	97.215462 
3533.000000	97.214416 
3532.000000	97.213862 
3531.000000	97.213807 
3530.000000	97.214269 
3529.000000	97.214973 
3528.000000	97.215493 
3527.000000	97.215561 
3526.000000	97.215066 
3525.000000	97.213985 
3524.000000	97.212569 
3523.000000	97.211487 
3522.000000	97.211343 
3521.000000	97.212154 
3520.000000	97.213484 
3519.000000	97.214806 
3518.000000	97.215784 
3517.000000	97.216298 
3516.000000	97.216435 
3515.000000	97.216524 
3514.000000	97.217060 
3513.000000	97.218219 
3512.000000	97.219377 
3511.000000	97.219450 
3510.000000	97.217954 
3509.000000	97.215570 
3508.000000	97.213583 
3507.000000	97.212694 
3506.000000	97.212549 
3505.000000	97.212284 
3504.000000	97.211435 
3503.000000	97.210273 
3502.000000	97.209359 
3501.000000	97.208948 
3500.000000	97.208898 
3499.000000	97.208930 
3498.000000	97.208860 
3497.000000	97.208683 
3496.000000	97.208420 
3495.000000	97.207987 
3494.000000	97.207335 
3493.000000	97.206661 
3492.000000	97.206267 
3491.000000	97.206257 
3490.000000	97.206528 
3489.000000	97.206925 
3488.000000	97.207179 
3487.000000	97.206860 
3486.000000	97.205774 
3485.000000	97.204416 
3484.000000	97.203685 
3483.000000	97.203933 
3482.000000	97.204579 
3481.000000	97.204795 
3480.000000	97.204404 
3479.000000	97.203764 
3478.000000	97.203039 
3477.000000	97.201957 
3476.000000	97.200288 
3475.000000	97.198241 
3474.000000	97.196329 
3473.000000	97.194964 
3472.000000	97.194236 
3471.000000	97.193955 
3470.000000	97.193770 
3469.000000	97.193335 
3468.000000	97.192450 
3467.000000	97.191150 
3466.000000	97.189719 
3465.000000	97.188474 
3464.000000	97.187485 
3463.000000	97.186517 
3462.000000	97.185318 
3461.000000	97.183914 
3460.000000	97.182565 
3459.000000	97.181434 
3458.000000	97.180407 
3457.000000	97.179240 
3456.000000	97.177848 
3455.000000	97.176420 
3454.000000	97.175259 
3453.000000	97.174491 
3452.000000	97.173986 
3451.000000	97.173462 
3450.000000	97.172660 
3449.000000	97.171499 
3448.000000	97.170075 
3447.000000	97.168593 
3446.000000	97.167216 
3445.000000	97.165998 
3444.000000	97.164940 
3443.000000	97.164039 
3442.000000	97.163241 
3441.000000	97.162405 
3440.000000	97.161379 
3439.000000	97.160117 
3438.000000	97.158685 
3437.000000	97.157208 
3436.000000	97.155826 
3435.000000	97.154669 
3434.000000	97.153806 
3433.000000	97.153142 
3432.000000	97.152489 
3431.000000	97.151756 
3430.000000	97.150985 
3429.000000	97.150221 
3428.000000	97.149429 
3427.000000	97.148555 
3426.000000	97.147630 
3425.000000	97.146740 
3424.000000	97.145934 
3423.000000	97.145188 
3422.000000	97.144453 
3421.000000	97.143713 
3420.000000	97.142985 
3419.000000	97.142283 
3418.000000	97.141603 
3417.000000	97.140938 
3416.000000	97.140287 
3415.000000	97.139647 
3414.000000	97.139011 
3413.000000	97.138374 
3412.000000	97.137730 
3411.000000	97.137084 
3410.000000	97.136449 
3409.000000	97.135839 
3408.000000	97.135264 
3407.000000	97.134725 
3406.000000	97.134216 
3405.000000	97.133727 
3404.000000	97.133251 
3403.000000	97.132783 
3402.000000	97.132318 
3401.000000	97.131852 
3400.000000	97.131382 
3399.000000	97.130911 
3398.000000	97.130448 
3397.000000	97.130005 
3396.000000	97.129593 
3395.000000	97.129218 
3394.000000	97.128880 
3393.000000	97.128571 
3392.000000	97.128282 
3391.000000	97.128003 
3390.000000	97.127732 
3389.000000	97.127475 
3388.000000	97.127238 
3387.000000	97.127025 
3386.000000	97.126839 
3385.000000	97.126677 
3384.000000	97.126538 
3383.000000	97.126426 
3382.000000	97.126351 
3381.000000	97.126322 
3380.000000	97.126342 
3379.000000	97.126401 
3378.000000	97.126486 
3377.000000	97.126585 
3376.000000	97.126697 
3375.000000	97.126823 
3374.000000	97.126963 
3373.000000	97.127115 
3372.000000	97.127280 
3371.000000	97.127471 
3370.000000	97.127711 
3369.000000	97.128012 
3368.000000	97.128361 
3367.000000	97.128733 
3366.000000	97.129106 
3365.000000	97.129466 
3364.000000	97.129816 
3363.000000	97.130170 
3362.000000	97.130534 
3361.000000	97.130904 
3360.000000	97.131278 
3359.000000	97.131672 
3358.000000	97.132111 
3357.000000	97.132588 
3356.000000	97.133078 
3355.000000	97.133586 
3354.000000	97.134176 
3353.000000	97.134919 
3352.000000	97.135814 
3351.000000	97.136741 
3350.000000	97.137525 
3349.000000	97.138054 
3348.000000	97.138365 
3347.000000	97.138649 
3346.000000	97.139112 
3345.000000	97.139828 
3344.000000	97.140674 
3343.000000	97.141434 
3342.000000	97.142030 
3341.000000	97.142622 
3340.000000	97.143419 
3339.000000	97.144379 
3338.000000	97.145186 
3337.000000	97.145594 
3336.000000	97.145670 
3335.000000	97.145719 
3334.000000	97.145966 
3333.000000	97.146361 
3332.000000	97.146712 
3331.000000	97.146946 
3330.000000	97.147216 
3329.000000	97.147746 
3328.000000	97.148598 
3327.000000	97.149630 
3326.000000	97.150614 
3325.000000	97.151398 
3324.000000	97.151904 
3323.000000	97.152069 
3322.000000	97.151876 
3321.000000	97.151442 
3320.000000	97.151015 
3319.000000	97.150859 
3318.000000	97.151149 
3317.000000	97.151932 
3316.000000	97.153116 
3315.000000	97.154437 
3314.000000	97.155560 
3313.000000	97.156288 
3312.000000	97.156659 
3311.000000	97.156868 
3310.000000	97.157113 
3309.000000	97.157494 
3308.000000	97.157942 
3307.000000	97.158189 
3306.000000	97.157947 
3305.000000	97.157253 
3304.000000	97.156626 
3303.000000	97.156743 
3302.000000	97.157866 
3301.000000	97.159597 
3300.000000	97.161099 
3299.000000	97.161699 
3298.000000	97.161318 
3297.000000	97.160440 
3296.000000	97.159688 
3295.000000	97.159348 
3294.000000	97.159353 
3293.000000	97.159589 
3292.000000	97.160116 
3291.000000	97.161069 
3290.000000	97.162456 
3289.000000	97.164109 
3288.000000	97.165767 
3287.000000	97.167148 
3286.000000	97.167975 
3285.000000	97.168034 
3284.000000	97.167298 
3283.000000	97.166058 
3282.000000	97.164893 
3281.000000	97.164299 
3280.000000	97.164252 
3279.000000	97.164320 
3278.000000	97.164386 
3277.000000	97.165009 
3276.000000	97.166720 
3275.000000	97.169196 
3274.000000	97.171505 
3273.000000	97.173120 
3272.000000	97.174296 
3271.000000	97.175430 
3270.000000	97.176389 
3269.000000	97.176668 
3268.000000	97.176015 
3267.000000	97.174762 
3266.000000	97.173710 
3265.000000	97.173692 
3264.000000	97.175041 
3263.000000	97.177319 
3262.000000	97.179547 
3261.000000	97.181012 
3260.000000	97.181708 
3259.000000	97.182012 
3258.000000	97.182165 
3257.000000	97.182213 
3256.000000	97.182243 
3255.000000	97.182307 
3254.000000	97.182259 
3253.000000	97.182005 
3252.000000	97.181911 
3251.000000	97.182611 
3250.000000	97.184312 
3249.000000	97.186464 
3248.000000	97.188207 
3247.000000	97.189170 
3246.000000	97.189678 
3245.000000	97.190231 
3244.000000	97.190907 
3243.000000	97.191324 
3242.000000	97.191150 
3241.000000	97.190520 
3240.000000	97.189967 
3239.000000	97.190046 
3238.000000	97.191064 
3237.000000	97.193068 
3236.000000	97.195816 
3235.000000	97.198705 
3234.000000	97.200960 
3233.000000	97.202081 
3232.000000	97.202121 
3231.000000	97.201521 
3230.000000	97.200717 
3229.000000	97.199942 
3228.000000	97.199362 
3227.000000	97.199247 
3226.000000	97.199934 
3225.000000	97.201614 
3224.000000	97.204106 
3223.000000	97.206838 
3222.000000	97.209191 
3221.000000	97.210888 
3220.000000	97.211948 
3219.000000	97.212332 
3218.000000	97.211898 
3217.000000	97.210805 
3216.000000	97.209749 
3215.000000	97.209628 
3214.000000	97.210912 
3213.000000	97.213351 
3212.000000	97.216162 
3211.000000	97.218562 
3210.000000	97.220256 
3209.000000	97.221471 
3208.000000	97.222496 
3207.000000	97.223200 
3206.000000	97.223140 
3205.000000	97.222218 
3204.000000	97.221091 
3203.000000	97.220723 
3202.000000	97.221557 
3201.000000	97.223237 
3200.000000	97.225070 
3199.000000	97.226791 
3198.000000	97.228848 
3197.000000	97.231897 
3196.000000	97.235960 
3195.000000	97.240071 
3194.000000	97.242904 
3193.000000	97.243809 
3192.000000	97.243148 
3191.000000	97.241838 
3190.000000	97.240625 
3189.000000	97.239766 
3188.000000	97.239244 
3187.000000	97.239175 
3186.000000	97.240012 
3185.000000	97.242285 
3184.000000	97.245962 
3183.000000	97.250157 
3182.000000	97.253655 
3181.000000	97.255685 
3180.000000	97.256211 
3179.000000	97.255757 
3178.000000	97.255143 
3177.000000	97.255162 
3176.000000	97.256188 
3175.000000	97.258050 
3174.000000	97.260373 
3173.000000	97.262981 
3172.000000	97.265822 
3171.000000	97.268611 
3170.000000	97.270901 
3169.000000	97.272496 
3168.000000	97.273559 
3167.000000	97.274318 
3166.000000	97.274871 
3165.000000	97.275286 
3164.000000	97.275705 
3163.000000	97.276296 
3162.000000	97.277211 
3161.000000	97.278572 
3160.000000	97.280380 
3159.000000	97.282460 
3158.000000	97.284604 
3157.000000	97.286727 
3156.000000	97.288767 
3155.000000	97.290520 
3154.000000	97.291780 
3153.000000	97.292637 
3152.000000	97.293427 
3151.000000	97.294336 
3150.000000	97.295260 
3149.000000	97.296077 
3148.000000	97.296906 
3147.000000	97.298047 
3146.000000	97.299703 
3145.000000	97.301812 
3144.000000	97.304095 
3143.000000	97.306158 
3142.000000	97.307733 
3141.000000	97.308805 
3140.000000	97.309606 
3139.000000	97.310488 
3138.000000	97.311661 
3137.000000	97.313107 
3136.000000	97.314655 
3135.000000	97.316112 
3134.000000	97.317422 
3133.000000	97.318718 
3132.000000	97.320185 
3131.000000	97.321852 
3130.000000	97.323531 
3129.000000	97.325012 
3128.000000	97.326271 
3127.000000	97.327465 
3126.000000	97.328778 
3125.000000	97.330288 
3124.000000	97.331962 
3123.000000	97.333698 
3122.000000	97.335400 
3121.000000	97.337066 
3120.000000	97.338794 
3119.000000	97.340620 
3118.000000	97.342404 
3117.000000	97.343942 
3116.000000	97.345158 
3115.000000	97.346116 
3114.000000	97.346867 
3113.000000	97.347469 
3112.000000	97.348166 
3111.000000	97.349380 
3110.000000	97.351390 
3109.000000	97.354024 
3108.000000	97.356712 
3107.000000	97.358979 
3106.000000	97.360805 
3105.000000	97.362427 
3104.000000	97.363855 
3103.000000	97.364769 
3102.000000	97.364954 
3101.000000	97.364603 
3100.000000	97.364120 
3099.000000	97.363849 
3098.000000	97.364102 
3097.000000	97.365261 
3096.000000	97.367501 
3095.000000	97.370269 
3094.000000	97.372611 
3093.000000	97.374131 
3092.000000	97.375245 
3091.000000	97.376531 
3090.000000	97.378085 
3089.000000	97.379597 
3088.000000	97.380793 
3087.000000	97.381653 
3086.000000	97.382335 
3085.000000	97.383029 
3084.000000	97.383769 
3083.000000	97.384427 
3082.000000	97.384971 
3081.000000	97.385633 
3080.000000	97.386641 
3079.000000	97.387827 
3078.000000	97.388774 
3077.000000	97.389442 
3076.000000	97.390321 
3075.000000	97.391683 
3074.000000	97.393011 
3073.000000	97.393630 
3072.000000	97.393694 
3071.000000	97.394028 
3070.000000	97.395034 
3069.000000	97.396265 
3068.000000	97.397131 
3067.000000	97.397563 
3066.000000	97.397810 
3065.000000	97.398015 
3064.000000	97.398220 
3063.000000	97.398456 
3062.000000	97.398598 
3061.000000	97.398368 
3060.000000	97.397638 
3059.000000	97.396704 
3058.000000	97.396275 
3057.000000	97.397148 
3056.000000	97.399596 
3055.000000	97.402631 
3054.000000	97.404307 
3053.000000	97.403453 
3052.000000	97.401031 
3051.000000	97.399439 
3050.000000	97.400103 
3049.000000	97.402303 
3048.000000	97.404318 
3047.000000	97.405184 
3046.000000	97.405055 
3045.000000	97.404520 
3044.000000	97.404225 
3043.000000	97.404831 
3042.000000	97.406646 
3041.000000	97.409031 
3040.000000	97.410522 
3039.000000	97.409986 
3038.000000	97.407682 
3037.000000	97.404943 
3036.000000	97.402724 
3035.000000	97.400628 
3034.000000	97.397758 
3033.000000	97.394261 
3032.000000	97.391415 
3031.000000	97.390143 
3030.000000	97.390101 
3029.000000	97.390353 
3028.000000	97.390160 
3027.000000	97.388801 
3026.000000	97.385578 
3025.000000	97.380788 
3024.000000	97.376072 
3023.000000	97.372784 
3022.000000	97.370481 
3021.000000	97.368109 
3020.000000	97.366135 
3019.000000	97.366078 
3018.000000	97.367850 
3017.000000	97.368960 
3016.000000	97.367037 
3015.000000	97.362193 
3014.000000	97.356629 
3013.000000	97.352585 
3012.000000	97.350776 
3011.000000	97.350042 
3010.000000	97.348058 
3009.000000	97.343125 
3008.000000	97.335705 
3007.000000	97.327949 
3006.000000	97.321474 
3005.000000	97.316180 
3004.000000	97.311417 
3003.000000	97.307457 
3002.000000	97.305342 
3001.000000	97.305774 
3000.000000	97.308437 
2999.000000	97.311743 
2998.000000	97.312990 
2997.000000	97.309755 
2996.000000	97.302013 
2995.000000	97.292711 
2994.000000	97.285395 
2993.000000	97.281149 
2992.000000	97.278219 
2991.000000	97.274377 
2990.000000	97.269269 
2989.000000	97.264555 
2988.000000	97.262279 
2987.000000	97.263291 
2986.000000	97.266914 
2985.000000	97.271750 
2984.000000	97.276686 
2983.000000	97.281171 
2982.000000	97.284799 
2981.000000	97.286936 
2980.000000	97.286775 
2979.000000	97.283736 
2978.000000	97.278071 
2977.000000	97.271402 
2976.000000	97.266309 
2975.000000	97.264748 
2974.000000	97.266810 
2973.000000	97.271161 
2972.000000	97.276411 
2971.000000	97.281657 
2970.000000	97.286088 
2969.000000	97.289144 
2968.000000	97.291196 
2967.000000	97.293137 
2966.000000	97.295003 
2965.000000	97.295882 
2964.000000	97.295609 
2963.000000	97.295669 
2962.000000	97.297658 
2961.000000	97.301395 
2960.000000	97.305350 
2959.000000	97.308697 
2958.000000	97.312185 
2957.000000	97.316853 
2956.000000	97.322395 
2955.000000	97.326989 
2954.000000	97.328762 
2953.000000	97.327604 
2952.000000	97.325658 
2951.000000	97.325803 
2950.000000	97.329251 
2949.000000	97.334642 
2948.000000	97.339523 
2947.000000	97.342528 
2946.000000	97.344059 
2945.000000	97.345277 
2944.000000	97.346867 
2943.000000	97.348509 
2942.000000	97.349073 
2941.000000	97.347434 
2940.000000	97.343668 
2939.000000	97.339632 
2938.000000	97.337771 
2937.000000	97.338925 
2936.000000	97.341518 
2935.000000	97.343060 
2934.000000	97.342487 
2933.000000	97.340877 
2932.000000	97.340143 
2931.000000	97.341142 
2930.000000	97.343021 
2929.000000	97.344199 
2928.000000	97.343863 
2927.000000	97.342566 
2926.000000	97.341486 
2925.000000	97.341308 
2924.000000	97.341898 
2923.000000	97.342779 
2922.000000	97.343573 
2921.000000	97.344058 
2920.000000	97.344269 
2919.000000	97.344649 
2918.000000	97.345696 
2917.000000	97.347095 
2916.000000	97.347537 
2915.000000	97.345969 
2914.000000	97.343028 
2913.000000	97.340760 
2912.000000	97.340548 
2911.000000	97.341725 
2910.000000	97.342562 
2909.000000	97.342423 
2908.000000	97.342385 
2907.000000	97.343656 
2906.000000	97.345963 
2905.000000	97.347782 
2904.000000	97.347749 
2903.000000	97.346002 
2902.000000	97.344165 
2901.000000	97.344010 
2900.000000	97.346191 
2899.000000	97.349789 
2898.000000	97.353255 
2897.000000	97.355802 
2896.000000	97.357663 
2895.000000	97.359210 
2894.000000	97.360574 
2893.000000	97.362134 
2892.000000	97.364512 
2891.000000	97.367602 
2890.000000	97.370310 
2889.000000	97.371961 
2888.000000	97.373399 
2887.000000	97.375790 
2886.000000	97.378668 
2885.000000	97.380322 
2884.000000	97.380316 
2883.000000	97.380590 
2882.000000	97.383323 
2881.000000	97.388466 
2880.000000	97.394039 
2879.000000	97.398490 
2878.000000	97.402020 
2877.000000	97.405508 
2876.000000	97.409085 
2875.000000	97.412149 
2874.000000	97.414255 
2873.000000	97.415488 
2872.000000	97.416264 
2871.000000	97.417190 
2870.000000	97.418914 
2869.000000	97.421698 
2868.000000	97.425056 
2867.000000	97.428026 
2866.000000	97.429911 
2865.000000	97.430750 
2864.000000	97.431256 
2863.000000	97.432398 
2862.000000	97.434805 
2861.000000	97.438261 
2860.000000	97.441777 
2859.000000	97.444515 
2858.000000	97.446733 
2857.000000	97.449575 
2856.000000	97.453897 
2855.000000	97.459440 
2854.000000	97.464944 
2853.000000	97.469102 
2852.000000	97.471430 
2851.000000	97.472397 
2850.000000	97.473070 
2849.000000	97.474395 
2848.000000	97.476563 
2847.000000	97.479061 
2846.000000	97.481316 
2845.000000	97.483271 
2844.000000	97.485306 
2843.000000	97.487721 
2842.000000	97.490459 
2841.000000	97.493210 
2840.000000	97.495594 
2839.000000	97.497270 
2838.000000	97.498174 
2837.000000	97.498705 
2836.000000	97.499495 
2835.000000	97.500867 
2834.000000	97.502690 
2833.000000	97.504820 
2832.000000	97.507416 
2831.000000	97.510607 
2830.000000	97.513957 
2829.000000	97.516602 
2828.000000	97.518085 
2827.000000	97.518897 
2826.000000	97.520086 
2825.000000	97.522199 
2824.000000	97.524714 
2823.000000	97.526533 
2822.000000	97.527076 
2821.000000	97.526817 
2820.000000	97.526838 
2819.000000	97.527800 
2818.000000	97.529442 
2817.000000	97.531047 
2816.000000	97.532237 
2815.000000	97.533227 
2814.000000	97.534338 
2813.000000	97.535484 
2812.000000	97.536209 
2811.000000	97.536140 
2810.000000	97.535369 
2809.000000	97.534518 
2808.000000	97.534436 
2807.000000	97.535695 
2806.000000	97.538224 
2805.000000	97.541284 
2804.000000	97.543990 
2803.000000	97.545934 
2802.000000	97.547365 
2801.000000	97.548866 
2800.000000	97.550799 
2799.000000	97.552858 
2798.000000	97.554194 
2797.000000	97.554189 
2796.000000	97.553169 
2795.000000	97.552350 
2794.000000	97.552827 
2793.000000	97.554666 
2792.000000	97.557046 
2791.000000	97.559066 
2790.000000	97.560340 
2789.000000	97.560828 
2788.000000	97.560541 
2787.000000	97.559616 
2786.000000	97.558472 
2785.000000	97.557647 
2784.000000	97.557434 
2783.000000	97.557837 
2782.000000	97.558742 
2781.000000	97.559984 
2780.000000	97.561375 
2779.000000	97.562837 
2778.000000	97.564488 
2777.000000	97.566423 
2776.000000	97.568399 
2775.000000	97.569951 
2774.000000	97.570826 
2773.000000	97.571162 
2772.000000	97.571296 
2771.000000	97.571554 
2770.000000	97.572206 
2769.000000	97.573375 
2768.000000	97.574874 
2767.000000	97.576262 
2766.000000	97.577233 
2765.000000	97.577884 
2764.000000	97.578531 
2763.000000	97.579326 
2762.000000	97.580103 
2761.000000	97.580615 
2760.000000	97.580867 
2759.000000	97.581162 
2758.000000	97.581780 
2757.000000	97.582638 
2756.000000	97.583349 
2755.000000	97.583661 
2754.000000	97.583759 
2753.000000	97.584102 
2752.000000	97.584919 
2751.000000	97.586041 
2750.000000	97.587148 
2749.000000	97.588141 
2748.000000	97.589056 
2747.000000	97.589805 
2746.000000	97.590255 
2745.000000	97.590456 
2744.000000	97.590652 
2743.000000	97.591023 
2742.000000	97.591550 
2741.000000	97.592133 
2740.000000	97.592724 
2739.000000	97.593314 
2738.000000	97.593882 
2737.000000	97.594394 
2736.000000	97.594846 
2735.000000	97.595277 
2734.000000	97.595740 
2733.000000	97.596259 
2732.000000	97.596813 
2731.000000	97.597350 
2730.000000	97.597828 
2729.000000	97.598252 
2728.000000	97.598652 
2727.000000	97.599014 
2726.000000	97.599285 
2725.000000	97.599451 
2724.000000	97.599608 
2723.000000	97.599889 
2722.000000	97.600323 
2721.000000	97.600834 
2720.000000	97.601335 
2719.000000	97.601816 
2718.000000	97.602299 
2717.000000	97.602749 
2716.000000	97.603101 
2715.000000	97.603353 
2714.000000	97.603616 
2713.000000	97.604010 
2712.000000	97.604534 
2711.000000	97.605064 
2710.000000	97.605522 
2709.000000	97.605966 
2708.000000	97.606476 
2707.000000	97.607029 
2706.000000	97.607548 
2705.000000	97.608019 
2704.000000	97.608481 
2703.000000	97.608915 
2702.000000	97.609239 
2701.000000	97.609466 
2700.000000	97.609786 
2699.000000	97.610411 
2698.000000	97.611337 
2697.000000	97.612259 
2696.000000	97.612799 
2695.000000	97.612834 
2694.000000	97.612585 
2693.000000	97.612416 
2692.000000	97.612477 
2691.000000	97.612631 
2690.000000	97.612707 
2689.000000	97.612713 
2688.000000	97.612759 
2687.000000	97.612887 
2686.000000	97.613124 
2685.000000	97.613601 
2684.000000	97.614412 
2683.000000	97.615363 
2682.000000	97.616049 
2681.000000	97.616255 
2680.000000	97.616117 
2679.000000	97.615930 
2678.000000	97.615874 
2677.000000	97.616006 
2676.000000	97.616356 
2675.000000	97.616833 
2674.000000	97.617206 
2673.000000	97.617337 
2672.000000	97.617337 
2671.000000	97.617289 
2670.000000	97.617006 
2669.000000	97.616338 
2668.000000	97.615534 
2667.000000	97.615030 
2666.000000	97.614903 
2665.000000	97.614812 
2664.000000	97.614480 
2663.000000	97.614065 
2662.000000	97.613944 
2661.000000	97.614262 
2660.000000	97.614783 
2659.000000	97.615107 
2658.000000	97.614968 
2657.000000	97.614382 
2656.000000	97.613597 
2655.000000	97.612889 
2654.000000	97.612301 
2653.000000	97.611652 
2652.000000	97.610891 
2651.000000	97.610313 
2650.000000	97.610263 
2649.000000	97.610730 
2648.000000	97.611316 
2647.000000	97.611599 
2646.000000	97.611427 
2645.000000	97.610824 
2644.000000	97.609864 
2643.000000	97.608716 
2642.000000	97.607701 
2641.000000	97.607072 
2640.000000	97.606810 
2639.000000	97.606706 
2638.000000	97.606630 
2637.000000	97.606580 
2636.000000	97.606520 
2635.000000	97.606375 
2634.000000	97.606192 
2633.000000	97.606099 
2632.000000	97.606056 
2631.000000	97.605803 
2630.000000	97.605181 
2629.000000	97.604353 
2628.000000	97.603652 
2627.000000	97.603248 
2626.000000	97.603091 
2625.000000	97.603087 
2624.000000	97.603165 
2623.000000	97.603202 
2622.000000	97.603019 
2621.000000	97.602486 
2620.000000	97.601575 
2619.000000	97.600335 
2618.000000	97.598929 
2617.000000	97.597708 
2616.000000	97.597029 
2615.000000	97.596957 
2614.000000	97.597207 
2613.000000	97.597338 
2612.000000	97.597130 
2611.000000	97.596661 
2610.000000	97.596143 
2609.000000	97.595743 
2608.000000	97.595455 
2607.000000	97.595156 
2606.000000	97.594761 
2605.000000	97.594313 
2604.000000	97.593881 
2603.000000	97.593437 
2602.000000	97.592923 
2601.000000	97.592367 
2600.000000	97.591857 
2599.000000	97.591414 
2598.000000	97.590978 
2597.000000	97.590500 
2596.000000	97.589991 
2595.000000	97.589483 
2594.000000	97.588997 
2593.000000	97.588540 
2592.000000	97.588124 
2591.000000	97.587747 
2590.000000	97.587372 
2589.000000	97.586966 
2588.000000	97.586544 
2587.000000	97.586153 
2586.000000	97.585819 
2585.000000	97.585523 
2584.000000	97.585230 
2583.000000	97.584910 
2582.000000	97.584550 
2581.000000	97.584152 
2580.000000	97.583735 
2579.000000	97.583328 
2578.000000	97.582952 
2577.000000	97.582608 
2576.000000	97.582282 
2575.000000	97.581948 
2574.000000	97.581590 
2573.000000	97.581207 
2572.000000	97.580800 
2571.000000	97.580368 
2570.000000	97.579912 
2569.000000	97.579455 
2568.000000	97.579038 
2567.000000	97.578686 
2566.000000	97.578376 
2565.000000	97.578026 
2564.000000	97.577561 
2563.000000	97.576972 
2562.000000	97.576331 
2561.000000	97.575750 
2560.000000	97.575342 
2559.000000	97.575185 
2558.000000	97.575250 
2557.000000	97.575352 
2556.000000	97.575272 
2555.000000	97.574986 
2554.000000	97.574676 
2553.000000	97.574361 
2552.000000	97.573695 
2551.000000	97.572465 
2550.000000	97.571101 
2549.000000	97.570329 
2548.000000	97.570266 
2547.000000	97.570223 
2546.000000	97.569542 
2545.000000	97.568382 
2544.000000	97.567334 
2543.000000	97.566541 
2542.000000	97.565715 
2541.000000	97.564869 
2540.000000	97.564481 
2539.000000	97.564794 
2538.000000	97.565434 
2537.000000	97.565897 
2536.000000	97.566094 
2535.000000	97.566172 
2534.000000	97.566072 
2533.000000	97.565576 
2532.000000	97.564730 
2531.000000	97.563876 
2530.000000	97.563160 
2529.000000	97.562177 
2528.000000	97.560395 
2527.000000	97.558047 
2526.000000	97.556358 
2525.000000	97.556462 
2524.000000	97.558245 
2523.000000	97.560456 
2522.000000	97.561983 
2521.000000	97.562698 
2520.000000	97.562898 
2519.000000	97.562546 
2518.000000	97.561412 
2517.000000	97.559582 
2516.000000	97.557439 
2515.000000	97.555405 
2514.000000	97.554086 
2513.000000	97.554245 
2512.000000	97.556121 
2511.000000	97.559020 
2510.000000	97.561929 
2509.000000	97.564330 
2508.000000	97.566019 
2507.000000	97.566631 
2506.000000	97.566082 
2505.000000	97.565283 
2504.000000	97.565500 
2503.000000	97.566871 
2502.000000	97.568237 
2501.000000	97.568561 
2500.000000	97.567979 
2499.000000	97.567313 
2498.000000	97.567091 
2497.000000	97.567301 
2496.000000	97.567728 
2495.000000	97.568091 
2494.000000	97.568065 
2493.000000	97.567548 
2492.000000	97.566911 
2491.000000	97.566733 
2490.000000	97.567243 
2489.000000	97.568090 
2488.000000	97.568635 
2487.000000	97.568524 
2486.000000	97.567952 
2485.000000	97.567453 
2484.000000	97.567407 
2483.000000	97.567770 
2482.000000	97.568223 
2481.000000	97.568466 
2480.000000	97.568387 
2479.000000	97.568033 
2478.000000	97.567580 
2477.000000	97.567265 
2476.000000	97.567181 
2475.000000	97.567126 
2474.000000	97.566816 
2473.000000	97.566264 
2472.000000	97.565775 
2471.000000	97.565561 
2470.000000	97.565538 
2469.000000	97.565522 
2468.000000	97.565460 
2467.000000	97.565340 
2466.000000	97.565030 
2465.000000	97.564452 
2464.000000	97.563879 
2463.000000	97.563817 
2462.000000	97.564562 
2461.000000	97.565937 
2460.000000	97.567372 
2459.000000	97.568252 
2458.000000	97.568207 
2457.000000	97.567209 
2456.000000	97.565527 
2455.000000	97.563645 
2454.000000	97.562146 
2453.000000	97.561422 
2452.000000	97.561374 
2451.000000	97.561471 
2450.000000	97.561347 
2449.000000	97.561269 
2448.000000	97.561709 
2447.000000	97.562557 
2446.000000	97.563123 
2445.000000	97.562939 
2444.000000	97.562221 
2443.000000	97.561526 
2442.000000	97.561232 
2441.000000	97.561405 
2440.000000	97.561937 
2439.000000	97.562727 
2438.000000	97.563852 
2437.000000	97.565456 
2436.000000	97.567311 
2435.000000	97.568682 
2434.000000	97.568968 
2433.000000	97.568403 
2432.000000	97.567872 
2431.000000	97.567987 
2430.000000	97.568687 
2429.000000	97.569703 
2428.000000	97.570930 
2427.000000	97.572207 
2426.000000	97.573104 
2425.000000	97.573171 
2424.000000	97.572271 
2423.000000	97.570705 
2422.000000	97.569200 
2421.000000	97.568603 
2420.000000	97.569430 
2419.000000	97.571551 
2418.000000	97.574040 
2417.000000	97.576060 
2416.000000	97.577538 
2415.000000	97.578777 
2414.000000	97.579871 
2413.000000	97.580947 
2412.000000	97.582390 
2411.000000	97.584102 
2410.000000	97.585181 
2409.000000	97.585128 
2408.000000	97.584710 
2407.000000	97.584822 
2406.000000	97.585175 
2405.000000	97.584955 
2404.000000	97.584096 
2403.000000	97.583027 
2402.000000	97.581879 
2401.000000	97.580946 
2400.000000	97.581245 
2399.000000	97.583588 
2398.000000	97.587523 
2397.000000	97.591974 
2396.000000	97.596196 
2395.000000	97.599190 
2394.000000	97.599316 
2393.000000	97.596112 
2392.000000	97.591872 
2391.000000	97.589653 
2390.000000	97.589774 
2389.000000	97.589789 
2388.000000	97.587716 
2387.000000	97.583785 
2386.000000	97.579134 
2385.000000	97.574568 
2384.000000	97.571040 
2383.000000	97.569938 
2382.000000	97.572346 
2381.000000	97.578830 
2380.000000	97.590042 
2379.000000	97.605889 
2378.000000	97.622921 
2377.000000	97.634401 
2376.000000	97.635355 
2375.000000	97.626850 
2374.000000	97.614946 
2373.000000	97.604837 
2372.000000	97.597105 
2371.000000	97.590322 
2370.000000	97.584700 
2369.000000	97.581725 
2368.000000	97.581447 
2367.000000	97.581893 
2366.000000	97.581445 
2365.000000	97.580569 
2364.000000	97.580149 
2363.000000	97.579418 
2362.000000	97.578217 
2361.000000	97.578336 
2360.000000	97.579757 
2359.000000	97.579304 
2358.000000	97.574267 
2357.000000	97.566959 
2356.000000	97.562310 
2355.000000	97.561722 
2354.000000	97.564046 
2353.000000	97.566538 
2352.000000	97.568135 
2351.000000	97.568034 
2350.000000	97.564622 
2349.000000	97.558623 
2348.000000	97.553079 
2347.000000	97.551203 
2346.000000	97.550147 
2345.000000	97.545343 
2344.000000	97.538735 
2343.000000	97.535250 
2342.000000	97.540112 
2341.000000	97.552774 
2340.000000	97.567697 
2339.000000	97.577224 
2338.000000	97.578410 
2337.000000	97.574885 
2336.000000	97.571204 
2335.000000	97.568254 
2334.000000	97.563166 
2333.000000	97.554584 
2332.000000	97.544023 
2331.000000	97.535382 
2330.000000	97.527898 
2329.000000	97.519912 
2328.000000	97.507613 
2327.000000	97.493631 
2326.000000	97.480902 
2325.000000	97.473028 
2324.000000	97.471734 
2323.000000	97.476360 
2322.000000	97.482967 
2321.000000	97.485199 
2320.000000	97.481938 
2319.000000	97.478860 
2318.000000	97.480976 
2317.000000	97.487390 
2316.000000	97.492112 
2315.000000	97.492990 
2314.000000	97.490497 
2313.000000	97.487528 
2312.000000	97.483904 
2311.000000	97.480454 
2310.000000	97.476294 
2309.000000	97.471698 
2308.000000	97.466641 
2307.000000	97.464192 
2306.000000	97.465772 
2305.000000	97.469976 
2304.000000	97.472570 
2303.000000	97.472482 
2302.000000	97.471688 
2301.000000	97.473279 
2300.000000	97.477065 
2299.000000	97.481172 
2298.000000	97.482389 
2297.000000	97.479780 
2296.000000	97.474472 
2295.000000	97.470685 
2294.000000	97.471263 
2293.000000	97.476011 
2292.000000	97.481708 
2291.000000	97.486421 
2290.000000	97.490878 
2289.000000	97.496790 
2288.000000	97.504061 
2287.000000	97.510677 
2286.000000	97.514865 
2285.000000	97.516582 
2284.000000	97.517373 
2283.000000	97.518303 
2282.000000	97.519011 
2281.000000	97.518160 
2280.000000	97.515117 
2279.000000	97.510248 
2278.000000	97.504617 
2277.000000	97.499667 
2276.000000	97.496861 
2275.000000	97.496771 
2274.000000	97.498493 
2273.000000	97.500940 
2272.000000	97.504106 
2271.000000	97.508268 
2270.000000	97.512134 
2269.000000	97.513734 
2268.000000	97.513155 
2267.000000	97.512797 
2266.000000	97.514141 
2265.000000	97.515934 
2264.000000	97.516080 
2263.000000	97.513838 
2262.000000	97.509556 
2261.000000	97.503999 
2260.000000	97.498689 
2259.000000	97.495243 
2258.000000	97.493743 
2257.000000	97.492862 
2256.000000	97.492319 
2255.000000	97.493417 
2254.000000	97.496309 
2253.000000	97.498403 
2252.000000	97.497082 
2251.000000	97.492574 
2250.000000	97.486877 
2249.000000	97.481276 
2248.000000	97.476289 
2247.000000	97.472956 
2246.000000	97.472100 
2245.000000	97.472611 
2244.000000	97.472086 
2243.000000	97.469552 
2242.000000	97.466262 
2241.000000	97.463869 
2240.000000	97.462781 
2239.000000	97.462468 
2238.000000	97.462349 
2237.000000	97.462091 
2236.000000	97.461599 
2235.000000	97.460960 
2234.000000	97.460162 
2233.000000	97.458933 
2232.000000	97.457144 
2231.000000	97.455152 
2230.000000	97.453314 
2229.000000	97.451416 
2228.000000	97.449123 
2227.000000	97.446743 
2226.000000	97.444942 
2225.000000	97.443824 
2224.000000	97.442857 
2223.000000	97.441544 
2222.000000	97.439927 
2221.000000	97.438271 
2220.000000	97.436676 
2219.000000	97.435086 
2218.000000	97.433495 
2217.000000	97.431943 
2216.000000	97.430429 
2215.000000	97.428900 
2214.000000	97.427325 
2213.000000	97.425734 
2212.000000	97.424185 
2211.000000	97.422724 
2210.000000	97.421352 
2209.000000	97.420039 
2208.000000	97.418744 
2207.000000	97.417435 
2206.000000	97.416099 
2205.000000	97.414727 
2204.000000	97.413325 
2203.000000	97.411949 
2202.000000	97.410735 
2201.000000	97.409734 
2200.000000	97.408672 
2199.000000	97.407062 
2198.000000	97.404621 
2197.000000	97.401712 
2196.000000	97.399123 
2195.000000	97.397254 
2194.000000	97.395712 
2193.000000	97.393920 
2192.000000	97.392030 
2191.000000	97.390623 
2190.000000	97.389697 
2189.000000	97.388703 
2188.000000	97.387616 
2187.000000	97.386981 
2186.000000	97.386462 
2185.000000	97.384454 
2184.000000	97.380342 
2183.000000	97.376473 
2182.000000	97.376076 
2181.000000	97.379274 
2180.000000	97.382404 
2179.000000	97.381989 
2178.000000	97.378250 
2177.000000	97.374123 
2176.000000	97.371971 
2175.000000	97.372063 
2174.000000	97.373743 
2173.000000	97.376669 
2172.000000	97.380874 
2171.000000	97.386059 
2170.000000	97.390689 
2169.000000	97.392046 
2168.000000	97.388396 
2167.000000	97.381588 
2166.000000	97.376178 
2165.000000	97.374345 
2164.000000	97.373085 
2163.000000	97.368487 
2162.000000	97.362101 
2161.000000	97.359931 
2160.000000	97.365028 
2159.000000	97.374396 
2158.000000	97.383588 
2157.000000	97.391388 
2156.000000	97.397967 
2155.000000	97.402279 
2154.000000	97.404307 
2153.000000	97.407444 
2152.000000	97.415306 
2151.000000	97.426616 
2150.000000	97.435618 
2149.000000	97.438327 
2148.000000	97.436665 
2147.000000	97.435582 
2146.000000	97.437386 
2145.000000	97.440706 
2144.000000	97.444260 
2143.000000	97.449053 
2142.000000	97.455998 
2141.000000	97.463369 
2140.000000	97.468535 
2139.000000	97.471754 
2138.000000	97.476345 
2137.000000	97.484491 
2136.000000	97.493838 
2135.000000	97.499359 
2134.000000	97.498398 
2133.000000	97.493123 
2132.000000	97.488651 
2131.000000	97.488622 
2130.000000	97.492935 
2129.000000	97.499081 
2128.000000	97.504670 
2127.000000	97.508812 
2126.000000	97.511735 
2125.000000	97.513908 
2124.000000	97.515621 
2123.000000	97.516886 
2122.000000	97.517540 
2121.000000	97.517512 
2120.000000	97.517004 
2119.000000	97.516394 
2118.000000	97.516084 
2117.000000	97.516541 
2116.000000	97.518066 
2115.000000	97.520152 
2114.000000	97.521356 
2113.000000	97.520567 
2112.000000	97.518559 
2111.000000	97.517620 
2110.000000	97.519270 
2109.000000	97.523023 
2108.000000	97.527269 
2107.000000	97.530737 
2106.000000	97.532780 
2105.000000	97.533273 
2104.000000	97.532929 
2103.000000	97.532906 
2102.000000	97.533130 
2101.000000	97.531838 
2100.000000	97.528002 
2099.000000	97.523711 
2098.000000	97.522532 
2097.000000	97.525551 
2096.000000	97.530460 
2095.000000	97.534238 
2094.000000	97.536002 
2093.000000	97.536384 
2092.000000	97.535739 
2091.000000	97.534300 
2090.000000	97.533119 
2089.000000	97.533458 
2088.000000	97.535335 
2087.000000	97.537443 
2086.000000	97.538483 
2085.000000	97.538016 
2084.000000	97.536359 
2083.000000	97.534316 
2082.000000	97.532874 
2081.000000	97.532682 
2080.000000	97.533840 
2079.000000	97.536230 
2078.000000	97.539474 
2077.000000	97.542378 
2076.000000	97.543344 
2075.000000	97.541949 
2074.000000	97.539248 
2073.000000	97.535754 
2072.000000	97.530459 
2071.000000	97.523010 
2070.000000	97.515583 
2069.000000	97.510922 
2068.000000	97.509339 
2067.000000	97.509005 
2066.000000	97.508387 
2065.000000	97.507074 
2064.000000	97.504699 
2063.000000	97.501097 
2062.000000	97.497667 
2061.000000	97.496617 
2060.000000	97.498496 
2059.000000	97.501855 
2058.000000	97.504717 
2057.000000	97.505815 
2056.000000	97.504598 
2055.000000	97.501062 
2054.000000	97.496355 
2053.000000	97.492431 
2052.000000	97.490350 
2051.000000	97.489224 
2050.000000	97.487315 
2049.000000	97.484079 
2048.000000	97.480621 
2047.000000	97.478138 
2046.000000	97.476665 
2045.000000	97.475585 
2044.000000	97.474644 
2043.000000	97.473996 
2042.000000	97.473618 
2041.000000	97.473252 
2040.000000	97.472855 
2039.000000	97.472745 
2038.000000	97.473038 
2037.000000	97.473187 
2036.000000	97.472378 
2035.000000	97.470387 
2034.000000	97.467885 
2033.000000	97.465896 
2032.000000	97.464928 
2031.000000	97.464598 
2030.000000	97.463969 
2029.000000	97.462302 
2028.000000	97.459559 
2027.000000	97.456296 
2026.000000	97.453220 
2025.000000	97.450928 
2024.000000	97.449905 
2023.000000	97.450394 
2022.000000	97.452080 
2021.000000	97.453850 
2020.000000	97.454293 
2019.000000	97.452666 
2018.000000	97.449147 
2017.000000	97.444854 
2016.000000	97.441312 
2015.000000	97.439430 
2014.000000	97.438915 
2013.000000	97.438379 
2012.000000	97.436843 
2011.000000	97.435149 
2010.000000	97.435014 
2009.000000	97.436772 
2008.000000	97.438849 
2007.000000	97.439703 
2006.000000	97.439530 
2005.000000	97.439362 
2004.000000	97.439417 
2003.000000	97.439290 
2002.000000	97.439239 
2001.000000	97.439965 
2000.000000	97.441089 
1999.000000	97.440996 
1998.000000	97.438662 
1997.000000	97.434882 
1996.000000	97.431493 
1995.000000	97.429661 
1994.000000	97.429377 
1993.000000	97.429994 
1992.000000	97.430661 
1991.000000	97.430769 
1990.000000	97.430500 
1989.000000	97.430742 
1988.000000	97.432029 
1987.000000	97.433657 
1986.000000	97.434291 
1985.000000	97.433484 
1984.000000	97.432154 
1983.000000	97.431406 
1982.000000	97.431350 
1981.000000	97.431293 
1980.000000	97.430841 
1979.000000	97.430317 
1978.000000	97.429959 
1977.000000	97.429363 
1976.000000	97.428169 
1975.000000	97.427139 
1974.000000	97.427938 
1973.000000	97.431583 
1972.000000	97.437195 
1971.000000	97.442620 
1970.000000	97.446110 
1969.000000	97.447059 
1968.000000	97.445819 
1967.000000	97.443574 
1966.000000	97.442210 
1965.000000	97.443174 
1964.000000	97.446443 
1963.000000	97.450853 
1962.000000	97.455559 
1961.000000	97.460365 
1960.000000	97.464526 
1959.000000	97.466593 
1958.000000	97.466270 
1957.000000	97.465581 
1956.000000	97.466889 
1955.000000	97.470094 
1954.000000	97.473103 
1953.000000	97.474823 
1952.000000	97.476138 
1951.000000	97.477843 
1950.000000	97.479471 
1949.000000	97.480750 
1948.000000	97.482639 
1947.000000	97.485896 
1946.000000	97.489604 
1945.000000	97.492165 
1944.000000	97.493105 
1943.000000	97.493066 
1942.000000	97.492720 
1941.000000	97.492316 
1940.000000	97.491988 
1939.000000	97.491881 
1938.000000	97.492239 
1937.000000	97.493752 
1936.000000	97.497051 
1935.000000	97.501454 
1934.000000	97.505072 
1933.000000	97.506977 
1932.000000	97.508259 
1931.000000	97.510453 
1930.000000	97.513687 
1929.000000	97.516791 
1928.000000	97.519087 
1927.000000	97.520882 
1926.000000	97.522388 
1925.000000	97.523371 
1924.000000	97.523842 
1923.000000	97.524413 
1922.000000	97.525381 
1921.000000	97.526225 
1920.000000	97.526615 
1919.000000	97.526881 
1918.000000	97.527211 
1917.000000	97.527131 
1916.000000	97.526400 
1915.000000	97.525850 
1914.000000	97.526361 
1913.000000	97.527699 
1912.000000	97.528734 
1911.000000	97.528769 
1910.000000	97.528160 
1909.000000	97.527761 
1908.000000	97.528062 
1907.000000	97.528849 
1906.000000	97.529496 
1905.000000	97.529523 
1904.000000	97.528953 
1903.000000	97.528244 
1902.000000	97.527865 
1901.000000	97.527884 
1900.000000	97.528109 
1899.000000	97.528349 
1898.000000	97.528530 
1897.000000	97.528624 
1896.000000	97.528575 
1895.000000	97.528378 
1894.000000	97.528095 
1893.000000	97.527792 
1892.000000	97.527514 
1891.000000	97.527324 
1890.000000	97.527275 
1889.000000	97.527353 
1888.000000	97.527511 
1887.000000	97.527746 
1886.000000	97.528049 
1885.000000	97.528318 
1884.000000	97.528440 
1883.000000	97.528439 
1882.000000	97.528510 
1881.000000	97.528837 
1880.000000	97.529419 
1879.000000	97.530056 
1878.000000	97.530545 
1877.000000	97.530929 
1876.000000	97.531496 
1875.000000	97.532467 
1874.000000	97.533788 
1873.000000	97.535191 
1872.000000	97.536445 
1871.000000	97.537445 
1870.000000	97.538107 
1869.000000	97.538458 
1868.000000	97.538882 
1867.000000	97.539893 
1866.000000	97.541496 
1865.000000	97.543030 
1864.000000	97.543980 
1863.000000	97.544745 
1862.000000	97.546141 
1861.000000	97.548257 
1860.000000	97.550405 
1859.000000	97.552297 
1858.000000	97.554497 
1857.000000	97.557457 
1856.000000	97.560870 
1855.000000	97.564010 
1854.000000	97.566277 
1853.000000	97.567419 
1852.000000	97.567937 
1851.000000	97.568971 
1850.000000	97.571103 
1849.000000	97.573831 
1848.000000	97.576226 
1847.000000	97.578062 
1846.000000	97.579792 
1845.000000	97.581700 
1844.000000	97.583735 
1843.000000	97.586001 
1842.000000	97.588634 
1841.000000	97.591387 
1840.000000	97.594196 
1839.000000	97.597363 
1838.000000	97.600804 
1837.000000	97.603469 
1836.000000	97.604366 
1835.000000	97.604102 
1834.000000	97.604165 
1833.000000	97.605022 
1832.000000	97.606155 
1831.000000	97.606886 
1830.000000	97.606958 
1829.000000	97.607127 
1828.000000	97.608412 
1827.000000	97.611141 
1826.000000	97.614757 
1825.000000	97.618259 
1824.000000	97.620838 
1823.000000	97.622349 
1822.000000	97.623053 
1821.000000	97.622893 
1820.000000	97.621695 
1819.000000	97.620069 
1818.000000	97.619725 
1817.000000	97.621570 
1816.000000	97.624102 
1815.000000	97.625652 
1814.000000	97.626547 
1813.000000	97.628029 
1812.000000	97.629666 
1811.000000	97.629406 
1810.000000	97.627236 
1809.000000	97.625394 
1808.000000	97.624984 
1807.000000	97.625555 
1806.000000	97.626957 
1805.000000	97.629239 
1804.000000	97.631219 
1803.000000	97.631392 
1802.000000	97.629724 
1801.000000	97.628053 
1800.000000	97.627621 
1799.000000	97.627651 
1798.000000	97.627462 
1797.000000	97.626794 
1796.000000	97.625381 
1795.000000	97.623921 
1794.000000	97.623889 
1793.000000	97.625790 
1792.000000	97.627953 
1791.000000	97.629096 
1790.000000	97.630869 
1789.000000	97.634843 
1788.000000	97.640066 
1787.000000	97.644202 
1786.000000	97.645973 
1785.000000	97.645912 
1784.000000	97.645215 
1783.000000	97.645029 
1782.000000	97.645629 
1781.000000	97.646727 
1780.000000	97.648239 
1779.000000	97.650283 
1778.000000	97.653310 
1777.000000	97.657039 
1776.000000	97.660423 
1775.000000	97.662612 
1774.000000	97.663587 
1773.000000	97.664406 
1772.000000	97.666088 
1771.000000	97.668015 
1770.000000	97.669273 
1769.000000	97.669988 
1768.000000	97.670791 
1767.000000	97.672137 
1766.000000	97.674085 
1765.000000	97.676666 
1764.000000	97.679756 
1763.000000	97.682650 
1762.000000	97.684536 
1761.000000	97.685701 
1760.000000	97.687069 
1759.000000	97.688825 
1758.000000	97.690449 
1757.000000	97.691586 
1756.000000	97.692824 
1755.000000	97.694501 
1754.000000	97.695939 
1753.000000	97.696491 
1752.000000	97.696578 
1751.000000	97.697450 
1750.000000	97.699596 
1749.000000	97.702174 
1748.000000	97.704263 
1747.000000	97.705862 
1746.000000	97.706969 
1745.000000	97.707553 
1744.000000	97.707989 
1743.000000	97.708524 
1742.000000	97.709110 
1741.000000	97.710213 
1740.000000	97.712683 
1739.000000	97.716416 
1738.000000	97.720033 
1737.000000	97.722406 
1736.000000	97.723263 
1735.000000	97.722613 
1734.000000	97.720976 
1733.000000	97.719348 
1732.000000	97.718899 
1731.000000	97.720262 
1730.000000	97.722910 
1729.000000	97.725028 
1728.000000	97.725672 
1727.000000	97.725660 
1726.000000	97.725873 
1725.000000	97.726626 
1724.000000	97.727606 
1723.000000	97.728473 
1722.000000	97.729633 
1721.000000	97.731181 
1720.000000	97.732562 
1719.000000	97.732932 
1718.000000	97.732026 
1717.000000	97.730491 
1716.000000	97.727453 
1715.000000	97.722994 
1714.000000	97.719794 
1713.000000	97.718876 
1712.000000	97.718258 
1711.000000	97.716999 
1710.000000	97.716080 
1709.000000	97.715917 
1708.000000	97.715829 
1707.000000	97.715655 
1706.000000	97.715973 
1705.000000	97.715982 
1704.000000	97.713131 
1703.000000	97.706690 
1702.000000	97.698638 
1701.000000	97.692917 
1700.000000	97.691186 
1699.000000	97.689605 
1698.000000	97.687844 
1697.000000	97.687323 
1696.000000	97.687000 
1695.000000	97.685756 
1694.000000	97.684080 
1693.000000	97.682691 
1692.000000	97.681362 
1691.000000	97.679618 
1690.000000	97.677313 
1689.000000	97.674502 
1688.000000	97.671509 
1687.000000	97.668540 
1686.000000	97.666012 
1685.000000	97.664637 
1684.000000	97.663376 
1683.000000	97.661178 
1682.000000	97.658778 
1681.000000	97.656386 
1680.000000	97.654337 
1679.000000	97.652688 
1678.000000	97.650964 
1677.000000	97.648814 
1676.000000	97.646453 
1675.000000	97.644219 
1674.000000	97.641642 
1673.000000	97.638515 
1672.000000	97.635450 
1671.000000	97.633167 
1670.000000	97.631585 
1669.000000	97.629711 
1668.000000	97.627580 
1667.000000	97.625947 
1666.000000	97.624555 
1665.000000	97.623000 
1664.000000	97.621617 
1663.000000	97.620939 
1662.000000	97.620260 
1661.000000	97.618271 
1660.000000	97.615658 
1659.000000	97.614081 
1658.000000	97.613408 
1657.000000	97.612282 
1656.000000	97.610069 
1655.000000	97.607761 
1654.000000	97.606460 
1653.000000	97.605248 
1652.000000	97.601029 
1651.000000	97.596298 
1650.000000	97.592112 
1649.000000	97.589467 
1648.000000	97.588412 
1647.000000	97.587657 
1646.000000	97.586117 
1645.000000	97.584450 
1644.000000	97.583149 
1643.000000	97.581947 
1642.000000	97.580982 
1641.000000	97.580183 
1640.000000	97.580028 
1639.000000	97.580065 
1638.000000	97.579022 
1637.000000	97.576266 
1636.000000	97.572806 
1635.000000	97.571608 
1634.000000	97.573176 
1633.000000	97.574939 
1632.000000	97.574650 
1631.000000	97.573576 
1630.000000	97.573603 
1629.000000	97.574485 
1628.000000	97.574884 
1627.000000	97.575430 
1626.000000	97.576844 
1625.000000	97.578286 
1624.000000	97.579563 
1623.000000	97.581659 
1622.000000	97.584144 
1621.000000	97.584700 
1620.000000	97.583390 
1619.000000	97.582770 
1618.000000	97.584766 
1617.000000	97.586670 
1616.000000	97.584670 
1615.000000	97.581275 
1614.000000	97.580172 
1613.000000	97.580556 
1612.000000	97.580810 
1611.000000	97.581268 
1610.000000	97.582304 
1609.000000	97.583417 
1608.000000	97.585547 
1607.000000	97.590089 
1606.000000	97.594886 
1605.000000	97.596978 
1604.000000	97.598091 
1603.000000	97.601192 
1602.000000	97.605691 
1601.000000	97.609196 
1600.000000	97.611858 
1599.000000	97.615367 
1598.000000	97.619264 
1597.000000	97.622240 
1596.000000	97.624980 
1595.000000	97.629172 
1594.000000	97.634385 
1593.000000	97.638319 
1592.000000	97.640441 
1591.000000	97.642649 
1590.000000	97.646020 
1589.000000	97.649486 
1588.000000	97.652536 
1587.000000	97.656097 
1586.000000	97.660121 
1585.000000	97.662763 
1584.000000	97.664290 
1583.000000	97.666962 
1582.000000	97.670540 
1581.000000	97.673289 
1580.000000	97.676128 
1579.000000	97.681464 
1578.000000	97.689293 
1577.000000	97.697193 
1576.000000	97.702606 
1575.000000	97.705593 
1574.000000	97.707130 
1573.000000	97.707705 
1572.000000	97.709274 
1571.000000	97.714085 
1570.000000	97.719681 
1569.000000	97.719708 
1568.000000	97.715742 
1567.000000	97.713699 
1566.000000	97.713967 
1565.000000	97.714310 
1564.000000	97.715547 
1563.000000	97.716869 
1562.000000	97.716124 
1561.000000	97.708786 
1560.000000	97.704820 
1559.000000	97.709521 
1558.000000	97.711767 
1557.000000	97.710969 
1556.000000	97.710902 
1555.000000	97.711763 
1554.000000	97.712286 
1553.000000	97.711781 
1552.000000	97.710719 
1551.000000	97.706668 
1550.000000	97.698853 
1549.000000	97.691384 
1548.000000	97.689209 
1547.000000	97.692269 
1546.000000	97.695233 
1545.000000	97.693320 
1544.000000	97.687306 
1543.000000	97.681206 
1542.000000	97.678229 
1541.000000	97.678453 
1540.000000	97.674183 
1539.000000	97.663114 
1538.000000	97.651046 
1537.000000	97.639533 
1536.000000	97.628057 
1535.000000	97.618778 
1534.000000	97.613199 
1533.000000	97.609575 
1532.000000	97.605102 
1531.000000	97.599271 
1530.000000	97.593439 
1529.000000	97.587948 
1528.000000	97.581070 
1527.000000	97.572123 
1526.000000	97.562709 
1525.000000	97.554770 
1524.000000	97.548642 
1523.000000	97.543504 
1522.000000	97.537879 
1521.000000	97.529530 
1520.000000	97.518013 
1519.000000	97.505197 
1518.000000	97.492585 
1517.000000	97.481028 
1516.000000	97.471285 
1515.000000	97.464134 
1514.000000	97.459221 
1513.000000	97.455062 
1512.000000	97.449610 
1511.000000	97.440971 
1510.000000	97.429575 
1509.000000	97.417131 
1508.000000	97.406214 
1507.000000	97.397497 
1506.000000	97.390621 
1505.000000	97.384175 
1504.000000	97.376764 
1503.000000	97.368257 
1502.000000	97.359309 
1501.000000	97.350498 
1500.000000	97.342206 
1499.000000	97.333894 
1498.000000	97.324360 
1497.000000	97.313784 
1496.000000	97.303696 
1495.000000	97.295212 
1494.000000	97.288549 
1493.000000	97.283516 
1492.000000	97.279594 
1491.000000	97.275558 
1490.000000	97.269665 
1489.000000	97.261640 
1488.000000	97.252017 
1487.000000	97.241299 
1486.000000	97.230969 
1485.000000	97.220598 
1484.000000	97.209618 
1483.000000	97.199775 
1482.000000	97.192621 
1481.000000	97.187796 
1480.000000	97.183046 
1479.000000	97.177188 
1478.000000	97.170774 
1477.000000	97.164190 
1476.000000	97.155729 
1475.000000	97.143710 
1474.000000	97.129734 
1473.000000	97.118066 
1472.000000	97.111682 
1471.000000	97.108671 
1470.000000	97.106069 
1469.000000	97.102573 
1468.000000	97.097345 
1467.000000	97.090126 
1466.000000	97.082885 
1465.000000	97.078083 
1464.000000	97.075731 
1463.000000	97.072105 
1462.000000	97.064822 
1461.000000	97.056094 
1460.000000	97.049653 
1459.000000	97.045539 
1458.000000	97.037574 
1457.000000	97.023196 
1456.000000	97.011859 
1455.000000	97.007225 
1454.000000	97.003118 
1453.000000	96.998459 
1452.000000	96.996720 
1451.000000	96.999154 
1450.000000	97.004249 
1449.000000	97.010987 
1448.000000	97.018008 
1447.000000	97.023431 
1446.000000	97.026312 
1445.000000	97.028013 
1444.000000	97.030551 
1443.000000	97.032174 
1442.000000	97.031056 
1441.000000	97.028633 
1440.000000	97.027510 
1439.000000	97.026549 
1438.000000	97.022685 
1437.000000	97.017585 
1436.000000	97.017202 
1435.000000	97.021447 
1434.000000	97.025797 
1433.000000	97.029368 
1432.000000	97.033486 
1431.000000	97.038360 
1430.000000	97.043196 
1429.000000	97.049268 
1428.000000	97.057641 
1427.000000	97.067461 
1426.000000	97.077036 
1425.000000	97.085866 
1424.000000	97.095507 
1423.000000	97.103792 
1422.000000	97.107292 
1421.000000	97.107928 
1420.000000	97.111870 
1419.000000	97.118436 
1418.000000	97.120394 
1417.000000	97.119984 
1416.000000	97.125568 
1415.000000	97.138024 
1414.000000	97.150753 
1413.000000	97.158668 
1412.000000	97.164133 
1411.000000	97.171145 
1410.000000	97.179341 
1409.000000	97.187483 
1408.000000	97.195854 
1407.000000	97.204904 
1406.000000	97.214129 
1405.000000	97.223868 
1404.000000	97.236285 
1403.000000	97.249637 
1402.000000	97.259916 
1401.000000	97.268304 
1400.000000	97.280422 
1399.000000	97.298184 
1398.000000	97.316243 
1397.000000	97.329893 
1396.000000	97.340502 
1395.000000	97.352142 
1394.000000	97.365702 
1393.000000	97.380212 
1392.000000	97.396711 
1391.000000	97.414958 
1390.000000	97.432073 
1389.000000	97.445262 
1388.000000	97.453821 
1387.000000	97.459098 
1386.000000	97.463444 
1385.000000	97.469646 
1384.000000	97.480071 
1383.000000	97.494199 
1382.000000	97.508719 
1381.000000	97.520872 
1380.000000	97.530288 
1379.000000	97.538737 
1378.000000	97.548472 
1377.000000	97.560344 
1376.000000	97.573008 
1375.000000	97.584121 
1374.000000	97.592693 
1373.000000	97.601100 
1372.000000	97.612135 
1371.000000	97.625705 
1370.000000	97.639152 
1369.000000	97.649682 
1368.000000	97.658094 
1367.000000	97.667057 
1366.000000	97.677492 
1365.000000	97.688459 
1364.000000	97.697700 
1363.000000	97.702653 
1362.000000	97.703526 
1361.000000	97.704292 
1360.000000	97.709043 
1359.000000	97.718974 
1358.000000	97.732279 
1357.000000	97.745784 
1356.000000	97.757013 
1355.000000	97.765027 
1354.000000	97.770378 
1353.000000	97.775393 
1352.000000	97.781464 
1351.000000	97.788594 
1350.000000	97.796198 
1349.000000	97.802700 
1348.000000	97.807467 
1347.000000	97.811333 
1346.000000	97.815670 
1345.000000	97.821170 
1344.000000	97.827559 
1343.000000	97.834102 
1342.000000	97.839719 
1341.000000	97.842759 
1340.000000	97.841883 
1339.000000	97.837929 
1338.000000	97.833462 
1337.000000	97.830569 
1336.000000	97.829717 
1335.000000	97.830185 
1334.000000	97.831251 
1333.000000	97.832867 
1332.000000	97.834932 
1331.000000	97.836963 
1330.000000	97.838419 
1329.000000	97.839290 
1328.000000	97.840048 
1327.000000	97.841476 
1326.000000	97.843659 
1325.000000	97.845151 
1324.000000	97.844620 
1323.000000	97.841795 
1322.000000	97.837432 
1321.000000	97.833384 
1320.000000	97.832081 
1319.000000	97.834482 
1318.000000	97.838707 
1317.000000	97.841822 
1316.000000	97.842293 
1315.000000	97.840105 
1314.000000	97.835966 
1313.000000	97.831853 
1312.000000	97.830529 
1311.000000	97.832750 
1310.000000	97.835811 
1309.000000	97.836759 
1308.000000	97.835870 
1307.000000	97.835917 
1306.000000	97.838327 
1305.000000	97.841700 
1304.000000	97.844442 
1303.000000	97.846045 
1302.000000	97.846206 
1301.000000	97.844724 
1300.000000	97.842578 
1299.000000	97.841342 
1298.000000	97.841085 
1297.000000	97.840178 
1296.000000	97.837547 
1295.000000	97.834359 
1294.000000	97.832860 
1293.000000	97.834363 
1292.000000	97.838305 
1291.000000	97.842395 
1290.000000	97.844122 
1289.000000	97.843021 
1288.000000	97.841132 
1287.000000	97.840415 
1286.000000	97.840245 
1285.000000	97.838929 
1284.000000	97.836932 
1283.000000	97.836295 
1282.000000	97.837238 
1281.000000	97.837507 
1280.000000	97.835754 
1279.000000	97.833700 
1278.000000	97.833848 
1277.000000	97.836352 
1276.000000	97.839085 
1275.000000	97.840255 
1274.000000	97.839990 
1273.000000	97.839893 
1272.000000	97.841508 
1271.000000	97.844626 
1270.000000	97.846970 
1269.000000	97.846271 
1268.000000	97.842779 
1267.000000	97.838549 
1266.000000	97.834396 
1265.000000	97.829602 
1264.000000	97.824723 
1263.000000	97.822229 
1262.000000	97.823325 
1261.000000	97.825765 
1260.000000	97.826770 
1259.000000	97.826957 
1258.000000	97.829049 
1257.000000	97.833230 
1256.000000	97.835907 
1255.000000	97.834078 
1254.000000	97.829658 
1253.000000	97.827375 
1252.000000	97.828269 
1251.000000	97.827683 
1250.000000	97.821242 
1249.000000	97.810988 
1248.000000	97.803044 
1247.000000	97.799575 
1246.000000	97.796186 
1245.000000	97.788425 
1244.000000	97.777793 
1243.000000	97.769379 
1242.000000	97.765724 
1241.000000	97.765197 
1240.000000	97.764685 
1239.000000	97.761357 
1238.000000	97.753072 
1237.000000	97.739714 
1236.000000	97.723823 
1235.000000	97.708292 
1234.000000	97.693824 
1233.000000	97.679704 
1232.000000	97.665574 
1231.000000	97.650582 
1230.000000	97.632496 
1229.000000	97.610251 
1228.000000	97.586022 
1227.000000	97.562045 
1226.000000	97.536318 
1225.000000	97.504408 
1224.000000	97.465124 
1223.000000	97.421524 
1222.000000	97.376254 
1221.000000	97.328628 
1220.000000	97.277011 
1219.000000	97.221644 
1218.000000	97.163944 
1217.000000	97.104683 
1216.000000	97.043521 
1215.000000	96.979220 
1214.000000	96.910633 
1213.000000	96.839052 
1212.000000	96.768604 
1211.000000	96.701709 
1210.000000	96.635111 
1209.000000	96.563787 
1208.000000	96.488290 
1207.000000	96.414441 
1206.000000	96.345363 
1205.000000	96.277501 
1204.000000	96.205689 
1203.000000	96.129033 
1202.000000	96.050833 
1201.000000	95.975342 
1200.000000	95.905517 
1199.000000	95.841395 
1198.000000	95.779410 
1197.000000	95.715283 
1196.000000	95.647986 
1195.000000	95.579331 
1194.000000	95.510287 
1193.000000	95.439962 
1192.000000	95.367826 
1191.000000	95.294202 
1190.000000	95.218736 
1189.000000	95.140989 
1188.000000	95.062340 
1187.000000	94.984690 
1186.000000	94.907567 
1185.000000	94.829009 
1184.000000	94.748473 
1183.000000	94.666143 
1182.000000	94.580686 
1181.000000	94.490908 
1180.000000	94.398358 
1179.000000	94.304539 
1178.000000	94.206759 
1177.000000	94.101153 
1176.000000	93.988861 
1175.000000	93.874750 
1174.000000	93.760931 
1173.000000	93.646476 
1172.000000	93.532729 
1171.000000	93.422859 
1170.000000	93.316259 
1169.000000	93.209812 
1168.000000	93.105314 
1167.000000	93.009505 
1166.000000	92.926463 
1165.000000	92.857178 
1164.000000	92.807687 
1163.000000	92.789204 
1162.000000	92.806076 
1161.000000	92.848127 
1160.000000	92.896888 
1159.000000	92.935341 
1158.000000	92.951209 
1157.000000	92.937570 
1156.000000	92.894298 
1155.000000	92.826420 
1154.000000	92.739710 
1153.000000	92.640083 
1152.000000	92.536125 
1151.000000	92.436465 
1150.000000	92.343335 
1149.000000	92.253358 
1148.000000	92.164926 
1147.000000	92.079158 
1146.000000	91.993589 
1145.000000	91.902205 
1144.000000	91.803772 
1143.000000	91.704062 
1142.000000	91.607676 
1141.000000	91.513316 
1140.000000	91.418967 
1139.000000	91.325620 
1138.000000	91.233716 
1137.000000	91.141622 
1136.000000	91.049636 
1135.000000	90.959995 
1134.000000	90.871419 
1133.000000	90.779582 
1132.000000	90.684440 
1131.000000	90.590793 
1130.000000	90.499950 
1129.000000	90.407241 
1128.000000	90.309646 
1127.000000	90.209542 
1126.000000	90.109129 
1125.000000	90.007580 
1124.000000	89.905524 
1123.000000	89.805878 
1122.000000	89.708346 
1121.000000	89.609519 
1120.000000	89.509706 
1119.000000	89.412780 
1118.000000	89.318441 
1117.000000	89.222670 
1116.000000	89.126680 
1115.000000	89.036643 
1114.000000	88.953072 
1113.000000	88.869523 
1112.000000	88.783532 
1111.000000	88.699601 
1110.000000	88.619456 
1109.000000	88.538973 
1108.000000	88.456492 
1107.000000	88.374948 
1106.000000	88.294567 
1105.000000	88.212612 
1104.000000	88.131064 
1103.000000	88.055020 
1102.000000	87.981813 
1101.000000	87.903198 
1100.000000	87.818663 
1099.000000	87.736984 
1098.000000	87.663720 
1097.000000	87.596133 
1096.000000	87.532064 
1095.000000	87.472296 
1094.000000	87.413307 
1093.000000	87.349226 
1092.000000	87.283219 
1091.000000	87.226008 
1090.000000	87.181176 
1089.000000	87.142255 
1088.000000	87.104886 
1087.000000	87.070369 
1086.000000	87.036679 
1085.000000	86.998823 
1084.000000	86.959703 
1083.000000	86.928039 
1082.000000	86.903522 
1081.000000	86.876471 
1080.000000	86.844308 
1079.000000	86.815629 
1078.000000	86.795195 
1077.000000	86.776954 
1076.000000	86.754631 
1075.000000	86.727106 
1074.000000	86.691017 
1073.000000	86.640058 
1072.000000	86.573699 
1071.000000	86.495044 
1070.000000	86.398870 
1069.000000	86.274827 
1068.000000	86.124786 
1067.000000	85.964564 
1066.000000	85.805718 
1065.000000	85.647909 
1064.000000	85.491573 
1063.000000	85.342773 
1062.000000	85.200385 
1061.000000	85.052911 
1060.000000	84.894781 
1059.000000	84.734223 
1058.000000	84.579771 
1057.000000	84.430199 
1056.000000	84.282311 
1055.000000	84.136998 
1054.000000	83.992899 
1053.000000	83.845292 
1052.000000	83.695824 
1051.000000	83.551903 
1050.000000	83.412384 
1049.000000	83.266842 
1048.000000	83.112271 
1047.000000	82.956306 
1046.000000	82.802191 
1045.000000	82.645226 
1044.000000	82.484989 
1043.000000	82.326711 
1042.000000	82.169483 
1041.000000	82.007265 
1040.000000	81.843170 
1039.000000	81.688646 
1038.000000	81.547131 
1037.000000	81.413105 
1036.000000	81.288243 
1035.000000	81.182428 
1034.000000	81.096755 
1033.000000	81.021359 
1032.000000	80.951856 
1031.000000	80.892196 
1030.000000	80.840210 
1029.000000	80.788052 
1028.000000	80.739294 
1027.000000	80.707712 
1026.000000	80.695491 
1025.000000	80.688862 
1024.000000	80.678084 
1023.000000	80.665494 
1022.000000	80.651617 
1021.000000	80.631029 
1020.000000	80.605465 
1019.000000	80.584391 
1018.000000	80.569015 
1017.000000	80.551249 
1016.000000	80.530625 
1015.000000	80.515881 
1014.000000	80.507591 
1013.000000	80.496319 
1012.000000	80.480803 
1011.000000	80.471241 
1010.000000	80.471611 
1009.000000	80.475423 
1008.000000	80.481980 
1007.000000	80.500337 
1006.000000	80.533862 
1005.000000	80.576473 
1004.000000	80.626225 
1003.000000	80.686401 
1002.000000	80.751336 
1001.000000	80.808684 
1000.000000	80.859070 
999.000000	 80.917021 
998.000000	 80.989308 
997.000000	 81.068106 
996.000000	 81.147607 
995.000000	 81.231039 
994.000000	 81.318650 
993.000000	 81.405308 
992.000000	 81.493045 
991.000000	 81.590205 
990.000000	 81.695735 
989.000000	 81.800033 
988.000000	 81.903269 
987.000000	 82.016464 
986.000000	 82.142480 
985.000000	 82.272927 
984.000000	 82.406203 
983.000000	 82.551091 
982.000000	 82.709077 
981.000000	 82.870120 
980.000000	 83.029914 
979.000000	 83.195130 
978.000000	 83.367657 
977.000000	 83.540116 
976.000000	 83.711417 
975.000000	 83.890694 
974.000000	 84.080490 
973.000000	 84.270926 
972.000000	 84.456036 
971.000000	 84.642286 
970.000000	 84.835583 
969.000000	 85.032388 
968.000000	 85.228232 
967.000000	 85.423128 
966.000000	 85.614836 
965.000000	 85.798636 
964.000000	 85.977234 
963.000000	 86.159403 
962.000000	 86.345651 
961.000000	 86.526409 
960.000000	 86.696895 
959.000000	 86.862215 
958.000000	 87.025609 
957.000000	 87.183495 
956.000000	 87.335149 
955.000000	 87.485843 
954.000000	 87.637008 
953.000000	 87.783504 
952.000000	 87.923052 
951.000000	 88.058250 
950.000000	 88.187829 
949.000000	 88.306853 
948.000000	 88.417218 
947.000000	 88.526947 
946.000000	 88.637019 
945.000000	 88.739699 
944.000000	 88.831816 
943.000000	 88.919087 
942.000000	 89.005813 
941.000000	 89.091233 
940.000000	 89.177700 
939.000000	 89.270635 
938.000000	 89.367859 
937.000000	 89.460314 
936.000000	 89.546105 
935.000000	 89.632997 
934.000000	 89.724559 
933.000000	 89.815041 
932.000000	 89.901144 
931.000000	 89.987905 
930.000000	 90.079070 
929.000000	 90.171373 
928.000000	 90.261981 
927.000000	 90.352426 
926.000000	 90.441781 
925.000000	 90.524357 
924.000000	 90.597223 
923.000000	 90.662982 
922.000000	 90.724124 
921.000000	 90.782408 
920.000000	 90.843679 
919.000000	 90.913434 
918.000000	 90.986340 
917.000000	 91.049858 
916.000000	 91.100557 
915.000000	 91.148720 
914.000000	 91.205734 
913.000000	 91.275385 
912.000000	 91.357912 
911.000000	 91.452722 
910.000000	 91.555366 
909.000000	 91.660822 
908.000000	 91.771153 
907.000000	 91.892186 
906.000000	 92.023225 
905.000000	 92.158498 
904.000000	 92.296875 
903.000000	 92.440035 
902.000000	 92.582889 
901.000000	 92.717653 
900.000000	 92.847257 
899.000000	 92.983335 
898.000000	 93.129883 
897.000000	 93.278596 
896.000000	 93.420333 
895.000000	 93.551289 
894.000000	 93.668724 
893.000000	 93.771872 
892.000000	 93.867723 
891.000000	 93.965627 
890.000000	 94.064804 
889.000000	 94.155795 
888.000000	 94.233343 
887.000000	 94.298406 
886.000000	 94.349921 
885.000000	 94.386403 
884.000000	 94.414722 
883.000000	 94.444776 
882.000000	 94.475691 
881.000000	 94.500785 
880.000000	 94.526226 
879.000000	 94.569175 
878.000000	 94.635043 
877.000000	 94.712156 
876.000000	 94.792205 
875.000000	 94.880618 
874.000000	 94.982667 
873.000000	 95.095386 
872.000000	 95.218210 
871.000000	 95.355880 
870.000000	 95.504344 
869.000000	 95.647510 
868.000000	 95.774529 
867.000000	 95.889022 
866.000000	 95.996936 
865.000000	 96.097336 
864.000000	 96.190435 
863.000000	 96.283199 
862.000000	 96.379859 
861.000000	 96.475657 
860.000000	 96.565851 
859.000000	 96.652661 
858.000000	 96.738531 
857.000000	 96.820824 
856.000000	 96.897581 
855.000000	 96.970023 
854.000000	 97.035174 
853.000000	 97.085225 
852.000000	 97.119598 
851.000000	 97.149953 
850.000000	 97.188395 
849.000000	 97.237499 
848.000000	 97.294694 
847.000000	 97.357035 
846.000000	 97.417628 
845.000000	 97.466909 
844.000000	 97.502817 
843.000000	 97.532563 
842.000000	 97.561099 
841.000000	 97.585530 
840.000000	 97.603146 
839.000000	 97.615206 
838.000000	 97.619903 
837.000000	 97.612618 
836.000000	 97.598332 
835.000000	 97.593623 
834.000000	 97.609116 
833.000000	 97.637365 
832.000000	 97.663762 
831.000000	 97.681456 
830.000000	 97.690469 
829.000000	 97.691955 
828.000000	 97.692141 
827.000000	 97.704393 
826.000000	 97.736709 
825.000000	 97.780828 
824.000000	 97.821145 
823.000000	 97.849722 
822.000000	 97.867248 
821.000000	 97.876264 
820.000000	 97.879390 
819.000000	 97.878152 
818.000000	 97.868431 
817.000000	 97.841354 
816.000000	 97.791002 
815.000000	 97.716655 
814.000000	 97.616763 
813.000000	 97.486991 
812.000000	 97.324992 
811.000000	 97.128838 
810.000000	 96.888320 
809.000000	 96.587284 
808.000000	 96.220361 
807.000000	 95.801483 
806.000000	 95.352330 
805.000000	 94.889532 
804.000000	 94.427074 
803.000000	 93.981145 
802.000000	 93.565914 
801.000000	 93.193785 
800.000000	 92.885065 
799.000000	 92.665330 
798.000000	 92.545098 
797.000000	 92.511207 
796.000000	 92.542101 
795.000000	 92.619787 
794.000000	 92.724199 
793.000000	 92.832125 
792.000000	 92.929421 
791.000000	 93.013044 
790.000000	 93.076850 
789.000000	 93.107659 
788.000000	 93.098848 
787.000000	 93.054173 
786.000000	 92.973215 
785.000000	 92.846802 
784.000000	 92.674361 
783.000000	 92.474684 
782.000000	 92.273191 
781.000000	 92.089842 
780.000000	 91.944081 
779.000000	 91.855864 
778.000000	 91.832051 
777.000000	 91.863643 
776.000000	 91.943403 
775.000000	 92.072616 
774.000000	 92.243405 
773.000000	 92.429900 
772.000000	 92.607611 
771.000000	 92.770655 
770.000000	 92.922440 
769.000000	 93.061766 
768.000000	 93.186439 
767.000000	 93.298560 
766.000000	 93.396977 
765.000000	 93.475351 
764.000000	 93.537090 
763.000000	 93.601763 
762.000000	 93.686048 
761.000000	 93.786135 
760.000000	 93.887544 
759.000000	 93.983570 
758.000000	 94.075616 
757.000000	 94.165270 
756.000000	 94.257312 
755.000000	 94.362723 
754.000000	 94.485549 
753.000000	 94.610051 
752.000000	 94.711744 
751.000000	 94.781067 
750.000000	 94.830822 
749.000000	 94.882432 
748.000000	 94.948683 
747.000000	 95.026385 
746.000000	 95.101653 
745.000000	 95.164820 
744.000000	 95.222162 
743.000000	 95.289741 
742.000000	 95.375258 
741.000000	 95.471536 
740.000000	 95.568087 
739.000000	 95.660952 
738.000000	 95.749013 
737.000000	 95.828767 
736.000000	 95.897089 
735.000000	 95.954162 
734.000000	 96.001334 
733.000000	 96.040853 
732.000000	 96.077599 
731.000000	 96.114782 
730.000000	 96.147661 
729.000000	 96.168233 
728.000000	 96.178705 
727.000000	 96.192763 
726.000000	 96.221342 
725.000000	 96.265640 
724.000000	 96.322503 
723.000000	 96.385676 
722.000000	 96.442906 
721.000000	 96.485486 
720.000000	 96.522782 
719.000000	 96.572214 
718.000000	 96.633005 
717.000000	 96.687219 
716.000000	 96.727023 
715.000000	 96.764199 
714.000000	 96.809575 
713.000000	 96.858490 
712.000000	 96.904920 
711.000000	 96.954393 
710.000000	 97.012422 
709.000000	 97.072765 
708.000000	 97.125651 
707.000000	 97.168542 
706.000000	 97.198038 
705.000000	 97.203967 
704.000000	 97.181980 
703.000000	 97.138527 
702.000000	 97.074839 
701.000000	 96.975913 
700.000000	 96.824448 
699.000000	 96.620733 
698.000000	 96.381619 
697.000000	 96.133782 
696.000000	 95.917159 
695.000000	 95.777092 
694.000000	 95.739300 
693.000000	 95.793585 
692.000000	 95.906754 
691.000000	 96.048650 
690.000000	 96.199674 
689.000000	 96.345573 
688.000000	 96.476796 
687.000000	 96.588574 
686.000000	 96.679154 
685.000000	 96.751363 
684.000000	 96.815552 
683.000000	 96.882887 
682.000000	 96.952242 
681.000000	 97.015032 
680.000000	 97.072116 
679.000000	 97.134941 
678.000000	 97.202159 
677.000000	 97.255513 
676.000000	 97.294523 
675.000000	 97.339530 
674.000000	 97.398913 
673.000000	 97.459933 
672.000000	 97.516610 
671.000000	 97.593668 
670.000000	 97.724495 
669.000000	 97.906811 
668.000000	 98.025326 
667.000000	 97.986335 
666.000000	 97.887797 
665.000000	 97.814825 
664.000000	 97.765328 
663.000000	 97.742705 
662.000000	 97.758955 
661.000000	 97.800434 
660.000000	 97.843778 
659.000000	 97.884150 
658.000000	 97.921019 
657.000000	 97.933702 
656.000000	 97.909956 
655.000000	 97.866792 
654.000000	 97.827035 
653.000000	 97.794057 
652.000000	 97.769021 
651.000000	 97.769177 
650.000000	 97.801502 

