4000.000000	97.758748 
3999.000000	97.758036 
3998.000000	97.756439 
3997.000000	97.754294 
3996.000000	97.752317 
3995.000000	97.751163 
3994.000000	97.751063 
3993.000000	97.751629 
3992.000000	97.752020 
3991.000000	97.751581 
3990.000000	97.750346 
3989.000000	97.748926 
3988.000000	97.747924 
3987.000000	97.747587 
3986.000000	97.747913 
3985.000000	97.748729 
3984.000000	97.749591 
3983.000000	97.749889 
3982.000000	97.749433 
3981.000000	97.748691 
3980.000000	97.748190 
3979.000000	97.747805 
3978.000000	97.747050 
3977.000000	97.745930 
3976.000000	97.745054 
3975.000000	97.744735 
3974.000000	97.744464 
3973.000000	97.743494 
3972.000000	97.741624 
3971.000000	97.739314 
3970.000000	97.737272 
3969.000000	97.736097 
3968.000000	97.736028 
3967.000000	97.736787 
3966.000000	97.737741 
3965.000000	97.738212 
3964.000000	97.737729 
3963.000000	97.736186 
3962.000000	97.734002 
3961.000000	97.731988 
3960.000000	97.730684 
3959.000000	97.729982 
3958.000000	97.729463 
3957.000000	97.729005 
3956.000000	97.728602 
3955.000000	97.727920 
3954.000000	97.726555 
3953.000000	97.724484 
3952.000000	97.722117 
3951.000000	97.719809 
3950.000000	97.717662 
3949.000000	97.715787 
3948.000000	97.714487 
3947.000000	97.714113 
3946.000000	97.714652 
3945.000000	97.715470 
3944.000000	97.715617 
3943.000000	97.714803 
3942.000000	97.713778 
3941.000000	97.713429 
3940.000000	97.713764 
3939.000000	97.714027 
3938.000000	97.713569 
3937.000000	97.712530 
3936.000000	97.711366 
3935.000000	97.710053 
3934.000000	97.708284 
3933.000000	97.706167 
3932.000000	97.704345 
3931.000000	97.703155 
3930.000000	97.702396 
3929.000000	97.702000 
3928.000000	97.702094 
3927.000000	97.702443 
3926.000000	97.702271 
3925.000000	97.701251 
3924.000000	97.699975 
3923.000000	97.699100 
3922.000000	97.698546 
3921.000000	97.697960 
3920.000000	97.697305 
3919.000000	97.696736 
3918.000000	97.696189 
3917.000000	97.695521 
3916.000000	97.694779 
3915.000000	97.694090 
3914.000000	97.693451 
3913.000000	97.692793 
3912.000000	97.692100 
3911.000000	97.691392 
3910.000000	97.690671 
3909.000000	97.689941 
3908.000000	97.689194 
3907.000000	97.688414 
3906.000000	97.687588 
3905.000000	97.686716 
3904.000000	97.685810 
3903.000000	97.684894 
3902.000000	97.683988 
3901.000000	97.683103 
3900.000000	97.682239 
3899.000000	97.681387 
3898.000000	97.680540 
3897.000000	97.679690 
3896.000000	97.678831 
3895.000000	97.677960 
3894.000000	97.677080 
3893.000000	97.676196 
3892.000000	97.675300 
3891.000000	97.674387 
3890.000000	97.673461 
3889.000000	97.672535 
3888.000000	97.671613 
3887.000000	97.670686 
3886.000000	97.669748 
3885.000000	97.668798 
3884.000000	97.667841 
3883.000000	97.666873 
3882.000000	97.665884 
3881.000000	97.664879 
3880.000000	97.663877 
3879.000000	97.662897 
3878.000000	97.661942 
3877.000000	97.661002 
3876.000000	97.660064 
3875.000000	97.659124 
3874.000000	97.658192 
3873.000000	97.657279 
3872.000000	97.656386 
3871.000000	97.655509 
3870.000000	97.654651 
3869.000000	97.653832 
3868.000000	97.653064 
3867.000000	97.652337 
3866.000000	97.651632 
3865.000000	97.650952 
3864.000000	97.650308 
3863.000000	97.649699 
3862.000000	97.649105 
3861.000000	97.648510 
3860.000000	97.647911 
3859.000000	97.647311 
3858.000000	97.646712 
3857.000000	97.646126 
3856.000000	97.645574 
3855.000000	97.645068 
3854.000000	97.644612 
3853.000000	97.644209 
3852.000000	97.643863 
3851.000000	97.643573 
3850.000000	97.643334 
3849.000000	97.643141 
3848.000000	97.642985 
3847.000000	97.642845 
3846.000000	97.642700 
3845.000000	97.642538 
3844.000000	97.642361 
3843.000000	97.642182 
3842.000000	97.642023 
3841.000000	97.641904 
3840.000000	97.641836 
3839.000000	97.641821 
3838.000000	97.641848 
3837.000000	97.641901 
3836.000000	97.641971 
3835.000000	97.642061 
3834.000000	97.642177 
3833.000000	97.642327 
3832.000000	97.642511 
3831.000000	97.642722 
3830.000000	97.642951 
3829.000000	97.643187 
3828.000000	97.643428 
3827.000000	97.643665 
3826.000000	97.643890 
3825.000000	97.644104 
3824.000000	97.644319 
3823.000000	97.644539 
3822.000000	97.644762 
3821.000000	97.644993 
3820.000000	97.645253 
3819.000000	97.645562 
3818.000000	97.645917 
3817.000000	97.646303 
3816.000000	97.646706 
3815.000000	97.647121 
3814.000000	97.647530 
3813.000000	97.647907 
3812.000000	97.648239 
3811.000000	97.648537 
3810.000000	97.648815 
3809.000000	97.649075 
3808.000000	97.649304 
3807.000000	97.649493 
3806.000000	97.649656 
3805.000000	97.649821 
3804.000000	97.650007 
3803.000000	97.650220 
3802.000000	97.650458 
3801.000000	97.650740 
3800.000000	97.651092 
3799.000000	97.651465 
3798.000000	97.651751 
3797.000000	97.651901 
3796.000000	97.652024 
3795.000000	97.652292 
3794.000000	97.652725 
3793.000000	97.653086 
3792.000000	97.653230 
3791.000000	97.653370 
3790.000000	97.653636 
3789.000000	97.653645 
3788.000000	97.653026 
3787.000000	97.652060 
3786.000000	97.651242 
3785.000000	97.650476 
3784.000000	97.649516 
3783.000000	97.648701 
3782.000000	97.648180 
3781.000000	97.647411 
3780.000000	97.646139 
3779.000000	97.645553 
3778.000000	97.646717 
3777.000000	97.648743 
3776.000000	97.649230 
3775.000000	97.647029 
3774.000000	97.643723 
3773.000000	97.641964 
3772.000000	97.641912 
3771.000000	97.641234 
3770.000000	97.639071 
3769.000000	97.637339 
3768.000000	97.637058 
3767.000000	97.636670 
3766.000000	97.634388 
3765.000000	97.631093 
3764.000000	97.629758 
3763.000000	97.631327 
3762.000000	97.632840 
3761.000000	97.631378 
3760.000000	97.628043 
3759.000000	97.625722 
3758.000000	97.623268 
3757.000000	97.618283 
3756.000000	97.611811 
3755.000000	97.606061 
3754.000000	97.600786 
3753.000000	97.594752 
3752.000000	97.590293 
3751.000000	97.589849 
3750.000000	97.589331 
3749.000000	97.584743 
3748.000000	97.580554 
3747.000000	97.582690 
3746.000000	97.588911 
3745.000000	97.591811 
3744.000000	97.592794 
3743.000000	97.596355 
3742.000000	97.599246 
3741.000000	97.597304 
3740.000000	97.592337 
3739.000000	97.590586 
3738.000000	97.593541 
3737.000000	97.595076 
3736.000000	97.591404 
3735.000000	97.587599 
3734.000000	97.589278 
3733.000000	97.593979 
3732.000000	97.596663 
3731.000000	97.596729 
3730.000000	97.596203 
3729.000000	97.595524 
3728.000000	97.593208 
3727.000000	97.589066 
3726.000000	97.585977 
3725.000000	97.585819 
3724.000000	97.586792 
3723.000000	97.586683 
3722.000000	97.585845 
3721.000000	97.585338 
3720.000000	97.584598 
3719.000000	97.582914 
3718.000000	97.580034 
3717.000000	97.576747 
3716.000000	97.574316 
3715.000000	97.572100 
3714.000000	97.567994 
3713.000000	97.561652 
3712.000000	97.556139 
3711.000000	97.554473 
3710.000000	97.555802 
3709.000000	97.557535 
3708.000000	97.557577 
3707.000000	97.554891 
3706.000000	97.550153 
3705.000000	97.545170 
3704.000000	97.541224 
3703.000000	97.537956 
3702.000000	97.533643 
3701.000000	97.526936 
3700.000000	97.518478 
3699.000000	97.510263 
3698.000000	97.502828 
3697.000000	97.495290 
3696.000000	97.488431 
3695.000000	97.483226 
3694.000000	97.477969 
3693.000000	97.471035 
3692.000000	97.464564 
3691.000000	97.462357 
3690.000000	97.463830 
3689.000000	97.464809 
3688.000000	97.463201 
3687.000000	97.460443 
3686.000000	97.457578 
3685.000000	97.452966 
3684.000000	97.445844 
3683.000000	97.439041 
3682.000000	97.434409 
3681.000000	97.427556 
3680.000000	97.413841 
3679.000000	97.396272 
3678.000000	97.382446 
3677.000000	97.372164 
3676.000000	97.360053 
3675.000000	97.348814 
3674.000000	97.343400 
3673.000000	97.342377 
3672.000000	97.339974 
3671.000000	97.332384 
3670.000000	97.323957 
3669.000000	97.320563 
3668.000000	97.319067 
3667.000000	97.313924 
3666.000000	97.305446 
3665.000000	97.297015 
3664.000000	97.290362 
3663.000000	97.284502 
3662.000000	97.277111 
3661.000000	97.267036 
3660.000000	97.255954 
3659.000000	97.245873 
3658.000000	97.236526 
3657.000000	97.224890 
3656.000000	97.210819 
3655.000000	97.198331 
3654.000000	97.189932 
3653.000000	97.183273 
3652.000000	97.172517 
3651.000000	97.154367 
3650.000000	97.133183 
3649.000000	97.115459 
3648.000000	97.102459 
3647.000000	97.094283 
3646.000000	97.092643 
3645.000000	97.097181 
3644.000000	97.103804 
3643.000000	97.108108 
3642.000000	97.108523 
3641.000000	97.106356 
3640.000000	97.102506 
3639.000000	97.096144 
3638.000000	97.087661 
3637.000000	97.078906 
3636.000000	97.069777 
3635.000000	97.057061 
3634.000000	97.040561 
3633.000000	97.026303 
3632.000000	97.019328 
3631.000000	97.014688 
3630.000000	97.000763 
3629.000000	96.978705 
3628.000000	96.963781 
3627.000000	96.961592 
3626.000000	96.965407 
3625.000000	96.969987 
3624.000000	96.976176 
3623.000000	96.986456 
3622.000000	96.998316 
3621.000000	97.003616 
3620.000000	96.996584 
3619.000000	96.980713 
3618.000000	96.964808 
3617.000000	96.955442 
3616.000000	96.954716 
3615.000000	96.959851 
3614.000000	96.966139 
3613.000000	96.971954 
3612.000000	96.978757 
3611.000000	96.986314 
3610.000000	96.991377 
3609.000000	96.991942 
3608.000000	96.990734 
3607.000000	96.992406 
3606.000000	96.998588 
3605.000000	97.008430 
3604.000000	97.020769 
3603.000000	97.033742 
3602.000000	97.044323 
3601.000000	97.049463 
3600.000000	97.049313 
3599.000000	97.046458 
3598.000000	97.043329 
3597.000000	97.041211 
3596.000000	97.040881 
3595.000000	97.041317 
3594.000000	97.041191 
3593.000000	97.040720 
3592.000000	97.041443 
3591.000000	97.044274 
3590.000000	97.047299 
3589.000000	97.046995 
3588.000000	97.043100 
3587.000000	97.040039 
3586.000000	97.041208 
3585.000000	97.045943 
3584.000000	97.052308 
3583.000000	97.058888 
3582.000000	97.064719 
3581.000000	97.068575 
3580.000000	97.069712 
3579.000000	97.068493 
3578.000000	97.066273 
3577.000000	97.064695 
3576.000000	97.064826 
3575.000000	97.066738 
3574.000000	97.069600 
3573.000000	97.072554 
3572.000000	97.075050 
3571.000000	97.076716 
3570.000000	97.076471 
3569.000000	97.072499 
3568.000000	97.064685 
3567.000000	97.056691 
3566.000000	97.052570 
3565.000000	97.052647 
3564.000000	97.054938 
3563.000000	97.057911 
3562.000000	97.061198 
3561.000000	97.064766 
3560.000000	97.068077 
3559.000000	97.070457 
3558.000000	97.071780 
3557.000000	97.072687 
3556.000000	97.073907 
3555.000000	97.075504 
3554.000000	97.076673 
3553.000000	97.076542 
3552.000000	97.075163 
3551.000000	97.073476 
3550.000000	97.072457 
3549.000000	97.072461 
3548.000000	97.073148 
3547.000000	97.073713 
3546.000000	97.073323 
3545.000000	97.071911 
3544.000000	97.070527 
3543.000000	97.070442 
3542.000000	97.071860 
3541.000000	97.073970 
3540.000000	97.075917 
3539.000000	97.077288 
3538.000000	97.077857 
3537.000000	97.077473 
3536.000000	97.076406 
3535.000000	97.075142 
3534.000000	97.073969 
3533.000000	97.072911 
3532.000000	97.072150 
3531.000000	97.072009 
3530.000000	97.072421 
3529.000000	97.072782 
3528.000000	97.072531 
3527.000000	97.071662 
3526.000000	97.070562 
3525.000000	97.069645 
3524.000000	97.069151 
3523.000000	97.069126 
3522.000000	97.069345 
3521.000000	97.069477 
3520.000000	97.069328 
3519.000000	97.068888 
3518.000000	97.068237 
3517.000000	97.067414 
3516.000000	97.066428 
3515.000000	97.065384 
3514.000000	97.064493 
3513.000000	97.063868 
3512.000000	97.063379 
3511.000000	97.062762 
3510.000000	97.061881 
3509.000000	97.060849 
3508.000000	97.059922 
3507.000000	97.059274 
3506.000000	97.058842 
3505.000000	97.058358 
3504.000000	97.057563 
3503.000000	97.056392 
3502.000000	97.054979 
3501.000000	97.053515 
3500.000000	97.052101 
3499.000000	97.050722 
3498.000000	97.049323 
3497.000000	97.047951 
3496.000000	97.046746 
3495.000000	97.045769 
3494.000000	97.044893 
3493.000000	97.043933 
3492.000000	97.042809 
3491.000000	97.041554 
3490.000000	97.040278 
3489.000000	97.039082 
3488.000000	97.037929 
3487.000000	97.036571 
3486.000000	97.034737 
3485.000000	97.032488 
3484.000000	97.030282 
3483.000000	97.028482 
3482.000000	97.026999 
3481.000000	97.025602 
3480.000000	97.024427 
3479.000000	97.023789 
3478.000000	97.023517 
3477.000000	97.022829 
3476.000000	97.021048 
3475.000000	97.018332 
3474.000000	97.015617 
3473.000000	97.013906 
3472.000000	97.013558 
3471.000000	97.014084 
3470.000000	97.014517 
3469.000000	97.014123 
3468.000000	97.012700 
3467.000000	97.010457 
3466.000000	97.007777 
3465.000000	97.004986 
3464.000000	97.002236 
3463.000000	96.999422 
3462.000000	96.996313 
3461.000000	96.992927 
3460.000000	96.989718 
3459.000000	96.987239 
3458.000000	96.985590 
3457.000000	96.984271 
3456.000000	96.982718 
3455.000000	96.980969 
3454.000000	96.979699 
3453.000000	96.979487 
3452.000000	96.980268 
3451.000000	96.981334 
3450.000000	96.981629 
3449.000000	96.980254 
3448.000000	96.976984 
3447.000000	96.972604 
3446.000000	96.968467 
3445.000000	96.965470 
3444.000000	96.963703 
3443.000000	96.962931 
3442.000000	96.962992 
3441.000000	96.963647 
3440.000000	96.964343 
3439.000000	96.964450 
3438.000000	96.963706 
3437.000000	96.962287 
3436.000000	96.960635 
3435.000000	96.959268 
3434.000000	96.958546 
3433.000000	96.958351 
3432.000000	96.958175 
3431.000000	96.957604 
3430.000000	96.956574 
3429.000000	96.955163 
3428.000000	96.953276 
3427.000000	96.950845 
3426.000000	96.948270 
3425.000000	96.946318 
3424.000000	96.945406 
3423.000000	96.945101 
3422.000000	96.944450 
3421.000000	96.942975 
3420.000000	96.941172 
3419.000000	96.939904 
3418.000000	96.939462 
3417.000000	96.939451 
3416.000000	96.939407 
3415.000000	96.939198 
3414.000000	96.938801 
3413.000000	96.938022 
3412.000000	96.936698 
3411.000000	96.935016 
3410.000000	96.933489 
3409.000000	96.932593 
3408.000000	96.932405 
3407.000000	96.932504 
3406.000000	96.932201 
3405.000000	96.931065 
3404.000000	96.929267 
3403.000000	96.927316 
3402.000000	96.925608 
3401.000000	96.924296 
3400.000000	96.923433 
3399.000000	96.922913 
3398.000000	96.922357 
3397.000000	96.921493 
3396.000000	96.920644 
3395.000000	96.920510 
3394.000000	96.921287 
3393.000000	96.922210 
3392.000000	96.922135 
3391.000000	96.920611 
3390.000000	96.918348 
3389.000000	96.916711 
3388.000000	96.916726 
3387.000000	96.918366 
3386.000000	96.920517 
3385.000000	96.921613 
3384.000000	96.920662 
3383.000000	96.917982 
3382.000000	96.915236 
3381.000000	96.914343 
3380.000000	96.915971 
3379.000000	96.919134 
3378.000000	96.922372 
3377.000000	96.925330 
3376.000000	96.928547 
3375.000000	96.931869 
3374.000000	96.934041 
3373.000000	96.934287 
3372.000000	96.933602 
3371.000000	96.933848 
3370.000000	96.935686 
3369.000000	96.937920 
3368.000000	96.938773 
3367.000000	96.937334 
3366.000000	96.933855 
3365.000000	96.929291 
3364.000000	96.924786 
3363.000000	96.921337 
3362.000000	96.919614 
3361.000000	96.919950 
3360.000000	96.922321 
3359.000000	96.926131 
3358.000000	96.930097 
3357.000000	96.932830 
3356.000000	96.933873 
3355.000000	96.934131 
3354.000000	96.935102 
3353.000000	96.937605 
3352.000000	96.941181 
3351.000000	96.944618 
3350.000000	96.946956 
3349.000000	96.947999 
3348.000000	96.948192 
3347.000000	96.948162 
3346.000000	96.948237 
3345.000000	96.948047 
3344.000000	96.946595 
3343.000000	96.943066 
3342.000000	96.937972 
3341.000000	96.933327 
3340.000000	96.931011 
3339.000000	96.931063 
3338.000000	96.931937 
3337.000000	96.932308 
3336.000000	96.932278 
3335.000000	96.932687 
3334.000000	96.933776 
3333.000000	96.934995 
3332.000000	96.935867 
3331.000000	96.936538 
3330.000000	96.937308 
3329.000000	96.937912 
3328.000000	96.937635 
3327.000000	96.936248 
3326.000000	96.934600 
3325.000000	96.933918 
3324.000000	96.934446 
3323.000000	96.935129 
3322.000000	96.934977 
3321.000000	96.934374 
3320.000000	96.934671 
3319.000000	96.936803 
3318.000000	96.940684 
3317.000000	96.945646 
3316.000000	96.950912 
3315.000000	96.955696 
3314.000000	96.959386 
3313.000000	96.961840 
3312.000000	96.963331 
3311.000000	96.964285 
3310.000000	96.965286 
3309.000000	96.966927 
3308.000000	96.969001 
3307.000000	96.970000 
3306.000000	96.968213 
3305.000000	96.963529 
3304.000000	96.957911 
3303.000000	96.953926 
3302.000000	96.952797 
3301.000000	96.953906 
3300.000000	96.955558 
3299.000000	96.956138 
3298.000000	96.955171 
3297.000000	96.953692 
3296.000000	96.953452 
3295.000000	96.955449 
3294.000000	96.959248 
3293.000000	96.963541 
3292.000000	96.967159 
3291.000000	96.969553 
3290.000000	96.970696 
3289.000000	96.970897 
3288.000000	96.970599 
3287.000000	96.970024 
3286.000000	96.968957 
3285.000000	96.967087 
3284.000000	96.964658 
3283.000000	96.962665 
3282.000000	96.962196 
3281.000000	96.963474 
3280.000000	96.965477 
3279.000000	96.966677 
3278.000000	96.966472 
3277.000000	96.965699 
3276.000000	96.965626 
3275.000000	96.966574 
3274.000000	96.967889 
3273.000000	96.969065 
3272.000000	96.970318 
3271.000000	96.971994 
3270.000000	96.973825 
3269.000000	96.975020 
3268.000000	96.974994 
3267.000000	96.973896 
3266.000000	96.972580 
3265.000000	96.972030 
3264.000000	96.972547 
3263.000000	96.973463 
3262.000000	96.973806 
3261.000000	96.973311 
3260.000000	96.972525 
3259.000000	96.971981 
3258.000000	96.971712 
3257.000000	96.971732 
3256.000000	96.972442 
3255.000000	96.974036 
3254.000000	96.975883 
3253.000000	96.977097 
3252.000000	96.977674 
3251.000000	96.978528 
3250.000000	96.980269 
3249.000000	96.982362 
3248.000000	96.983719 
3247.000000	96.983911 
3246.000000	96.983553 
3245.000000	96.983583 
3244.000000	96.984295 
3243.000000	96.985125 
3242.000000	96.985271 
3241.000000	96.984448 
3240.000000	96.983136 
3239.000000	96.982358 
3238.000000	96.983218 
3237.000000	96.986332 
3236.000000	96.991286 
3235.000000	96.996498 
3234.000000	97.000046 
3233.000000	97.000964 
3232.000000	96.999768 
3231.000000	96.998024 
3230.000000	96.997268 
3229.000000	96.998128 
3228.000000	97.000317 
3227.000000	97.003305 
3226.000000	97.006960 
3225.000000	97.011363 
3224.000000	97.016095 
3223.000000	97.020141 
3222.000000	97.022839 
3221.000000	97.024698 
3220.000000	97.026793 
3219.000000	97.029403 
3218.000000	97.031740 
3217.000000	97.033048 
3216.000000	97.033527 
3215.000000	97.034148 
3214.000000	97.035803 
3213.000000	97.038562 
3212.000000	97.041496 
3211.000000	97.043283 
3210.000000	97.043318 
3209.000000	97.042340 
3208.000000	97.041765 
3207.000000	97.042336 
3206.000000	97.043696 
3205.000000	97.045210 
3204.000000	97.046786 
3203.000000	97.048704 
3202.000000	97.050925 
3201.000000	97.052971 
3200.000000	97.054498 
3199.000000	97.055817 
3198.000000	97.057618 
3197.000000	97.060124 
3196.000000	97.062692 
3195.000000	97.064457 
3194.000000	97.065346 
3193.000000	97.066208 
3192.000000	97.067864 
3191.000000	97.070157 
3190.000000	97.072146 
3189.000000	97.073150 
3188.000000	97.073332 
3187.000000	97.073403 
3186.000000	97.074025 
3185.000000	97.075351 
3184.000000	97.077006 
3183.000000	97.078579 
3182.000000	97.080142 
3181.000000	97.082045 
3180.000000	97.084253 
3179.000000	97.086242 
3178.000000	97.087697 
3177.000000	97.088950 
3176.000000	97.090520 
3175.000000	97.092503 
3174.000000	97.094608 
3173.000000	97.096563 
3172.000000	97.098228 
3171.000000	97.099454 
3170.000000	97.100198 
3169.000000	97.100788 
3168.000000	97.101762 
3167.000000	97.103332 
3166.000000	97.105200 
3165.000000	97.106942 
3164.000000	97.108374 
3163.000000	97.109505 
3162.000000	97.110410 
3161.000000	97.111240 
3160.000000	97.112153 
3159.000000	97.113166 
3158.000000	97.114281 
3157.000000	97.115714 
3156.000000	97.117674 
3155.000000	97.119872 
3154.000000	97.121650 
3153.000000	97.122757 
3152.000000	97.123601 
3151.000000	97.124514 
3150.000000	97.125190 
3149.000000	97.125263 
3148.000000	97.125152 
3147.000000	97.125879 
3146.000000	97.128059 
3145.000000	97.131405 
3144.000000	97.135031 
3143.000000	97.138057 
3142.000000	97.140001 
3141.000000	97.140935 
3140.000000	97.141440 
3139.000000	97.142238 
3138.000000	97.143678 
3137.000000	97.145464 
3136.000000	97.146779 
3135.000000	97.146847 
3134.000000	97.145757 
3133.000000	97.144745 
3132.000000	97.145139 
3131.000000	97.147008 
3130.000000	97.149302 
3129.000000	97.151397 
3128.000000	97.153969 
3127.000000	97.157985 
3126.000000	97.163328 
3125.000000	97.168677 
3124.000000	97.172597 
3123.000000	97.174536 
3122.000000	97.174987 
3121.000000	97.175097 
3120.000000	97.175806 
3119.000000	97.177074 
3118.000000	97.178238 
3117.000000	97.179201 
3116.000000	97.180716 
3115.000000	97.183213 
3114.000000	97.185907 
3113.000000	97.187745 
3112.000000	97.188923 
3111.000000	97.190769 
3110.000000	97.194086 
3109.000000	97.198150 
3108.000000	97.201534 
3107.000000	97.203507 
3106.000000	97.204286 
3105.000000	97.204260 
3104.000000	97.203446 
3103.000000	97.201781 
3102.000000	97.199591 
3101.000000	97.197644 
3100.000000	97.196697 
3099.000000	97.197013 
3098.000000	97.198426 
3097.000000	97.200771 
3096.000000	97.203989 
3095.000000	97.207840 
3094.000000	97.211928 
3093.000000	97.215957 
3092.000000	97.219647 
3091.000000	97.222444 
3090.000000	97.223740 
3089.000000	97.223601 
3088.000000	97.223001 
3087.000000	97.223183 
3086.000000	97.224879 
3085.000000	97.227970 
3084.000000	97.231527 
3083.000000	97.234368 
3082.000000	97.236076 
3081.000000	97.237497 
3080.000000	97.239733 
3079.000000	97.242623 
3078.000000	97.244889 
3077.000000	97.245873 
3076.000000	97.246286 
3075.000000	97.247009 
3074.000000	97.247994 
3073.000000	97.248909 
3072.000000	97.250079 
3071.000000	97.251920 
3070.000000	97.254012 
3069.000000	97.255676 
3068.000000	97.257055 
3067.000000	97.258693 
3066.000000	97.260348 
3065.000000	97.261255 
3064.000000	97.261364 
3063.000000	97.261247 
3062.000000	97.260963 
3061.000000	97.260102 
3060.000000	97.258893 
3059.000000	97.258290 
3058.000000	97.258904 
3057.000000	97.260623 
3056.000000	97.263155 
3055.000000	97.265998 
3054.000000	97.268050 
3053.000000	97.268604 
3052.000000	97.268961 
3051.000000	97.271692 
3050.000000	97.277523 
3049.000000	97.283849 
3048.000000	97.287217 
3047.000000	97.286606 
3046.000000	97.283518 
3045.000000	97.279854 
3044.000000	97.276793 
3043.000000	97.275414 
3042.000000	97.276774 
3041.000000	97.280510 
3040.000000	97.284139 
3039.000000	97.284976 
3038.000000	97.282749 
3037.000000	97.279647 
3036.000000	97.277712 
3035.000000	97.276741 
3034.000000	97.275270 
3033.000000	97.272893 
3032.000000	97.270604 
3031.000000	97.269147 
3030.000000	97.268141 
3029.000000	97.266935 
3028.000000	97.265214 
3027.000000	97.262357 
3026.000000	97.257327 
3025.000000	97.250093 
3024.000000	97.242569 
3023.000000	97.237134 
3022.000000	97.234418 
3021.000000	97.233417 
3020.000000	97.233399 
3019.000000	97.234581 
3018.000000	97.236749 
3017.000000	97.238221 
3016.000000	97.236880 
3015.000000	97.231994 
3014.000000	97.224927 
3013.000000	97.218247 
3012.000000	97.213770 
3011.000000	97.211073 
3010.000000	97.208068 
3009.000000	97.203257 
3008.000000	97.197035 
3007.000000	97.190550 
3006.000000	97.184004 
3005.000000	97.176937 
3004.000000	97.169763 
3003.000000	97.163936 
3002.000000	97.160672 
3001.000000	97.160226 
3000.000000	97.162105 
2999.000000	97.164883 
2998.000000	97.165975 
2997.000000	97.162994 
2996.000000	97.155935 
2995.000000	97.147469 
2994.000000	97.140532 
2993.000000	97.135890 
2992.000000	97.132124 
2991.000000	97.127403 
2990.000000	97.121146 
2989.000000	97.114521 
2988.000000	97.109618 
2987.000000	97.107856 
2986.000000	97.109078 
2985.000000	97.112289 
2984.000000	97.116947 
2983.000000	97.122997 
2982.000000	97.129839 
2981.000000	97.135944 
2980.000000	97.139606 
2979.000000	97.139692 
2978.000000	97.136066 
2977.000000	97.130132 
2976.000000	97.124766 
2975.000000	97.122483 
2974.000000	97.123323 
2973.000000	97.125270 
2972.000000	97.126906 
2971.000000	97.128837 
2970.000000	97.132201 
2969.000000	97.136884 
2968.000000	97.141880 
2967.000000	97.146555 
2966.000000	97.150661 
2965.000000	97.153709 
2964.000000	97.155343 
2963.000000	97.156077 
2962.000000	97.156837 
2961.000000	97.157868 
2960.000000	97.158878 
2959.000000	97.160249 
2958.000000	97.163302 
2957.000000	97.168954 
2956.000000	97.176476 
2955.000000	97.183865 
2954.000000	97.189403 
2953.000000	97.192900 
2952.000000	97.195643 
2951.000000	97.199142 
2950.000000	97.203667 
2949.000000	97.207911 
2948.000000	97.210241 
2947.000000	97.210188 
2946.000000	97.208610 
2945.000000	97.206557 
2944.000000	97.204413 
2943.000000	97.202261 
2942.000000	97.200522 
2941.000000	97.199867 
2940.000000	97.200766 
2939.000000	97.203391 
2938.000000	97.207726 
2937.000000	97.213247 
2936.000000	97.218530 
2935.000000	97.221799 
2934.000000	97.222254 
2933.000000	97.220638 
2932.000000	97.218395 
2931.000000	97.216523 
2930.000000	97.215380 
2929.000000	97.215154 
2928.000000	97.215831 
2927.000000	97.216770 
2926.000000	97.216999 
2925.000000	97.216379 
2924.000000	97.216088 
2923.000000	97.217466 
2922.000000	97.220529 
2921.000000	97.224017 
2920.000000	97.226923 
2919.000000	97.229555 
2918.000000	97.232755 
2917.000000	97.236299 
2916.000000	97.238597 
2915.000000	97.238249 
2914.000000	97.235647 
2913.000000	97.232711 
2912.000000	97.230917 
2911.000000	97.229935 
2910.000000	97.228536 
2909.000000	97.226534 
2908.000000	97.225288 
2907.000000	97.226112 
2906.000000	97.228583 
2905.000000	97.230764 
2904.000000	97.230938 
2903.000000	97.229449 
2902.000000	97.228570 
2901.000000	97.230447 
2900.000000	97.235448 
2899.000000	97.241887 
2898.000000	97.247557 
2897.000000	97.251378 
2896.000000	97.253444 
2895.000000	97.254073 
2894.000000	97.253712 
2893.000000	97.253607 
2892.000000	97.255463 
2891.000000	97.259756 
2890.000000	97.264906 
2889.000000	97.268811 
2888.000000	97.271036 
2887.000000	97.272695 
2886.000000	97.274482 
2885.000000	97.275890 
2884.000000	97.276653 
2883.000000	97.277822 
2882.000000	97.280516 
2881.000000	97.284315 
2880.000000	97.287892 
2879.000000	97.291028 
2878.000000	97.294857 
2877.000000	97.299946 
2876.000000	97.305162 
2875.000000	97.308974 
2874.000000	97.311240 
2873.000000	97.313110 
2872.000000	97.315622 
2871.000000	97.318911 
2870.000000	97.322582 
2869.000000	97.326163 
2868.000000	97.329197 
2867.000000	97.331481 
2866.000000	97.333318 
2865.000000	97.335159 
2864.000000	97.336998 
2863.000000	97.338598 
2862.000000	97.340265 
2861.000000	97.342728 
2860.000000	97.346042 
2859.000000	97.349335 
2858.000000	97.352052 
2857.000000	97.354878 
2856.000000	97.358880 
2855.000000	97.364085 
2854.000000	97.369444 
2853.000000	97.374027 
2852.000000	97.377585 
2851.000000	97.380155 
2850.000000	97.381931 
2849.000000	97.383493 
2848.000000	97.385433 
2847.000000	97.387629 
2846.000000	97.389489 
2845.000000	97.390916 
2844.000000	97.392447 
2843.000000	97.394423 
2842.000000	97.396606 
2841.000000	97.398688 
2840.000000	97.400672 
2839.000000	97.402671 
2838.000000	97.404822 
2837.000000	97.407449 
2836.000000	97.410793 
2835.000000	97.414466 
2834.000000	97.417727 
2833.000000	97.420469 
2832.000000	97.423295 
2831.000000	97.426332 
2830.000000	97.428560 
2829.000000	97.428912 
2828.000000	97.427661 
2827.000000	97.426325 
2826.000000	97.426290 
2825.000000	97.427831 
2824.000000	97.430359 
2823.000000	97.433101 
2822.000000	97.435578 
2821.000000	97.437679 
2820.000000	97.439454 
2819.000000	97.440911 
2818.000000	97.442071 
2817.000000	97.443154 
2816.000000	97.444462 
2815.000000	97.445998 
2814.000000	97.447345 
2813.000000	97.448007 
2812.000000	97.447809 
2811.000000	97.446991 
2810.000000	97.446134 
2809.000000	97.445963 
2808.000000	97.446958 
2807.000000	97.449011 
2806.000000	97.451556 
2805.000000	97.454050 
2804.000000	97.456219 
2803.000000	97.457867 
2802.000000	97.458849 
2801.000000	97.459410 
2800.000000	97.460239 
2799.000000	97.461803 
2798.000000	97.463724 
2797.000000	97.465114 
2796.000000	97.465513 
2795.000000	97.465272 
2794.000000	97.465121 
2793.000000	97.465498 
2792.000000	97.466326 
2791.000000	97.467229 
2790.000000	97.467822 
2789.000000	97.467964 
2788.000000	97.467843 
2787.000000	97.467857 
2786.000000	97.468354 
2785.000000	97.469421 
2784.000000	97.470857 
2783.000000	97.472293 
2782.000000	97.473416 
2781.000000	97.474194 
2780.000000	97.474898 
2779.000000	97.475824 
2778.000000	97.476993 
2777.000000	97.478134 
2776.000000	97.478975 
2775.000000	97.479477 
2774.000000	97.479771 
2773.000000	97.479951 
2772.000000	97.480025 
2771.000000	97.480062 
2770.000000	97.480312 
2769.000000	97.481053 
2768.000000	97.482309 
2767.000000	97.483780 
2766.000000	97.485062 
2765.000000	97.485985 
2764.000000	97.486652 
2763.000000	97.487220 
2762.000000	97.487702 
2761.000000	97.488040 
2760.000000	97.488305 
2759.000000	97.488696 
2758.000000	97.489303 
2757.000000	97.489938 
2756.000000	97.490302 
2755.000000	97.490343 
2754.000000	97.490380 
2753.000000	97.490818 
2752.000000	97.491752 
2751.000000	97.492924 
2750.000000	97.494024 
2749.000000	97.494985 
2748.000000	97.495832 
2747.000000	97.496385 
2746.000000	97.496401 
2745.000000	97.495951 
2744.000000	97.495496 
2743.000000	97.495456 
2742.000000	97.495869 
2741.000000	97.496510 
2740.000000	97.497179 
2739.000000	97.497829 
2738.000000	97.498435 
2737.000000	97.498953 
2736.000000	97.499398 
2735.000000	97.499859 
2734.000000	97.500381 
2733.000000	97.500907 
2732.000000	97.501346 
2731.000000	97.501680 
2730.000000	97.501972 
2729.000000	97.502288 
2728.000000	97.502634 
2727.000000	97.502966 
2726.000000	97.503258 
2725.000000	97.503543 
2724.000000	97.503884 
2723.000000	97.504302 
2722.000000	97.504757 
2721.000000	97.505209 
2720.000000	97.505660 
2719.000000	97.506118 
2718.000000	97.506572 
2717.000000	97.507014 
2716.000000	97.507451 
2715.000000	97.507887 
2714.000000	97.508320 
2713.000000	97.508754 
2712.000000	97.509186 
2711.000000	97.509612 
2710.000000	97.510025 
2709.000000	97.510428 
2708.000000	97.510828 
2707.000000	97.511232 
2706.000000	97.511643 
2705.000000	97.512060 
2704.000000	97.512478 
2703.000000	97.512893 
2702.000000	97.513302 
2701.000000	97.513703 
2700.000000	97.514096 
2699.000000	97.514480 
2698.000000	97.514851 
2697.000000	97.515200 
2696.000000	97.515521 
2695.000000	97.515815 
2694.000000	97.516088 
2693.000000	97.516346 
2692.000000	97.516594 
2691.000000	97.516832 
2690.000000	97.517063 
2689.000000	97.517294 
2688.000000	97.517527 
2687.000000	97.517764 
2686.000000	97.518002 
2685.000000	97.518238 
2684.000000	97.518468 
2683.000000	97.518685 
2682.000000	97.518882 
2681.000000	97.519054 
2680.000000	97.519201 
2679.000000	97.519322 
2678.000000	97.519421 
2677.000000	97.519497 
2676.000000	97.519551 
2675.000000	97.519581 
2674.000000	97.519589 
2673.000000	97.519581 
2672.000000	97.519555 
2671.000000	97.519511 
2670.000000	97.519458 
2669.000000	97.519397 
2668.000000	97.519334 
2667.000000	97.519278 
2666.000000	97.519231 
2665.000000	97.519165 
2664.000000	97.519051 
2663.000000	97.518903 
2662.000000	97.518797 
2661.000000	97.518789 
2660.000000	97.518820 
2659.000000	97.518736 
2658.000000	97.518442 
2657.000000	97.518012 
2656.000000	97.517649 
2655.000000	97.517490 
2654.000000	97.517481 
2653.000000	97.517461 
2652.000000	97.517369 
2651.000000	97.517324 
2650.000000	97.517484 
2649.000000	97.517853 
2648.000000	97.518247 
2647.000000	97.518430 
2646.000000	97.518248 
2645.000000	97.517651 
2644.000000	97.516714 
2643.000000	97.515691 
2642.000000	97.514940 
2641.000000	97.514661 
2640.000000	97.514701 
2639.000000	97.514668 
2638.000000	97.514333 
2637.000000	97.513820 
2636.000000	97.513396 
2635.000000	97.513210 
2634.000000	97.513280 
2633.000000	97.513561 
2632.000000	97.513916 
2631.000000	97.514100 
2630.000000	97.513956 
2629.000000	97.513581 
2628.000000	97.513193 
2627.000000	97.512910 
2626.000000	97.512723 
2625.000000	97.512640 
2624.000000	97.512700 
2623.000000	97.512850 
2622.000000	97.512921 
2621.000000	97.512760 
2620.000000	97.512332 
2619.000000	97.511701 
2618.000000	97.511015 
2617.000000	97.510464 
2616.000000	97.510143 
2615.000000	97.509984 
2614.000000	97.509839 
2613.000000	97.509618 
2612.000000	97.509340 
2611.000000	97.509061 
2610.000000	97.508808 
2609.000000	97.508572 
2608.000000	97.508329 
2607.000000	97.508072 
2606.000000	97.507809 
2605.000000	97.507543 
2604.000000	97.507279 
2603.000000	97.507021 
2602.000000	97.506769 
2601.000000	97.506520 
2600.000000	97.506273 
2599.000000	97.506027 
2598.000000	97.505782 
2597.000000	97.505539 
2596.000000	97.505303 
2595.000000	97.505079 
2594.000000	97.504867 
2593.000000	97.504665 
2592.000000	97.504475 
2591.000000	97.504296 
2590.000000	97.504129 
2589.000000	97.503969 
2588.000000	97.503813 
2587.000000	97.503664 
2586.000000	97.503528 
2585.000000	97.503407 
2584.000000	97.503298 
2583.000000	97.503198 
2582.000000	97.503103 
2581.000000	97.503015 
2580.000000	97.502939 
2579.000000	97.502883 
2578.000000	97.502849 
2577.000000	97.502836 
2576.000000	97.502841 
2575.000000	97.502860 
2574.000000	97.502891 
2573.000000	97.502932 
2572.000000	97.502982 
2571.000000	97.503038 
2570.000000	97.503096 
2569.000000	97.503149 
2568.000000	97.503183 
2567.000000	97.503207 
2566.000000	97.503257 
2565.000000	97.503341 
2564.000000	97.503426 
2563.000000	97.503501 
2562.000000	97.503590 
2561.000000	97.503713 
2560.000000	97.503892 
2559.000000	97.504155 
2558.000000	97.504503 
2557.000000	97.504859 
2556.000000	97.505141 
2555.000000	97.505373 
2554.000000	97.505664 
2553.000000	97.506027 
2552.000000	97.506262 
2551.000000	97.506201 
2550.000000	97.506042 
2549.000000	97.506175 
2548.000000	97.506596 
2547.000000	97.506813 
2546.000000	97.506521 
2545.000000	97.506068 
2544.000000	97.506005 
2543.000000	97.506312 
2542.000000	97.506502 
2541.000000	97.506414 
2540.000000	97.506427 
2539.000000	97.506788 
2538.000000	97.507195 
2537.000000	97.507303 
2536.000000	97.507295 
2535.000000	97.507568 
2534.000000	97.508030 
2533.000000	97.508148 
2532.000000	97.507654 
2531.000000	97.506792 
2530.000000	97.505946 
2529.000000	97.505317 
2528.000000	97.504954 
2527.000000	97.504852 
2526.000000	97.504935 
2525.000000	97.505118 
2524.000000	97.505413 
2523.000000	97.505866 
2522.000000	97.506396 
2521.000000	97.506808 
2520.000000	97.506949 
2519.000000	97.506766 
2518.000000	97.506270 
2517.000000	97.505528 
2516.000000	97.504650 
2515.000000	97.503707 
2514.000000	97.502766 
2513.000000	97.502093 
2512.000000	97.502126 
2511.000000	97.503066 
2510.000000	97.504590 
2509.000000	97.506016 
2508.000000	97.506793 
2507.000000	97.506801 
2506.000000	97.506353 
2505.000000	97.506082 
2504.000000	97.506476 
2503.000000	97.507376 
2502.000000	97.508021 
2501.000000	97.507812 
2500.000000	97.506908 
2499.000000	97.506019 
2498.000000	97.505671 
2497.000000	97.505847 
2496.000000	97.506293 
2495.000000	97.506835 
2494.000000	97.507356 
2493.000000	97.507706 
2492.000000	97.507893 
2491.000000	97.508220 
2490.000000	97.509022 
2489.000000	97.510230 
2488.000000	97.511300 
2487.000000	97.511694 
2486.000000	97.511404 
2485.000000	97.510960 
2484.000000	97.510907 
2483.000000	97.511343 
2482.000000	97.511976 
2481.000000	97.512496 
2480.000000	97.512748 
2479.000000	97.512652 
2478.000000	97.512209 
2477.000000	97.511630 
2476.000000	97.511218 
2475.000000	97.510996 
2474.000000	97.510658 
2473.000000	97.510013 
2472.000000	97.509281 
2471.000000	97.508859 
2470.000000	97.508935 
2469.000000	97.509418 
2468.000000	97.510023 
2467.000000	97.510338 
2466.000000	97.510035 
2465.000000	97.509212 
2464.000000	97.508491 
2463.000000	97.508510 
2462.000000	97.509399 
2461.000000	97.510798 
2460.000000	97.512207 
2459.000000	97.513259 
2458.000000	97.513711 
2457.000000	97.513445 
2456.000000	97.512540 
2455.000000	97.511337 
2454.000000	97.510332 
2453.000000	97.509853 
2452.000000	97.509784 
2451.000000	97.509682 
2450.000000	97.509303 
2449.000000	97.508965 
2448.000000	97.509161 
2447.000000	97.509897 
2446.000000	97.510653 
2445.000000	97.510981 
2444.000000	97.510920 
2443.000000	97.510775 
2442.000000	97.510753 
2441.000000	97.510886 
2440.000000	97.511165 
2439.000000	97.511605 
2438.000000	97.512239 
2437.000000	97.513087 
2436.000000	97.514041 
2435.000000	97.514794 
2434.000000	97.515054 
2433.000000	97.514856 
2432.000000	97.514612 
2431.000000	97.514687 
2430.000000	97.515122 
2429.000000	97.515822 
2428.000000	97.516755 
2427.000000	97.517770 
2426.000000	97.518441 
2425.000000	97.518384 
2424.000000	97.517636 
2423.000000	97.516664 
2422.000000	97.515955 
2421.000000	97.515779 
2420.000000	97.516282 
2419.000000	97.517312 
2418.000000	97.518260 
2417.000000	97.518697 
2416.000000	97.518832 
2415.000000	97.519062 
2414.000000	97.519311 
2413.000000	97.519330 
2412.000000	97.519353 
2411.000000	97.519779 
2410.000000	97.520377 
2409.000000	97.520495 
2408.000000	97.520013 
2407.000000	97.519414 
2406.000000	97.519025 
2405.000000	97.518653 
2404.000000	97.517985 
2403.000000	97.516942 
2402.000000	97.515706 
2401.000000	97.514723 
2400.000000	97.514528 
2399.000000	97.515178 
2398.000000	97.516017 
2397.000000	97.516369 
2396.000000	97.516157 
2395.000000	97.515523 
2394.000000	97.514246 
2393.000000	97.512141 
2392.000000	97.509762 
2391.000000	97.507985 
2390.000000	97.506946 
2389.000000	97.505981 
2388.000000	97.504545 
2387.000000	97.502604 
2386.000000	97.500187 
2385.000000	97.497266 
2384.000000	97.494229 
2383.000000	97.491900 
2382.000000	97.490897 
2381.000000	97.491355 
2380.000000	97.493213 
2379.000000	97.496170 
2378.000000	97.499036 
2377.000000	97.499840 
2376.000000	97.497399 
2375.000000	97.492374 
2374.000000	97.486713 
2373.000000	97.481821 
2372.000000	97.477895 
2371.000000	97.474986 
2370.000000	97.473474 
2369.000000	97.473188 
2368.000000	97.472744 
2367.000000	97.470628 
2366.000000	97.466989 
2365.000000	97.463747 
2364.000000	97.462530 
2363.000000	97.462942 
2362.000000	97.463346 
2361.000000	97.462713 
2360.000000	97.460458 
2359.000000	97.456065 
2358.000000	97.450443 
2357.000000	97.446532 
2356.000000	97.446397 
2355.000000	97.448666 
2354.000000	97.449969 
2353.000000	97.447772 
2352.000000	97.442714 
2351.000000	97.436844 
2350.000000	97.431259 
2349.000000	97.427370 
2348.000000	97.427568 
2347.000000	97.430970 
2346.000000	97.430202 
2345.000000	97.420547 
2344.000000	97.406961 
2343.000000	97.397162 
2342.000000	97.394772 
2341.000000	97.399392 
2340.000000	97.407968 
2339.000000	97.415050 
2338.000000	97.416399 
2337.000000	97.411728 
2336.000000	97.404334 
2335.000000	97.397742 
2334.000000	97.392969 
2333.000000	97.387528 
2332.000000	97.378453 
2331.000000	97.365029 
2330.000000	97.347974 
2329.000000	97.328018 
2328.000000	97.306556 
2327.000000	97.287861 
2326.000000	97.275234 
2325.000000	97.269298 
2324.000000	97.269025 
2323.000000	97.273364 
2322.000000	97.279127 
2321.000000	97.280983 
2320.000000	97.278322 
2319.000000	97.277949 
2318.000000	97.286327 
2317.000000	97.301627 
2316.000000	97.315939 
2315.000000	97.323545 
2314.000000	97.323629 
2313.000000	97.318319 
2312.000000	97.310296 
2311.000000	97.303261 
2310.000000	97.299498 
2309.000000	97.298428 
2308.000000	97.298226 
2307.000000	97.299457 
2306.000000	97.303499 
2305.000000	97.309244 
2304.000000	97.313884 
2303.000000	97.317190 
2302.000000	97.321793 
2301.000000	97.328959 
2300.000000	97.336195 
2299.000000	97.339948 
2298.000000	97.339141 
2297.000000	97.335870 
2296.000000	97.333176 
2295.000000	97.333577 
2294.000000	97.337651 
2293.000000	97.344080 
2292.000000	97.350520 
2291.000000	97.355935 
2290.000000	97.360998 
2289.000000	97.366699 
2288.000000	97.372506 
2287.000000	97.376650 
2286.000000	97.378027 
2285.000000	97.377771 
2284.000000	97.378250 
2283.000000	97.380269 
2282.000000	97.381970 
2281.000000	97.380766 
2280.000000	97.376074 
2279.000000	97.369683 
2278.000000	97.364228 
2277.000000	97.361628 
2276.000000	97.362476 
2275.000000	97.365840 
2274.000000	97.369678 
2273.000000	97.372464 
2272.000000	97.374419 
2271.000000	97.376474 
2270.000000	97.378328 
2269.000000	97.378719 
2268.000000	97.377492 
2267.000000	97.376095 
2266.000000	97.375761 
2265.000000	97.376304 
2264.000000	97.376845 
2263.000000	97.376672 
2262.000000	97.375138 
2261.000000	97.371866 
2260.000000	97.367525 
2259.000000	97.363587 
2258.000000	97.360962 
2257.000000	97.359564 
2256.000000	97.359306 
2255.000000	97.360394 
2254.000000	97.362330 
2253.000000	97.363552 
2252.000000	97.362836 
2251.000000	97.360287 
2250.000000	97.356564 
2249.000000	97.352138 
2248.000000	97.347737 
2247.000000	97.344522 
2246.000000	97.342990 
2245.000000	97.342171 
2244.000000	97.340483 
2243.000000	97.337435 
2242.000000	97.333960 
2241.000000	97.331337 
2240.000000	97.329991 
2239.000000	97.329444 
2238.000000	97.328790 
2237.000000	97.327386 
2236.000000	97.325297 
2235.000000	97.323125 
2234.000000	97.321309 
2233.000000	97.319627 
2232.000000	97.317602 
2231.000000	97.315182 
2230.000000	97.312613 
2229.000000	97.309911 
2228.000000	97.306934 
2227.000000	97.303894 
2226.000000	97.301187 
2225.000000	97.298778 
2224.000000	97.296204 
2223.000000	97.293261 
2222.000000	97.290225 
2221.000000	97.287426 
2220.000000	97.284840 
2219.000000	97.282291 
2218.000000	97.279724 
2217.000000	97.277190 
2216.000000	97.274690 
2215.000000	97.272167 
2214.000000	97.269589 
2213.000000	97.266988 
2212.000000	97.264423 
2211.000000	97.261934 
2210.000000	97.259517 
2209.000000	97.257170 
2208.000000	97.254865 
2207.000000	97.252579 
2206.000000	97.250297 
2205.000000	97.248007 
2204.000000	97.245690 
2203.000000	97.243330 
2202.000000	97.241010 
2201.000000	97.238868 
2200.000000	97.236775 
2199.000000	97.234297 
2198.000000	97.231167 
2197.000000	97.227722 
2196.000000	97.224604 
2195.000000	97.222125 
2194.000000	97.220090 
2193.000000	97.218245 
2192.000000	97.216641 
2191.000000	97.215346 
2190.000000	97.214107 
2189.000000	97.212726 
2188.000000	97.211528 
2187.000000	97.210705 
2186.000000	97.209212 
2185.000000	97.205406 
2184.000000	97.199547 
2183.000000	97.194943 
2182.000000	97.195011 
2181.000000	97.199531 
2180.000000	97.204178 
2179.000000	97.204717 
2178.000000	97.200805 
2177.000000	97.195542 
2176.000000	97.192108 
2175.000000	97.191033 
2174.000000	97.190807 
2173.000000	97.190494 
2172.000000	97.191207 
2171.000000	97.194397 
2170.000000	97.198750 
2169.000000	97.200068 
2168.000000	97.195437 
2167.000000	97.186916 
2166.000000	97.179582 
2165.000000	97.175709 
2164.000000	97.172516 
2163.000000	97.166441 
2162.000000	97.158769 
2161.000000	97.155652 
2160.000000	97.162519 
2159.000000	97.179086 
2158.000000	97.199044 
2157.000000	97.214839 
2156.000000	97.223261 
2155.000000	97.226071 
2154.000000	97.227034 
2153.000000	97.229288 
2152.000000	97.233907 
2151.000000	97.239282 
2150.000000	97.242405 
2149.000000	97.242511 
2148.000000	97.243160 
2147.000000	97.248477 
2146.000000	97.257419 
2145.000000	97.264545 
2144.000000	97.267364 
2143.000000	97.269724 
2142.000000	97.276049 
2141.000000	97.285155 
2140.000000	97.292727 
2139.000000	97.298008 
2138.000000	97.304458 
2137.000000	97.314004 
2136.000000	97.323688 
2135.000000	97.328846 
2134.000000	97.327780 
2133.000000	97.323153 
2132.000000	97.320076 
2131.000000	97.322046 
2130.000000	97.327887 
2129.000000	97.332907 
2128.000000	97.333791 
2127.000000	97.331911 
2126.000000	97.331315 
2125.000000	97.334277 
2124.000000	97.339581 
2123.000000	97.344348 
2122.000000	97.346258 
2121.000000	97.344508 
2120.000000	97.340009 
2119.000000	97.334908 
2118.000000	97.331212 
2117.000000	97.329656 
2116.000000	97.329565 
2115.000000	97.329280 
2114.000000	97.326969 
2113.000000	97.322238 
2112.000000	97.317386 
2111.000000	97.315886 
2110.000000	97.318994 
2109.000000	97.324453 
2108.000000	97.328710 
2107.000000	97.329839 
2106.000000	97.328001 
2105.000000	97.324602 
2104.000000	97.321898 
2103.000000	97.321841 
2102.000000	97.323875 
2101.000000	97.324797 
2100.000000	97.322239 
2099.000000	97.317551 
2098.000000	97.314185 
2097.000000	97.313766 
2096.000000	97.315119 
2095.000000	97.316427 
2094.000000	97.316753 
2093.000000	97.315603 
2092.000000	97.312700 
2091.000000	97.308784 
2090.000000	97.305491 
2089.000000	97.303712 
2088.000000	97.302560 
2087.000000	97.300337 
2086.000000	97.296160 
2085.000000	97.290557 
2084.000000	97.284992 
2083.000000	97.280795 
2082.000000	97.278262 
2081.000000	97.276672 
2080.000000	97.275259 
2079.000000	97.273927 
2078.000000	97.272615 
2077.000000	97.270590 
2076.000000	97.267264 
2075.000000	97.263155 
2074.000000	97.259076 
2073.000000	97.254618 
2072.000000	97.248754 
2071.000000	97.241872 
2070.000000	97.235831 
2069.000000	97.231791 
2068.000000	97.229367 
2067.000000	97.227744 
2066.000000	97.226417 
2065.000000	97.224630 
2064.000000	97.221416 
2063.000000	97.216968 
2062.000000	97.213067 
2061.000000	97.211295 
2060.000000	97.211326 
2059.000000	97.211521 
2058.000000	97.210372 
2057.000000	97.207241 
2056.000000	97.202329 
2055.000000	97.196451 
2054.000000	97.190826 
2053.000000	97.186369 
2052.000000	97.183142 
2051.000000	97.180484 
2050.000000	97.177591 
2049.000000	97.174060 
2048.000000	97.170100 
2047.000000	97.166350 
2046.000000	97.163391 
2045.000000	97.161365 
2044.000000	97.160048 
2043.000000	97.159153 
2042.000000	97.158429 
2041.000000	97.157614 
2040.000000	97.156664 
2039.000000	97.156021 
2038.000000	97.156190 
2037.000000	97.156872 
2036.000000	97.156904 
2035.000000	97.155378 
2034.000000	97.152548 
2033.000000	97.149724 
2032.000000	97.148185 
2031.000000	97.148171 
2030.000000	97.148798 
2029.000000	97.148706 
2028.000000	97.147205 
2027.000000	97.144778 
2026.000000	97.142484 
2025.000000	97.140932 
2024.000000	97.140166 
2023.000000	97.140356 
2022.000000	97.141963 
2021.000000	97.144812 
2020.000000	97.147329 
2019.000000	97.147454 
2018.000000	97.144286 
2017.000000	97.138965 
2016.000000	97.134156 
2015.000000	97.131997 
2014.000000	97.132595 
2013.000000	97.133906 
2012.000000	97.133688 
2011.000000	97.132315 
2010.000000	97.132693 
2009.000000	97.136785 
2008.000000	97.143034 
2007.000000	97.148098 
2006.000000	97.150642 
2005.000000	97.151791 
2004.000000	97.152685 
2003.000000	97.153444 
2002.000000	97.154385 
2001.000000	97.155979 
2000.000000	97.157114 
1999.000000	97.155057 
1998.000000	97.148134 
1997.000000	97.138154 
1996.000000	97.129595 
1995.000000	97.126096 
1994.000000	97.127940 
1993.000000	97.132229 
1992.000000	97.135209 
1991.000000	97.135570 
1990.000000	97.135412 
1989.000000	97.137476 
1988.000000	97.141489 
1987.000000	97.143655 
1986.000000	97.140203 
1985.000000	97.131155 
1984.000000	97.120458 
1983.000000	97.112327 
1982.000000	97.108056 
1981.000000	97.106448 
1980.000000	97.106592 
1979.000000	97.109011 
1978.000000	97.113592 
1977.000000	97.118136 
1976.000000	97.120424 
1975.000000	97.121202 
1974.000000	97.123556 
1973.000000	97.129480 
1972.000000	97.137828 
1971.000000	97.145440 
1970.000000	97.149561 
1969.000000	97.149088 
1968.000000	97.144692 
1967.000000	97.138820 
1966.000000	97.135089 
1965.000000	97.136051 
1964.000000	97.141562 
1963.000000	97.149381 
1962.000000	97.157002 
1961.000000	97.162908 
1960.000000	97.166363 
1959.000000	97.167181 
1958.000000	97.166348 
1957.000000	97.166098 
1956.000000	97.168196 
1955.000000	97.172342 
1954.000000	97.176729 
1953.000000	97.180054 
1952.000000	97.182363 
1951.000000	97.184146 
1950.000000	97.185790 
1949.000000	97.187946 
1948.000000	97.191430 
1947.000000	97.196179 
1946.000000	97.200887 
1945.000000	97.204250 
1944.000000	97.206194 
1943.000000	97.207563 
1942.000000	97.209148 
1941.000000	97.211196 
1940.000000	97.213649 
1939.000000	97.216290 
1938.000000	97.218833 
1937.000000	97.221281 
1936.000000	97.223991 
1935.000000	97.227170 
1934.000000	97.230476 
1933.000000	97.233426 
1932.000000	97.236127 
1931.000000	97.239172 
1930.000000	97.242785 
1929.000000	97.246362 
1928.000000	97.249356 
1927.000000	97.251966 
1926.000000	97.254479 
1925.000000	97.256511 
1924.000000	97.257586 
1923.000000	97.258204 
1922.000000	97.259356 
1921.000000	97.261201 
1920.000000	97.263278 
1919.000000	97.265484 
1918.000000	97.267885 
1917.000000	97.269917 
1916.000000	97.271053 
1915.000000	97.272127 
1914.000000	97.274271 
1913.000000	97.277091 
1912.000000	97.279053 
1911.000000	97.279679 
1910.000000	97.280118 
1909.000000	97.281462 
1908.000000	97.283684 
1907.000000	97.286101 
1906.000000	97.287953 
1905.000000	97.288518 
1904.000000	97.287597 
1903.000000	97.286426 
1902.000000	97.286743 
1901.000000	97.288776 
1900.000000	97.291250 
1899.000000	97.292997 
1898.000000	97.293921 
1897.000000	97.294432 
1896.000000	97.294575 
1895.000000	97.294279 
1894.000000	97.293767 
1893.000000	97.293274 
1892.000000	97.292899 
1891.000000	97.292820 
1890.000000	97.293304 
1889.000000	97.294403 
1888.000000	97.295930 
1887.000000	97.297820 
1886.000000	97.299935 
1885.000000	97.301613 
1884.000000	97.302112 
1883.000000	97.301497 
1882.000000	97.300776 
1881.000000	97.300894 
1880.000000	97.301889 
1879.000000	97.303061 
1878.000000	97.303762 
1877.000000	97.304205 
1876.000000	97.305176 
1875.000000	97.307074 
1874.000000	97.309542 
1873.000000	97.311869 
1872.000000	97.313724 
1871.000000	97.315223 
1870.000000	97.316372 
1869.000000	97.317002 
1868.000000	97.317399 
1867.000000	97.318412 
1866.000000	97.320352 
1865.000000	97.322432 
1864.000000	97.323806 
1863.000000	97.324708 
1862.000000	97.326006 
1861.000000	97.327932 
1860.000000	97.329953 
1859.000000	97.331804 
1858.000000	97.333806 
1857.000000	97.336101 
1856.000000	97.338517 
1855.000000	97.341035 
1854.000000	97.343686 
1853.000000	97.346073 
1852.000000	97.347906 
1851.000000	97.349619 
1850.000000	97.351779 
1849.000000	97.354320 
1848.000000	97.356677 
1847.000000	97.358628 
1846.000000	97.360410 
1845.000000	97.362174 
1844.000000	97.363817 
1843.000000	97.365360 
1842.000000	97.367078 
1841.000000	97.369130 
1840.000000	97.371533 
1839.000000	97.374204 
1838.000000	97.376848 
1837.000000	97.378998 
1836.000000	97.380463 
1835.000000	97.381701 
1834.000000	97.383281 
1833.000000	97.385110 
1832.000000	97.386698 
1831.000000	97.387714 
1830.000000	97.388322 
1829.000000	97.389204 
1828.000000	97.390858 
1827.000000	97.393318 
1826.000000	97.396207 
1825.000000	97.398913 
1824.000000	97.400874 
1823.000000	97.402008 
1822.000000	97.402904 
1821.000000	97.404086 
1820.000000	97.405488 
1819.000000	97.406783 
1818.000000	97.408279 
1817.000000	97.410394 
1816.000000	97.412413 
1815.000000	97.413764 
1814.000000	97.414957 
1813.000000	97.416586 
1812.000000	97.417950 
1811.000000	97.417635 
1810.000000	97.416290 
1809.000000	97.415793 
1808.000000	97.416368 
1807.000000	97.417482 
1806.000000	97.419666 
1805.000000	97.423296 
1804.000000	97.426775 
1803.000000	97.428363 
1802.000000	97.428212 
1801.000000	97.428062 
1800.000000	97.428607 
1799.000000	97.428943 
1798.000000	97.429183 
1797.000000	97.429383 
1796.000000	97.428415 
1795.000000	97.426082 
1794.000000	97.423544 
1793.000000	97.421464 
1792.000000	97.418875 
1791.000000	97.415639 
1790.000000	97.414525 
1789.000000	97.417307 
1788.000000	97.422540 
1787.000000	97.427529 
1786.000000	97.431056 
1785.000000	97.433265 
1784.000000	97.434140 
1783.000000	97.434525 
1782.000000	97.435347 
1781.000000	97.436733 
1780.000000	97.438479 
1779.000000	97.440266 
1778.000000	97.442492 
1777.000000	97.444656 
1776.000000	97.445532 
1775.000000	97.444739 
1774.000000	97.443030 
1773.000000	97.442222 
1772.000000	97.443571 
1771.000000	97.445597 
1770.000000	97.446750 
1769.000000	97.447472 
1768.000000	97.448621 
1767.000000	97.450458 
1766.000000	97.452689 
1765.000000	97.455210 
1764.000000	97.457863 
1763.000000	97.459925 
1762.000000	97.460811 
1761.000000	97.461343 
1760.000000	97.462415 
1759.000000	97.463595 
1758.000000	97.464060 
1757.000000	97.463635 
1756.000000	97.463744 
1755.000000	97.464913 
1754.000000	97.465645 
1753.000000	97.464527 
1752.000000	97.462238 
1751.000000	97.461239 
1750.000000	97.462705 
1749.000000	97.465185 
1748.000000	97.466836 
1747.000000	97.467690 
1746.000000	97.468261 
1745.000000	97.469101 
1744.000000	97.470618 
1743.000000	97.472094 
1742.000000	97.472762 
1741.000000	97.473507 
1740.000000	97.475569 
1739.000000	97.478406 
1738.000000	97.480439 
1737.000000	97.481200 
1736.000000	97.480760 
1735.000000	97.478522 
1734.000000	97.474896 
1733.000000	97.471453 
1732.000000	97.470216 
1731.000000	97.472313 
1730.000000	97.476744 
1729.000000	97.480458 
1728.000000	97.481729 
1727.000000	97.481556 
1726.000000	97.481255 
1725.000000	97.481355 
1724.000000	97.481229 
1723.000000	97.480040 
1722.000000	97.478555 
1721.000000	97.477678 
1720.000000	97.477023 
1719.000000	97.475126 
1718.000000	97.471830 
1717.000000	97.468836 
1716.000000	97.465538 
1715.000000	97.461483 
1714.000000	97.458676 
1713.000000	97.457692 
1712.000000	97.456684 
1711.000000	97.455213 
1710.000000	97.454401 
1709.000000	97.454057 
1708.000000	97.452892 
1707.000000	97.450878 
1706.000000	97.449309 
1705.000000	97.447837 
1704.000000	97.443686 
1703.000000	97.436056 
1702.000000	97.426898 
1701.000000	97.419958 
1700.000000	97.417302 
1699.000000	97.415260 
1698.000000	97.413671 
1697.000000	97.414117 
1696.000000	97.414910 
1695.000000	97.413840 
1694.000000	97.411183 
1693.000000	97.408293 
1692.000000	97.405270 
1691.000000	97.401616 
1690.000000	97.397328 
1689.000000	97.392621 
1688.000000	97.388036 
1687.000000	97.383964 
1686.000000	97.380616 
1685.000000	97.378269 
1684.000000	97.375370 
1683.000000	97.370724 
1682.000000	97.366319 
1681.000000	97.362890 
1680.000000	97.360556 
1679.000000	97.359017 
1678.000000	97.357215 
1677.000000	97.354107 
1676.000000	97.349710 
1675.000000	97.344954 
1674.000000	97.338912 
1673.000000	97.331663 
1672.000000	97.325226 
1671.000000	97.320655 
1670.000000	97.316982 
1669.000000	97.312353 
1668.000000	97.308601 
1667.000000	97.308169 
1666.000000	97.309153 
1665.000000	97.309458 
1664.000000	97.309437 
1663.000000	97.310176 
1662.000000	97.309304 
1661.000000	97.303473 
1660.000000	97.296269 
1659.000000	97.292919 
1658.000000	97.292443 
1657.000000	97.290881 
1656.000000	97.286728 
1655.000000	97.280323 
1654.000000	97.270694 
1653.000000	97.260670 
1652.000000	97.248984 
1651.000000	97.240747 
1650.000000	97.235840 
1649.000000	97.232384 
1648.000000	97.228355 
1647.000000	97.225693 
1646.000000	97.226778 
1645.000000	97.229685 
1644.000000	97.231219 
1643.000000	97.231450 
1642.000000	97.232324 
1641.000000	97.233249 
1640.000000	97.233877 
1639.000000	97.233981 
1638.000000	97.233558 
1637.000000	97.231920 
1636.000000	97.228497 
1635.000000	97.225472 
1634.000000	97.224623 
1633.000000	97.225711 
1632.000000	97.226221 
1631.000000	97.226890 
1630.000000	97.229955 
1629.000000	97.234782 
1628.000000	97.238134 
1627.000000	97.239707 
1626.000000	97.241514 
1625.000000	97.244806 
1624.000000	97.250560 
1623.000000	97.258878 
1622.000000	97.266764 
1621.000000	97.270677 
1620.000000	97.272143 
1619.000000	97.274630 
1618.000000	97.278849 
1617.000000	97.280906 
1616.000000	97.278654 
1615.000000	97.277337 
1614.000000	97.280711 
1613.000000	97.285653 
1612.000000	97.288385 
1611.000000	97.289424 
1610.000000	97.291119 
1609.000000	97.294302 
1608.000000	97.299308 
1607.000000	97.306035 
1606.000000	97.311917 
1605.000000	97.314821 
1604.000000	97.316967 
1603.000000	97.321142 
1602.000000	97.326766 
1601.000000	97.331580 
1600.000000	97.335107 
1599.000000	97.338391 
1598.000000	97.341785 
1597.000000	97.345188 
1596.000000	97.348903 
1595.000000	97.353207 
1594.000000	97.357673 
1593.000000	97.361674 
1592.000000	97.365298 
1591.000000	97.369040 
1590.000000	97.372976 
1589.000000	97.376820 
1588.000000	97.380572 
1587.000000	97.384462 
1586.000000	97.388444 
1585.000000	97.392121 
1584.000000	97.395498 
1583.000000	97.399015 
1582.000000	97.402703 
1581.000000	97.406230 
1580.000000	97.409559 
1579.000000	97.412990 
1578.000000	97.416671 
1577.000000	97.420544 
1576.000000	97.424377 
1575.000000	97.427851 
1574.000000	97.430864 
1573.000000	97.433644 
1572.000000	97.436584 
1571.000000	97.439907 
1570.000000	97.443326 
1569.000000	97.446183 
1568.000000	97.448594 
1567.000000	97.451122 
1566.000000	97.453814 
1565.000000	97.456420 
1564.000000	97.458927 
1563.000000	97.461348 
1562.000000	97.463671 
1561.000000	97.465691 
1560.000000	97.467858 
1559.000000	97.470445 
1558.000000	97.472791 
1557.000000	97.474817 
1556.000000	97.476920 
1555.000000	97.479157 
1554.000000	97.481350 
1553.000000	97.483389 
1552.000000	97.485329 
1551.000000	97.487063 
1550.000000	97.488502 
1549.000000	97.489786 
1548.000000	97.491123 
1547.000000	97.492547 
1546.000000	97.493883 
1545.000000	97.494996 
1544.000000	97.495939 
1543.000000	97.496839 
1542.000000	97.497787 
1541.000000	97.498799 
1540.000000	97.499661 
1539.000000	97.500229 
1538.000000	97.500603 
1537.000000	97.500911 
1536.000000	97.501206 
1535.000000	97.501539 
1534.000000	97.501927 
1533.000000	97.502314 
1532.000000	97.502606 
1531.000000	97.502788 
1530.000000	97.502935 
1529.000000	97.503127 
1528.000000	97.503318 
1527.000000	97.503405 
1526.000000	97.503358 
1525.000000	97.503281 
1524.000000	97.503347 
1523.000000	97.503671 
1522.000000	97.504140 
1521.000000	97.504212 
1520.000000	97.503463 
1519.000000	97.502200 
1518.000000	97.500962 
1517.000000	97.499950 
1516.000000	97.499073 
1515.000000	97.498474 
1514.000000	97.498512 
1513.000000	97.499234 
1512.000000	97.499993 
1511.000000	97.499737 
1510.000000	97.498289 
1509.000000	97.496231 
1508.000000	97.494679 
1507.000000	97.493946 
1506.000000	97.493679 
1505.000000	97.493046 
1504.000000	97.491735 
1503.000000	97.489896 
1502.000000	97.487935 
1501.000000	97.486302 
1500.000000	97.485432 
1499.000000	97.484968 
1498.000000	97.483979 
1497.000000	97.482960 
1496.000000	97.482625 
1495.000000	97.482800 
1494.000000	97.483801 
1493.000000	97.486177 
1492.000000	97.489390 
1491.000000	97.491891 
1490.000000	97.492608 
1489.000000	97.492151 
1488.000000	97.490760 
1487.000000	97.488065 
1486.000000	97.485016 
1485.000000	97.481563 
1484.000000	97.477763 
1483.000000	97.475044 
1482.000000	97.474114 
1481.000000	97.474175 
1480.000000	97.473602 
1479.000000	97.472148 
1478.000000	97.470724 
1477.000000	97.469656 
1476.000000	97.467750 
1475.000000	97.464395 
1474.000000	97.461269 
1473.000000	97.460571 
1472.000000	97.462078 
1471.000000	97.463116 
1470.000000	97.462599 
1469.000000	97.461192 
1468.000000	97.459217 
1467.000000	97.456865 
1466.000000	97.455154 
1465.000000	97.454981 
1464.000000	97.455837 
1463.000000	97.455855 
1462.000000	97.454316 
1461.000000	97.452282 
1460.000000	97.451133 
1459.000000	97.451050 
1458.000000	97.450547 
1457.000000	97.448599 
1456.000000	97.446230 
1455.000000	97.444186 
1454.000000	97.442165 
1453.000000	97.440622 
1452.000000	97.440347 
1451.000000	97.441350 
1450.000000	97.443109 
1449.000000	97.445211 
1448.000000	97.446732 
1447.000000	97.446884 
1446.000000	97.445907 
1445.000000	97.445030 
1444.000000	97.445510 
1443.000000	97.446595 
1442.000000	97.446961 
1441.000000	97.446570 
1440.000000	97.446255 
1439.000000	97.445512 
1438.000000	97.443027 
1437.000000	97.439752 
1436.000000	97.438245 
1435.000000	97.438084 
1434.000000	97.437774 
1433.000000	97.437844 
1432.000000	97.438935 
1431.000000	97.440396 
1430.000000	97.441069 
1429.000000	97.441356 
1428.000000	97.441691 
1427.000000	97.442267 
1426.000000	97.443444 
1425.000000	97.445709 
1424.000000	97.449815 
1423.000000	97.453501 
1422.000000	97.454422 
1421.000000	97.454255 
1420.000000	97.456634 
1419.000000	97.459765 
1418.000000	97.457983 
1417.000000	97.453353 
1416.000000	97.452148 
1415.000000	97.454792 
1414.000000	97.456842 
1413.000000	97.455631 
1412.000000	97.453486 
1411.000000	97.453003 
1410.000000	97.453667 
1409.000000	97.455136 
1408.000000	97.458020 
1407.000000	97.462272 
1406.000000	97.466861 
1405.000000	97.471555 
1404.000000	97.477697 
1403.000000	97.484015 
1402.000000	97.488067 
1401.000000	97.490983 
1400.000000	97.496111 
1399.000000	97.503745 
1398.000000	97.510067 
1397.000000	97.513022 
1396.000000	97.514531 
1395.000000	97.517368 
1394.000000	97.521759 
1393.000000	97.527137 
1392.000000	97.534545 
1391.000000	97.543762 
1390.000000	97.552368 
1389.000000	97.558105 
1388.000000	97.560634 
1387.000000	97.561361 
1386.000000	97.562151 
1385.000000	97.564525 
1384.000000	97.569427 
1383.000000	97.576234 
1382.000000	97.583048 
1381.000000	97.588572 
1380.000000	97.592849 
1379.000000	97.596812 
1378.000000	97.601468 
1377.000000	97.607387 
1376.000000	97.614297 
1375.000000	97.620910 
1374.000000	97.625572 
1373.000000	97.628505 
1372.000000	97.631925 
1371.000000	97.637586 
1370.000000	97.644833 
1369.000000	97.651258 
1368.000000	97.656157 
1367.000000	97.660843 
1366.000000	97.666315 
1365.000000	97.672241 
1364.000000	97.677176 
1363.000000	97.679597 
1362.000000	97.679629 
1361.000000	97.679548 
1360.000000	97.681917 
1359.000000	97.687651 
1358.000000	97.695312 
1357.000000	97.702241 
1356.000000	97.706985 
1355.000000	97.710119 
1354.000000	97.712910 
1353.000000	97.716615 
1352.000000	97.721288 
1351.000000	97.726784 
1350.000000	97.733001 
1349.000000	97.738330 
1348.000000	97.741572 
1347.000000	97.743292 
1346.000000	97.744936 
1345.000000	97.747131 
1344.000000	97.749758 
1343.000000	97.753157 
1342.000000	97.757668 
1341.000000	97.761926 
1340.000000	97.763378 
1339.000000	97.761413 
1338.000000	97.758365 
1337.000000	97.757029 
1336.000000	97.757968 
1335.000000	97.759488 
1334.000000	97.759818 
1333.000000	97.758842 
1332.000000	97.757504 
1331.000000	97.756604 
1330.000000	97.756168 
1329.000000	97.755971 
1328.000000	97.756174 
1327.000000	97.757541 
1326.000000	97.760092 
1325.000000	97.762151 
1324.000000	97.762440 
1323.000000	97.761061 
1322.000000	97.758654 
1321.000000	97.755854 
1320.000000	97.753606 
1319.000000	97.752762 
1318.000000	97.753149 
1317.000000	97.753867 
1316.000000	97.754107 
1315.000000	97.753254 
1314.000000	97.751113 
1313.000000	97.749086 
1312.000000	97.749603 
1311.000000	97.753213 
1310.000000	97.757179 
1309.000000	97.758676 
1308.000000	97.758089 
1307.000000	97.758109 
1306.000000	97.759901 
1305.000000	97.761843 
1304.000000	97.762465 
1303.000000	97.761819 
1302.000000	97.760352 
1301.000000	97.758328 
1300.000000	97.756781 
1299.000000	97.757204 
1298.000000	97.759553 
1297.000000	97.761688 
1296.000000	97.761527 
1295.000000	97.759280 
1294.000000	97.756925 
1293.000000	97.756152 
1292.000000	97.757090 
1291.000000	97.758558 
1290.000000	97.759371 
1289.000000	97.759428 
1288.000000	97.759364 
1287.000000	97.759293 
1286.000000	97.758605 
1285.000000	97.757399 
1284.000000	97.757168 
1283.000000	97.758878 
1282.000000	97.761144 
1281.000000	97.761441 
1280.000000	97.758986 
1279.000000	97.755520 
1278.000000	97.753404 
1277.000000	97.753767 
1276.000000	97.756255 
1275.000000	97.759578 
1274.000000	97.762048 
1273.000000	97.762656 
1272.000000	97.762022 
1271.000000	97.761553 
1270.000000	97.761575 
1269.000000	97.761042 
1268.000000	97.759171 
1267.000000	97.756068 
1266.000000	97.751847 
1265.000000	97.747008 
1264.000000	97.743673 
1263.000000	97.744344 
1262.000000	97.748786 
1261.000000	97.753504 
1260.000000	97.755654 
1259.000000	97.756304 
1258.000000	97.758215 
1257.000000	97.761437 
1256.000000	97.762813 
1255.000000	97.760274 
1254.000000	97.756329 
1253.000000	97.755529 
1252.000000	97.758490 
1251.000000	97.760598 
1250.000000	97.757995 
1249.000000	97.753079 
1248.000000	97.751764 
1247.000000	97.755822 
1246.000000	97.760850 
1245.000000	97.762377 
1244.000000	97.760678 
1243.000000	97.758370 
1242.000000	97.756563 
1241.000000	97.755615 
1240.000000	97.756910 
1239.000000	97.760722 
1238.000000	97.763904 
1237.000000	97.762706 
1236.000000	97.757015 
1235.000000	97.749563 
1234.000000	97.741904 
1233.000000	97.733547 
1232.000000	97.724407 
1231.000000	97.715573 
1230.000000	97.707888 
1229.000000	97.701639 
1228.000000	97.696989 
1227.000000	97.692901 
1226.000000	97.686440 
1225.000000	97.675151 
1224.000000	97.659635 
1223.000000	97.642175 
1222.000000	97.623638 
1221.000000	97.603671 
1220.000000	97.583154 
1219.000000	97.563834 
1218.000000	97.545346 
1217.000000	97.524872 
1216.000000	97.500086 
1215.000000	97.471064 
1214.000000	97.439809 
1213.000000	97.409564 
1212.000000	97.383634 
1211.000000	97.362151 
1210.000000	97.340296 
1209.000000	97.312345 
1208.000000	97.277772 
1207.000000	97.241626 
1206.000000	97.208875 
1205.000000	97.179955 
1204.000000	97.151923 
1203.000000	97.121981 
1202.000000	97.089422 
1201.000000	97.055626 
1200.000000	97.022670 
1199.000000	96.991128 
1198.000000	96.959279 
1197.000000	96.925414 
1196.000000	96.890290 
1195.000000	96.856201 
1194.000000	96.824324 
1193.000000	96.793977 
1192.000000	96.763757 
1191.000000	96.732129 
1190.000000	96.697768 
1189.000000	96.660667 
1188.000000	96.622219 
1187.000000	96.583286 
1186.000000	96.543417 
1185.000000	96.502906 
1184.000000	96.463647 
1183.000000	96.426396 
1182.000000	96.389245 
1181.000000	96.350594 
1180.000000	96.311370 
1179.000000	96.272032 
1178.000000	96.229757 
1177.000000	96.181823 
1176.000000	96.129838 
1175.000000	96.077396 
1174.000000	96.025234 
1173.000000	95.972100 
1172.000000	95.918718 
1171.000000	95.866665 
1170.000000	95.814621 
1169.000000	95.760373 
1168.000000	95.705962 
1167.000000	95.656600 
1166.000000	95.615327 
1165.000000	95.583396 
1164.000000	95.564968 
1163.000000	95.565240 
1162.000000	95.582794 
1161.000000	95.608225 
1160.000000	95.631341 
1159.000000	95.645955 
1158.000000	95.647858 
1157.000000	95.633705 
1156.000000	95.603710 
1155.000000	95.561719 
1154.000000	95.511294 
1153.000000	95.454706 
1152.000000	95.396090 
1151.000000	95.341136 
1150.000000	95.291902 
1149.000000	95.245474 
1148.000000	95.198946 
1147.000000	95.152025 
1146.000000	95.103907 
1145.000000	95.052044 
1144.000000	94.996026 
1143.000000	94.939247 
1142.000000	94.884663 
1141.000000	94.831588 
1140.000000	94.777922 
1139.000000	94.722672 
1138.000000	94.665488 
1137.000000	94.606835 
1136.000000	94.549058 
1135.000000	94.493833 
1134.000000	94.438305 
1133.000000	94.377907 
1132.000000	94.313388 
1131.000000	94.250422 
1130.000000	94.191246 
1129.000000	94.131517 
1128.000000	94.067122 
1127.000000	93.999346 
1126.000000	93.931012 
1125.000000	93.861728 
1124.000000	93.789861 
1123.000000	93.716251 
1122.000000	93.643445 
1121.000000	93.573371 
1120.000000	93.507036 
1119.000000	93.444038 
1118.000000	93.381777 
1117.000000	93.318039 
1116.000000	93.254587 
1115.000000	93.195146 
1114.000000	93.140109 
1113.000000	93.086825 
1112.000000	93.034574 
1111.000000	92.984871 
1110.000000	92.936875 
1109.000000	92.887317 
1108.000000	92.834947 
1107.000000	92.780707 
1106.000000	92.724538 
1105.000000	92.666468 
1104.000000	92.609380 
1103.000000	92.556052 
1102.000000	92.504206 
1101.000000	92.450816 
1100.000000	92.397977 
1099.000000	92.349056 
1098.000000	92.301935 
1097.000000	92.251920 
1096.000000	92.200186 
1095.000000	92.150873 
1094.000000	92.101912 
1093.000000	92.047484 
1092.000000	91.989001 
1091.000000	91.934535 
1090.000000	91.886964 
1089.000000	91.841100 
1088.000000	91.792922 
1087.000000	91.743195 
1086.000000	91.691662 
1085.000000	91.636625 
1084.000000	91.581367 
1083.000000	91.532425 
1082.000000	91.489923 
1081.000000	91.447524 
1080.000000	91.402891 
1079.000000	91.360017 
1078.000000	91.320242 
1077.000000	91.279226 
1076.000000	91.233999 
1075.000000	91.184876 
1074.000000	91.129746 
1073.000000	91.064956 
1072.000000	90.992453 
1071.000000	90.917241 
1070.000000	90.836727 
1069.000000	90.741892 
1068.000000	90.630930 
1067.000000	90.513434 
1066.000000	90.399385 
1065.000000	90.291745 
1064.000000	90.190717 
1063.000000	90.095224 
1062.000000	89.997737 
1061.000000	89.887544 
1060.000000	89.762895 
1059.000000	89.632389 
1058.000000	89.502163 
1057.000000	89.369726 
1056.000000	89.232218 
1055.000000	89.091296 
1054.000000	88.946630 
1053.000000	88.793549 
1052.000000	88.631571 
1051.000000	88.467504 
1050.000000	88.305815 
1049.000000	88.143601 
1048.000000	87.978320 
1047.000000	87.812077 
1046.000000	87.646315 
1045.000000	87.480654 
1044.000000	87.317674 
1043.000000	87.160617 
1042.000000	87.006451 
1041.000000	86.849864 
1040.000000	86.693725 
1039.000000	86.546185 
1038.000000	86.408104 
1037.000000	86.273798 
1036.000000	86.143786 
1035.000000	86.025672 
1034.000000	85.922444 
1033.000000	85.830941 
1032.000000	85.751202 
1031.000000	85.685354 
1030.000000	85.628041 
1029.000000	85.571089 
1028.000000	85.517794 
1027.000000	85.479256 
1026.000000	85.456070 
1025.000000	85.436675 
1024.000000	85.414309 
1023.000000	85.392265 
1022.000000	85.371552 
1021.000000	85.347321 
1020.000000	85.319341 
1019.000000	85.293191 
1018.000000	85.269385 
1017.000000	85.243357 
1016.000000	85.216961 
1015.000000	85.197420 
1014.000000	85.184238 
1013.000000	85.169853 
1012.000000	85.153930 
1011.000000	85.144306 
1010.000000	85.143331 
1009.000000	85.146125 
1008.000000	85.152587 
1007.000000	85.168144 
1006.000000	85.192590 
1005.000000	85.221397 
1004.000000	85.257494 
1003.000000	85.307443 
1002.000000	85.366158 
1001.000000	85.420537 
1000.000000	85.469360 
999.000000	 85.524708 
998.000000	 85.592124 
997.000000	 85.663994 
996.000000	 85.734497 
995.000000	 85.807236 
994.000000	 85.885555 
993.000000	 85.968211 
992.000000	 86.056319 
991.000000	 86.151758 
990.000000	 86.247713 
989.000000	 86.334233 
988.000000	 86.414703 
987.000000	 86.503557 
986.000000	 86.606614 
985.000000	 86.716912 
984.000000	 86.830368 
983.000000	 86.951038 
982.000000	 87.079102 
981.000000	 87.208134 
980.000000	 87.337065 
979.000000	 87.471418 
978.000000	 87.610270 
977.000000	 87.745710 
976.000000	 87.878017 
975.000000	 88.017602 
974.000000	 88.168168 
973.000000	 88.320831 
972.000000	 88.468927 
971.000000	 88.616438 
970.000000	 88.767252 
969.000000	 88.917388 
968.000000	 89.062562 
967.000000	 89.203888 
966.000000	 89.342603 
965.000000	 89.478303 
964.000000	 89.614703 
963.000000	 89.757307 
962.000000	 89.903020 
961.000000	 90.041938 
960.000000	 90.171306 
959.000000	 90.297472 
958.000000	 90.422288 
957.000000	 90.538858 
956.000000	 90.644104 
955.000000	 90.744859 
954.000000	 90.847232 
953.000000	 90.948814 
952.000000	 91.045338 
951.000000	 91.136389 
950.000000	 91.221309 
949.000000	 91.298128 
948.000000	 91.369686 
947.000000	 91.442294 
946.000000	 91.515188 
945.000000	 91.579806 
944.000000	 91.632592 
943.000000	 91.680210 
942.000000	 91.729029 
941.000000	 91.777765 
940.000000	 91.824174 
939.000000	 91.870542 
938.000000	 91.918269 
937.000000	 91.964489 
936.000000	 92.008202 
935.000000	 92.053083 
934.000000	 92.100788 
933.000000	 92.148148 
932.000000	 92.193826 
931.000000	 92.240781 
930.000000	 92.289196 
929.000000	 92.334093 
928.000000	 92.373524 
927.000000	 92.412573 
926.000000	 92.455341 
925.000000	 92.498048 
924.000000	 92.533259 
923.000000	 92.556754 
922.000000	 92.569087 
921.000000	 92.575498 
920.000000	 92.585114 
919.000000	 92.604341 
918.000000	 92.629558 
917.000000	 92.651391 
916.000000	 92.666889 
915.000000	 92.682310 
914.000000	 92.704574 
913.000000	 92.736642 
912.000000	 92.780738 
911.000000	 92.838271 
910.000000	 92.905960 
909.000000	 92.979473 
908.000000	 93.061259 
907.000000	 93.157425 
906.000000	 93.267148 
905.000000	 93.382818 
904.000000	 93.500242 
903.000000	 93.620636 
902.000000	 93.742882 
901.000000	 93.862328 
900.000000	 93.977791 
899.000000	 94.092459 
898.000000	 94.207837 
897.000000	 94.323027 
896.000000	 94.437980 
895.000000	 94.550201 
894.000000	 94.651228 
893.000000	 94.735676 
892.000000	 94.811790 
891.000000	 94.893435 
890.000000	 94.982234 
889.000000	 95.067009 
888.000000	 95.140125 
887.000000	 95.204647 
886.000000	 95.266186 
885.000000	 95.327791 
884.000000	 95.392598 
883.000000	 95.460878 
882.000000	 95.524326 
881.000000	 95.574758 
880.000000	 95.619552 
879.000000	 95.676758 
878.000000	 95.752289 
877.000000	 95.833253 
876.000000	 95.906303 
875.000000	 95.970816 
874.000000	 96.031682 
873.000000	 96.091939 
872.000000	 96.156642 
871.000000	 96.232116 
870.000000	 96.315897 
869.000000	 96.396852 
868.000000	 96.469342 
867.000000	 96.538432 
866.000000	 96.608190 
865.000000	 96.674579 
864.000000	 96.734368 
863.000000	 96.792274 
862.000000	 96.853657 
861.000000	 96.916653 
860.000000	 96.976684 
859.000000	 97.033103 
858.000000	 97.087313 
857.000000	 97.139538 
856.000000	 97.190671 
855.000000	 97.242109 
854.000000	 97.290729 
853.000000	 97.329190 
852.000000	 97.354374 
851.000000	 97.371731 
850.000000	 97.389787 
849.000000	 97.414261 
848.000000	 97.447297 
847.000000	 97.485935 
846.000000	 97.520701 
845.000000	 97.543007 
844.000000	 97.555326 
843.000000	 97.567603 
842.000000	 97.582744 
841.000000	 97.592837 
840.000000	 97.590724 
839.000000	 97.577364 
838.000000	 97.556697 
837.000000	 97.531944 
836.000000	 97.509741 
835.000000	 97.499364 
834.000000	 97.502925 
833.000000	 97.512407 
832.000000	 97.519895 
831.000000	 97.524858 
830.000000	 97.529040 
829.000000	 97.531378 
828.000000	 97.531666 
827.000000	 97.532807 
826.000000	 97.536475 
825.000000	 97.543815 
824.000000	 97.561954 
823.000000	 97.598574 
822.000000	 97.646426 
821.000000	 97.685684 
820.000000	 97.706261 
819.000000	 97.716941 
818.000000	 97.728665 
817.000000	 97.738197 
816.000000	 97.733853 
815.000000	 97.710647 
814.000000	 97.673595 
813.000000	 97.629407 
812.000000	 97.579220 
811.000000	 97.516705 
810.000000	 97.429831 
809.000000	 97.307176 
808.000000	 97.146004 
807.000000	 96.954103 
806.000000	 96.744503 
805.000000	 96.530837 
804.000000	 96.325855 
803.000000	 96.137614 
802.000000	 95.966410 
801.000000	 95.812176 
800.000000	 95.684934 
799.000000	 95.599634 
798.000000	 95.559931 
797.000000	 95.555574 
796.000000	 95.575824 
795.000000	 95.615483 
794.000000	 95.667295 
793.000000	 95.720522 
792.000000	 95.770524 
791.000000	 95.819946 
790.000000	 95.867476 
789.000000	 95.904217 
788.000000	 95.923227 
787.000000	 95.924034 
786.000000	 95.906263 
785.000000	 95.867557 
784.000000	 95.809713 
783.000000	 95.739001 
782.000000	 95.659982 
781.000000	 95.578228 
780.000000	 95.508390 
779.000000	 95.467142 
778.000000	 95.456479 
777.000000	 95.465987 
776.000000	 95.492933 
775.000000	 95.545493 
774.000000	 95.622137 
773.000000	 95.703308 
772.000000	 95.771546 
771.000000	 95.828372 
770.000000	 95.884095 
769.000000	 95.941729 
768.000000	 95.997651 
767.000000	 96.047422 
766.000000	 96.083742 
765.000000	 96.098904 
764.000000	 96.097591 
763.000000	 96.098766 
762.000000	 96.116591 
761.000000	 96.146408 
760.000000	 96.175757 
759.000000	 96.200369 
758.000000	 96.222120 
757.000000	 96.241168 
756.000000	 96.260720 
755.000000	 96.292289 
754.000000	 96.343857 
753.000000	 96.405342 
752.000000	 96.455287 
751.000000	 96.481867 
750.000000	 96.491826 
749.000000	 96.500690 
748.000000	 96.519399 
747.000000	 96.549258 
746.000000	 96.585114 
745.000000	 96.622694 
744.000000	 96.663795 
743.000000	 96.712710 
742.000000	 96.767706 
741.000000	 96.820509 
740.000000	 96.865640 
739.000000	 96.905871 
738.000000	 96.946795 
737.000000	 96.989978 
736.000000	 97.033048 
735.000000	 97.072976 
734.000000	 97.107821 
733.000000	 97.138580 
732.000000	 97.169666 
731.000000	 97.203493 
730.000000	 97.234296 
729.000000	 97.251773 
728.000000	 97.253068 
727.000000	 97.246579 
726.000000	 97.244046 
725.000000	 97.255037 
724.000000	 97.285153 
723.000000	 97.329611 
722.000000	 97.370511 
721.000000	 97.392300 
720.000000	 97.401252 
719.000000	 97.417469 
718.000000	 97.447080 
717.000000	 97.477602 
716.000000	 97.498857 
715.000000	 97.511936 
714.000000	 97.517318 
713.000000	 97.511170 
712.000000	 97.499973 
711.000000	 97.501732 
710.000000	 97.523408 
709.000000	 97.549992 
708.000000	 97.563653 
707.000000	 97.563150 
706.000000	 97.554253 
705.000000	 97.536279 
704.000000	 97.509191 
703.000000	 97.479802 
702.000000	 97.450342 
701.000000	 97.409473 
700.000000	 97.344414 
699.000000	 97.257067 
698.000000	 97.158949 
697.000000	 97.060741 
696.000000	 96.975776 
695.000000	 96.921843 
694.000000	 96.910269 
693.000000	 96.935488 
692.000000	 96.982079 
691.000000	 97.039665 
690.000000	 97.102981 
689.000000	 97.165227 
688.000000	 97.218726 
687.000000	 97.257760 
686.000000	 97.279957 
685.000000	 97.289072 
684.000000	 97.297016 
683.000000	 97.315715 
682.000000	 97.342985 
681.000000	 97.366059 
680.000000	 97.379852 
679.000000	 97.394366 
678.000000	 97.416872 
677.000000	 97.442909 
676.000000	 97.473702 
675.000000	 97.513886 
674.000000	 97.556020 
673.000000	 97.585723 
672.000000	 97.602585 
671.000000	 97.629038 
670.000000	 97.695571 
669.000000	 97.801378 
668.000000	 97.854111 
667.000000	 97.811283 
666.000000	 97.763524 
665.000000	 97.740694 
664.000000	 97.718317 
663.000000	 97.697127 
662.000000	 97.696145 
661.000000	 97.713483 
660.000000	 97.736127 
659.000000	 97.761067 
658.000000	 97.787523 
657.000000	 97.802555 
656.000000	 97.801932 
655.000000	 97.796245 
654.000000	 97.790119 
653.000000	 97.774155 
652.000000	 97.747108 
651.000000	 97.725705 
650.000000	 97.719889 

