4000.000000	96.999808 
3999.000000	96.998827 
3998.000000	96.997484 
3997.000000	96.996332 
3996.000000	96.995692 
3995.000000	96.995610 
3994.000000	96.995961 
3993.000000	96.996450 
3992.000000	96.996715 
3991.000000	96.996548 
3990.000000	96.996043 
3989.000000	96.995494 
3988.000000	96.995111 
3987.000000	96.994912 
3986.000000	96.994865 
3985.000000	96.994940 
3984.000000	96.995023 
3983.000000	96.994933 
3982.000000	96.994671 
3981.000000	96.994478 
3980.000000	96.994486 
3979.000000	96.994405 
3978.000000	96.993824 
3977.000000	96.992736 
3976.000000	96.991597 
3975.000000	96.990804 
3974.000000	96.990296 
3973.000000	96.989768 
3972.000000	96.989019 
3971.000000	96.988104 
3970.000000	96.987260 
3969.000000	96.986757 
3968.000000	96.986694 
3967.000000	96.986887 
3966.000000	96.986986 
3965.000000	96.986703 
3964.000000	96.985959 
3963.000000	96.984869 
3962.000000	96.983701 
3961.000000	96.982741 
3960.000000	96.982068 
3959.000000	96.981549 
3958.000000	96.981026 
3957.000000	96.980488 
3956.000000	96.979980 
3955.000000	96.979465 
3954.000000	96.978885 
3953.000000	96.978250 
3952.000000	96.977627 
3951.000000	96.977035 
3950.000000	96.976438 
3949.000000	96.975795 
3948.000000	96.975104 
3947.000000	96.974437 
3946.000000	96.973880 
3945.000000	96.973361 
3944.000000	96.972634 
3943.000000	96.971607 
3942.000000	96.970573 
3941.000000	96.969906 
3940.000000	96.969593 
3939.000000	96.969262 
3938.000000	96.968672 
3937.000000	96.968111 
3936.000000	96.967957 
3935.000000	96.968044 
3934.000000	96.967802 
3933.000000	96.967012 
3932.000000	96.966129 
3931.000000	96.965584 
3930.000000	96.965377 
3929.000000	96.965504 
3928.000000	96.966066 
3927.000000	96.966758 
3926.000000	96.966715 
3925.000000	96.965584 
3924.000000	96.964204 
3923.000000	96.963465 
3922.000000	96.963166 
3921.000000	96.962707 
3920.000000	96.962037 
3919.000000	96.961494 
3918.000000	96.961040 
3917.000000	96.960443 
3916.000000	96.959844 
3915.000000	96.959593 
3914.000000	96.959656 
3913.000000	96.959705 
3912.000000	96.959586 
3911.000000	96.959478 
3910.000000	96.959463 
3909.000000	96.959486 
3908.000000	96.959425 
3907.000000	96.959161 
3906.000000	96.958611 
3905.000000	96.957876 
3904.000000	96.957181 
3903.000000	96.956626 
3902.000000	96.956137 
3901.000000	96.955668 
3900.000000	96.955225 
3899.000000	96.954813 
3898.000000	96.954432 
3897.000000	96.954077 
3896.000000	96.953730 
3895.000000	96.953375 
3894.000000	96.953007 
3893.000000	96.952626 
3892.000000	96.952227 
3891.000000	96.951810 
3890.000000	96.951384 
3889.000000	96.950960 
3888.000000	96.950542 
3887.000000	96.950122 
3886.000000	96.949696 
3885.000000	96.949274 
3884.000000	96.948858 
3883.000000	96.948437 
3882.000000	96.947995 
3881.000000	96.947534 
3880.000000	96.947073 
3879.000000	96.946636 
3878.000000	96.946223 
3877.000000	96.945820 
3876.000000	96.945406 
3875.000000	96.944970 
3874.000000	96.944509 
3873.000000	96.944026 
3872.000000	96.943517 
3871.000000	96.942978 
3870.000000	96.942427 
3869.000000	96.941896 
3868.000000	96.941403 
3867.000000	96.940937 
3866.000000	96.940482 
3865.000000	96.940049 
3864.000000	96.939657 
3863.000000	96.939308 
3862.000000	96.938979 
3861.000000	96.938655 
3860.000000	96.938332 
3859.000000	96.938002 
3858.000000	96.937648 
3857.000000	96.937259 
3856.000000	96.936834 
3855.000000	96.936372 
3854.000000	96.935879 
3853.000000	96.935377 
3852.000000	96.934887 
3851.000000	96.934415 
3850.000000	96.933965 
3849.000000	96.933542 
3848.000000	96.933147 
3847.000000	96.932778 
3846.000000	96.932419 
3845.000000	96.932059 
3844.000000	96.931689 
3843.000000	96.931311 
3842.000000	96.930937 
3841.000000	96.930585 
3840.000000	96.930266 
3839.000000	96.929981 
3838.000000	96.929720 
3837.000000	96.929472 
3836.000000	96.929228 
3835.000000	96.928989 
3834.000000	96.928758 
3833.000000	96.928541 
3832.000000	96.928343 
3831.000000	96.928167 
3830.000000	96.928013 
3829.000000	96.927879 
3828.000000	96.927757 
3827.000000	96.927635 
3826.000000	96.927503 
3825.000000	96.927360 
3824.000000	96.927215 
3823.000000	96.927060 
3822.000000	96.926884 
3821.000000	96.926694 
3820.000000	96.926515 
3819.000000	96.926367 
3818.000000	96.926243 
3817.000000	96.926129 
3816.000000	96.926029 
3815.000000	96.925959 
3814.000000	96.925921 
3813.000000	96.925896 
3812.000000	96.925877 
3811.000000	96.925870 
3810.000000	96.925885 
3809.000000	96.925911 
3808.000000	96.925927 
3807.000000	96.925912 
3806.000000	96.925871 
3805.000000	96.925816 
3804.000000	96.925758 
3803.000000	96.925701 
3802.000000	96.925655 
3801.000000	96.925638 
3800.000000	96.925650 
3799.000000	96.925663 
3798.000000	96.925649 
3797.000000	96.925604 
3796.000000	96.925541 
3795.000000	96.925460 
3794.000000	96.925348 
3793.000000	96.925197 
3792.000000	96.925013 
3791.000000	96.924805 
3790.000000	96.924571 
3789.000000	96.924310 
3788.000000	96.924021 
3787.000000	96.923702 
3786.000000	96.923346 
3785.000000	96.922957 
3784.000000	96.922544 
3783.000000	96.922107 
3782.000000	96.921636 
3781.000000	96.921132 
3780.000000	96.920614 
3779.000000	96.920100 
3778.000000	96.919584 
3777.000000	96.919043 
3776.000000	96.918468 
3775.000000	96.917872 
3774.000000	96.917271 
3773.000000	96.916669 
3772.000000	96.916062 
3771.000000	96.915452 
3770.000000	96.914845 
3769.000000	96.914242 
3768.000000	96.913626 
3767.000000	96.912978 
3766.000000	96.912300 
3765.000000	96.911609 
3764.000000	96.910922 
3763.000000	96.910234 
3762.000000	96.909569 
3761.000000	96.908960 
3760.000000	96.908291 
3759.000000	96.907644 
3758.000000	96.906901 
3757.000000	96.905554 
3756.000000	96.903644 
3755.000000	96.901797 
3754.000000	96.900026 
3753.000000	96.897710 
3752.000000	96.895740 
3751.000000	96.895573 
3750.000000	96.895223 
3749.000000	96.892245 
3748.000000	96.889323 
3747.000000	96.890229 
3746.000000	96.891880 
3745.000000	96.888131 
3744.000000	96.883548 
3743.000000	96.884919 
3742.000000	96.887834 
3741.000000	96.885470 
3740.000000	96.879162 
3739.000000	96.877692 
3738.000000	96.883530 
3737.000000	96.886906 
3736.000000	96.881390 
3735.000000	96.875167 
3734.000000	96.877324 
3733.000000	96.882822 
3732.000000	96.883878 
3731.000000	96.881919 
3730.000000	96.881651 
3729.000000	96.882232 
3728.000000	96.878401 
3727.000000	96.869343 
3726.000000	96.861977 
3725.000000	96.860105 
3724.000000	96.858661 
3723.000000	96.852799 
3722.000000	96.844895 
3721.000000	96.838776 
3720.000000	96.833572 
3719.000000	96.827285 
3718.000000	96.819068 
3717.000000	96.811161 
3716.000000	96.806793 
3715.000000	96.804295 
3714.000000	96.798380 
3713.000000	96.787718 
3712.000000	96.778343 
3711.000000	96.774373 
3710.000000	96.770716 
3709.000000	96.761653 
3708.000000	96.746365 
3707.000000	96.727579 
3706.000000	96.709577 
3705.000000	96.695018 
3704.000000	96.682534 
3703.000000	96.667854 
3702.000000	96.647648 
3701.000000	96.622245 
3700.000000	96.595458 
3699.000000	96.571735 
3698.000000	96.552070 
3697.000000	96.535812 
3696.000000	96.525762 
3695.000000	96.523269 
3694.000000	96.523243 
3693.000000	96.520599 
3692.000000	96.517467 
3691.000000	96.518977 
3690.000000	96.523043 
3689.000000	96.522795 
3688.000000	96.516077 
3687.000000	96.506481 
3686.000000	96.496150 
3685.000000	96.482839 
3684.000000	96.466905 
3683.000000	96.455298 
3682.000000	96.451456 
3681.000000	96.446140 
3680.000000	96.429767 
3679.000000	96.406922 
3678.000000	96.388794 
3677.000000	96.371280 
3676.000000	96.345868 
3675.000000	96.321065 
3674.000000	96.304382 
3673.000000	96.290304 
3672.000000	96.269280 
3671.000000	96.239709 
3670.000000	96.215860 
3669.000000	96.206036 
3668.000000	96.195888 
3667.000000	96.172672 
3666.000000	96.140777 
3665.000000	96.110675 
3664.000000	96.087165 
3663.000000	96.067991 
3662.000000	96.047860 
3661.000000	96.024022 
3660.000000	95.998998 
3659.000000	95.975862 
3658.000000	95.953928 
3657.000000	95.928327 
3656.000000	95.898762 
3655.000000	95.870429 
3654.000000	95.846586 
3653.000000	95.825127 
3652.000000	95.800269 
3651.000000	95.771127 
3650.000000	95.745981 
3649.000000	95.727180 
3648.000000	95.705331 
3647.000000	95.677438 
3646.000000	95.650303 
3645.000000	95.627678 
3644.000000	95.606059 
3643.000000	95.581523 
3642.000000	95.554594 
3641.000000	95.529379 
3640.000000	95.507941 
3639.000000	95.489413 
3638.000000	95.474972 
3637.000000	95.466532 
3636.000000	95.460242 
3635.000000	95.445547 
3634.000000	95.417618 
3633.000000	95.383906 
3632.000000	95.353578 
3631.000000	95.323857 
3630.000000	95.287398 
3629.000000	95.256187 
3628.000000	95.244907 
3627.000000	95.242035 
3626.000000	95.229367 
3625.000000	95.205189 
3624.000000	95.180005 
3623.000000	95.163869 
3622.000000	95.157012 
3621.000000	95.152455 
3620.000000	95.148003 
3619.000000	95.149038 
3618.000000	95.157410 
3617.000000	95.170447 
3616.000000	95.187976 
3615.000000	95.208872 
3614.000000	95.228781 
3613.000000	95.244002 
3612.000000	95.253223 
3611.000000	95.256023 
3610.000000	95.254449 
3609.000000	95.255524 
3608.000000	95.266988 
3607.000000	95.288179 
3606.000000	95.309736 
3605.000000	95.325507 
3604.000000	95.337634 
3603.000000	95.350838 
3602.000000	95.366181 
3601.000000	95.380371 
3600.000000	95.391654 
3599.000000	95.400585 
3598.000000	95.408054 
3597.000000	95.415155 
3596.000000	95.423646 
3595.000000	95.431706 
3594.000000	95.435668 
3593.000000	95.433986 
3592.000000	95.429042 
3591.000000	95.424645 
3590.000000	95.421344 
3589.000000	95.417564 
3588.000000	95.416230 
3587.000000	95.423127 
3586.000000	95.437114 
3585.000000	95.451622 
3584.000000	95.463138 
3583.000000	95.471997 
3582.000000	95.478866 
3581.000000	95.482144 
3580.000000	95.479984 
3579.000000	95.472836 
3578.000000	95.463991 
3577.000000	95.457522 
3576.000000	95.455826 
3575.000000	95.458424 
3574.000000	95.462439 
3573.000000	95.465102 
3572.000000	95.465239 
3571.000000	95.463602 
3570.000000	95.460921 
3569.000000	95.456822 
3568.000000	95.452635 
3567.000000	95.452097 
3566.000000	95.455353 
3565.000000	95.457825 
3564.000000	95.456307 
3563.000000	95.451527 
3562.000000	95.445985 
3561.000000	95.441609 
3560.000000	95.438879 
3559.000000	95.437619 
3558.000000	95.437686 
3557.000000	95.439054 
3556.000000	95.441270 
3555.000000	95.443196 
3554.000000	95.443445 
3553.000000	95.441552 
3552.000000	95.438476 
3551.000000	95.435617 
3550.000000	95.433787 
3549.000000	95.433115 
3548.000000	95.433312 
3547.000000	95.433594 
3546.000000	95.432763 
3545.000000	95.430268 
3544.000000	95.427000 
3543.000000	95.424439 
3542.000000	95.423142 
3541.000000	95.422629 
3540.000000	95.422227 
3539.000000	95.421562 
3538.000000	95.420577 
3537.000000	95.419377 
3536.000000	95.418081 
3535.000000	95.416745 
3534.000000	95.415387 
3533.000000	95.414036 
3532.000000	95.412733 
3531.000000	95.411496 
3530.000000	95.410309 
3529.000000	95.409123 
3528.000000	95.407883 
3527.000000	95.406558 
3526.000000	95.405157 
3525.000000	95.403743 
3524.000000	95.402389 
3523.000000	95.401142 
3522.000000	95.399997 
3521.000000	95.398904 
3520.000000	95.397801 
3519.000000	95.396667 
3518.000000	95.395525 
3517.000000	95.394373 
3516.000000	95.393160 
3515.000000	95.391863 
3514.000000	95.390578 
3513.000000	95.389403 
3512.000000	95.388187 
3511.000000	95.386575 
3510.000000	95.384395 
3509.000000	95.381900 
3508.000000	95.379595 
3507.000000	95.377792 
3506.000000	95.376420 
3505.000000	95.375144 
3504.000000	95.373653 
3503.000000	95.371854 
3502.000000	95.369825 
3501.000000	95.367754 
3500.000000	95.365897 
3499.000000	95.364470 
3498.000000	95.363482 
3497.000000	95.362705 
3496.000000	95.361744 
3495.000000	95.360205 
3494.000000	95.357939 
3493.000000	95.355210 
3492.000000	95.352482 
3491.000000	95.350003 
3490.000000	95.347725 
3489.000000	95.345513 
3488.000000	95.343226 
3487.000000	95.340616 
3486.000000	95.337480 
3485.000000	95.334085 
3484.000000	95.331194 
3483.000000	95.329358 
3482.000000	95.328412 
3481.000000	95.327655 
3480.000000	95.326410 
3479.000000	95.324264 
3478.000000	95.320999 
3477.000000	95.316694 
3476.000000	95.311871 
3475.000000	95.307285 
3474.000000	95.303466 
3473.000000	95.300581 
3472.000000	95.298494 
3471.000000	95.296737 
3470.000000	95.294643 
3469.000000	95.291793 
3468.000000	95.288345 
3467.000000	95.284977 
3466.000000	95.282408 
3465.000000	95.280859 
3464.000000	95.279774 
3463.000000	95.278066 
3462.000000	95.274963 
3461.000000	95.270642 
3460.000000	95.265924 
3459.000000	95.261177 
3458.000000	95.255896 
3457.000000	95.249576 
3456.000000	95.242735 
3455.000000	95.236707 
3454.000000	95.232484 
3453.000000	95.230016 
3452.000000	95.228727 
3451.000000	95.228106 
3450.000000	95.227661 
3449.000000	95.226709 
3448.000000	95.224607 
3447.000000	95.221154 
3446.000000	95.216391 
3445.000000	95.210459 
3444.000000	95.203929 
3443.000000	95.197845 
3442.000000	95.192902 
3441.000000	95.188801 
3440.000000	95.184868 
3439.000000	95.181090 
3438.000000	95.178060 
3437.000000	95.175895 
3436.000000	95.173908 
3435.000000	95.171490 
3434.000000	95.168799 
3433.000000	95.166193 
3432.000000	95.163612 
3431.000000	95.160770 
3430.000000	95.157691 
3429.000000	95.154806 
3428.000000	95.152442 
3427.000000	95.150449 
3426.000000	95.148419 
3425.000000	95.146244 
3424.000000	95.144151 
3423.000000	95.142091 
3422.000000	95.139514 
3421.000000	95.136053 
3420.000000	95.132188 
3419.000000	95.128857 
3418.000000	95.126543 
3417.000000	95.125088 
3416.000000	95.124206 
3415.000000	95.123664 
3414.000000	95.122946 
3413.000000	95.121302 
3412.000000	95.118453 
3411.000000	95.115058 
3410.000000	95.112263 
3409.000000	95.110773 
3408.000000	95.110451 
3407.000000	95.110573 
3406.000000	95.110395 
3405.000000	95.109652 
3404.000000	95.108562 
3403.000000	95.107339 
3402.000000	95.105797 
3401.000000	95.103559 
3400.000000	95.100629 
3399.000000	95.097600 
3398.000000	95.095285 
3397.000000	95.094229 
3396.000000	95.094546 
3395.000000	95.095973 
3394.000000	95.097902 
3393.000000	95.099501 
3392.000000	95.100021 
3391.000000	95.099120 
3390.000000	95.097025 
3389.000000	95.094507 
3388.000000	95.092583 
3387.000000	95.091951 
3386.000000	95.092544 
3385.000000	95.093495 
3384.000000	95.093722 
3383.000000	95.092783 
3382.000000	95.091262 
3381.000000	95.090260 
3380.000000	95.090332 
3379.000000	95.091005 
3378.000000	95.091529 
3377.000000	95.092001 
3376.000000	95.093223 
3375.000000	95.095444 
3374.000000	95.097750 
3373.000000	95.098993 
3372.000000	95.098986 
3371.000000	95.098475 
3370.000000	95.098127 
3369.000000	95.097913 
3368.000000	95.097555 
3367.000000	95.097204 
3366.000000	95.097445 
3365.000000	95.098748 
3364.000000	95.101115 
3363.000000	95.104110 
3362.000000	95.107110 
3361.000000	95.109655 
3360.000000	95.111713 
3359.000000	95.113584 
3358.000000	95.115468 
3357.000000	95.117095 
3356.000000	95.117873 
3355.000000	95.117495 
3354.000000	95.116514 
3353.000000	95.116226 
3352.000000	95.117716 
3351.000000	95.120914 
3350.000000	95.124546 
3349.000000	95.127123 
3348.000000	95.128111 
3347.000000	95.128319 
3346.000000	95.129252 
3345.000000	95.132004 
3344.000000	95.136476 
3343.000000	95.141466 
3342.000000	95.145773 
3341.000000	95.149135 
3340.000000	95.151921 
3339.000000	95.154078 
3338.000000	95.154855 
3337.000000	95.153798 
3336.000000	95.151544 
3335.000000	95.149342 
3334.000000	95.148033 
3333.000000	95.147780 
3332.000000	95.148550 
3331.000000	95.150391 
3330.000000	95.153193 
3329.000000	95.156515 
3328.000000	95.159879 
3327.000000	95.163050 
3326.000000	95.165964 
3325.000000	95.168514 
3324.000000	95.170560 
3323.000000	95.172104 
3322.000000	95.173379 
3321.000000	95.174745 
3320.000000	95.176485 
3319.000000	95.178638 
3318.000000	95.180952 
3317.000000	95.182969 
3316.000000	95.184254 
3315.000000	95.184700 
3314.000000	95.184705 
3313.000000	95.184980 
3312.000000	95.186095 
3311.000000	95.188258 
3310.000000	95.191472 
3309.000000	95.195635 
3308.000000	95.200313 
3307.000000	95.204519 
3306.000000	95.207169 
3305.000000	95.207911 
3304.000000	95.207389 
3303.000000	95.206791 
3302.000000	95.207006 
3301.000000	95.208165 
3300.000000	95.209859 
3299.000000	95.211575 
3298.000000	95.213055 
3297.000000	95.214380 
3296.000000	95.215763 
3295.000000	95.217307 
3294.000000	95.218964 
3293.000000	95.220679 
3292.000000	95.222481 
3291.000000	95.224424 
3290.000000	95.226495 
3289.000000	95.228622 
3288.000000	95.230707 
3287.000000	95.232612 
3286.000000	95.234156 
3285.000000	95.235208 
3284.000000	95.235849 
3283.000000	95.236478 
3282.000000	95.237628 
3281.000000	95.239566 
3280.000000	95.242090 
3279.000000	95.244641 
3278.000000	95.246811 
3277.000000	95.248617 
3276.000000	95.250240 
3275.000000	95.251703 
3274.000000	95.252927 
3273.000000	95.254064 
3272.000000	95.255502 
3271.000000	95.257453 
3270.000000	95.259722 
3269.000000	95.261892 
3268.000000	95.263695 
3267.000000	95.265134 
3266.000000	95.266418 
3265.000000	95.267875 
3264.000000	95.269769 
3263.000000	95.272089 
3262.000000	95.274564 
3261.000000	95.276988 
3260.000000	95.279417 
3259.000000	95.281966 
3258.000000	95.284557 
3257.000000	95.287070 
3256.000000	95.289554 
3255.000000	95.291990 
3254.000000	95.294017 
3253.000000	95.295254 
3252.000000	95.295865 
3251.000000	95.296508 
3250.000000	95.297685 
3249.000000	95.299383 
3248.000000	95.301404 
3247.000000	95.303795 
3246.000000	95.306771 
3245.000000	95.310298 
3244.000000	95.313954 
3243.000000	95.317197 
3242.000000	95.319717 
3241.000000	95.321599 
3240.000000	95.323207 
3239.000000	95.324995 
3238.000000	95.327308 
3237.000000	95.330236 
3236.000000	95.333589 
3235.000000	95.336949 
3234.000000	95.339886 
3233.000000	95.342259 
3232.000000	95.344318 
3231.000000	95.346523 
3230.000000	95.349172 
3229.000000	95.352174 
3228.000000	95.355205 
3227.000000	95.358067 
3226.000000	95.360902 
3225.000000	95.364001 
3224.000000	95.367486 
3223.000000	95.371221 
3222.000000	95.374999 
3221.000000	95.378686 
3220.000000	95.382154 
3219.000000	95.385221 
3218.000000	95.387786 
3217.000000	95.390024 
3216.000000	95.392384 
3215.000000	95.395300 
3214.000000	95.398906 
3213.000000	95.403002 
3212.000000	95.407198 
3211.000000	95.411162 
3210.000000	95.414788 
3209.000000	95.418163 
3208.000000	95.421426 
3207.000000	95.424635 
3206.000000	95.427815 
3205.000000	95.431084 
3204.000000	95.434655 
3203.000000	95.438669 
3202.000000	95.443032 
3201.000000	95.447407 
3200.000000	95.451389 
3199.000000	95.454770 
3198.000000	95.457712 
3197.000000	95.460685 
3196.000000	95.464127 
3195.000000	95.468169 
3194.000000	95.472725 
3193.000000	95.477743 
3192.000000	95.483198 
3191.000000	95.488835 
3190.000000	95.494103 
3189.000000	95.498476 
3188.000000	95.501796 
3187.000000	95.504405 
3186.000000	95.506987 
3185.000000	95.510154 
3184.000000	95.514102 
3183.000000	95.518658 
3182.000000	95.523602 
3181.000000	95.528851 
3180.000000	95.534254 
3179.000000	95.539425 
3178.000000	95.543986 
3177.000000	95.547935 
3176.000000	95.551632 
3175.000000	95.555487 
3174.000000	95.559772 
3173.000000	95.564636 
3172.000000	95.570051 
3171.000000	95.575717 
3170.000000	95.581196 
3169.000000	95.586174 
3168.000000	95.590474 
3167.000000	95.593958 
3166.000000	95.596650 
3165.000000	95.598942 
3164.000000	95.601490 
3163.000000	95.604845 
3162.000000	95.609250 
3161.000000	95.614639 
3160.000000	95.620614 
3159.000000	95.626501 
3158.000000	95.631728 
3157.000000	95.636242 
3156.000000	95.640460 
3155.000000	95.644853 
3154.000000	95.649667 
3153.000000	95.654955 
3152.000000	95.660590 
3151.000000	95.666138 
3150.000000	95.670974 
3149.000000	95.674732 
3148.000000	95.677587 
3147.000000	95.680190 
3146.000000	95.683316 
3145.000000	95.687453 
3144.000000	95.692582 
3143.000000	95.698215 
3142.000000	95.703744 
3141.000000	95.708917 
3140.000000	95.713876 
3139.000000	95.718781 
3138.000000	95.723573 
3137.000000	95.728091 
3136.000000	95.732262 
3135.000000	95.736157 
3134.000000	95.739996 
3133.000000	95.744072 
3132.000000	95.748504 
3131.000000	95.753043 
3130.000000	95.757324 
3129.000000	95.761371 
3128.000000	95.765660 
3127.000000	95.770596 
3126.000000	95.776098 
3125.000000	95.781707 
3124.000000	95.786959 
3123.000000	95.791667 
3122.000000	95.795914 
3121.000000	95.799975 
3120.000000	95.804135 
3119.000000	95.808478 
3118.000000	95.812865 
3117.000000	95.817132 
3116.000000	95.821267 
3115.000000	95.825369 
3114.000000	95.829571 
3113.000000	95.834034 
3112.000000	95.838932 
3111.000000	95.844269 
3110.000000	95.849753 
3109.000000	95.854936 
3108.000000	95.859531 
3107.000000	95.863540 
3106.000000	95.867156 
3105.000000	95.870588 
3104.000000	95.873965 
3103.000000	95.877420 
3102.000000	95.881157 
3101.000000	95.885300 
3100.000000	95.889656 
3099.000000	95.893801 
3098.000000	95.897591 
3097.000000	95.901481 
3096.000000	95.906042 
3095.000000	95.911223 
3094.000000	95.916319 
3093.000000	95.920701 
3092.000000	95.924335 
3091.000000	95.927483 
3090.000000	95.930271 
3089.000000	95.932764 
3088.000000	95.935280 
3087.000000	95.938364 
3086.000000	95.942436 
3085.000000	95.947523 
3084.000000	95.953148 
3083.000000	95.958515 
3082.000000	95.963043 
3081.000000	95.966754 
3080.000000	95.970083 
3079.000000	95.973221 
3078.000000	95.976013 
3077.000000	95.978600 
3076.000000	95.981570 
3075.000000	95.985138 
3074.000000	95.988660 
3073.000000	95.991448 
3072.000000	95.993742 
3071.000000	95.996318 
3070.000000	95.999477 
3069.000000	96.003051 
3068.000000	96.007112 
3067.000000	96.011859 
3066.000000	96.016897 
3065.000000	96.021407 
3064.000000	96.024955 
3063.000000	96.027416 
3062.000000	96.028375 
3061.000000	96.027666 
3060.000000	96.026494 
3059.000000	96.026970 
3058.000000	96.030232 
3057.000000	96.035704 
3056.000000	96.041978 
3055.000000	96.047637 
3054.000000	96.051378 
3053.000000	96.052605 
3052.000000	96.052496 
3051.000000	96.053456 
3050.000000	96.056812 
3049.000000	96.061704 
3048.000000	96.066454 
3047.000000	96.070199 
3046.000000	96.072797 
3045.000000	96.074251 
3044.000000	96.075190 
3043.000000	96.077206 
3042.000000	96.081457 
3041.000000	96.086803 
3040.000000	96.090188 
3039.000000	96.089488 
3038.000000	96.085713 
3037.000000	96.082194 
3036.000000	96.081397 
3035.000000	96.082763 
3034.000000	96.084027 
3033.000000	96.084093 
3032.000000	96.083724 
3031.000000	96.083703 
3030.000000	96.083719 
3029.000000	96.083555 
3028.000000	96.083931 
3027.000000	96.085040 
3026.000000	96.085249 
3025.000000	96.082716 
3024.000000	96.077888 
3023.000000	96.073129 
3022.000000	96.070081 
3021.000000	96.068729 
3020.000000	96.068738 
3019.000000	96.069913 
3018.000000	96.071012 
3017.000000	96.069806 
3016.000000	96.065330 
3015.000000	96.059275 
3014.000000	96.054481 
3013.000000	96.052376 
3012.000000	96.052035 
3011.000000	96.051088 
3010.000000	96.047517 
3009.000000	96.041343 
3008.000000	96.034716 
3007.000000	96.029800 
3006.000000	96.026563 
3005.000000	96.023320 
3004.000000	96.019315 
3003.000000	96.015819 
3002.000000	96.014567 
3001.000000	96.015990 
3000.000000	96.019047 
2999.000000	96.021819 
2998.000000	96.022228 
2997.000000	96.019197 
2996.000000	96.013497 
2995.000000	96.006836 
2994.000000	95.999921 
2993.000000	95.992104 
2992.000000	95.983027 
2991.000000	95.973813 
2990.000000	95.966443 
2989.000000	95.962660 
2988.000000	95.963495 
2987.000000	95.968761 
2986.000000	95.976623 
2985.000000	95.984523 
2984.000000	95.991021 
2983.000000	95.996383 
2982.000000	96.001308 
2981.000000	96.005820 
2980.000000	96.009404 
2979.000000	96.011318 
2978.000000	96.010558 
2977.000000	96.006481 
2976.000000	96.000031 
2975.000000	95.993776 
2974.000000	95.990240 
2973.000000	95.990478 
2972.000000	95.994104 
2971.000000	95.999867 
2970.000000	96.006167 
2969.000000	96.012001 
2968.000000	96.017727 
2967.000000	96.024196 
2966.000000	96.031154 
2965.000000	96.037517 
2964.000000	96.043277 
2963.000000	96.049788 
2962.000000	96.057562 
2961.000000	96.064929 
2960.000000	96.069798 
2959.000000	96.071985 
2958.000000	96.073017 
2957.000000	96.074242 
2956.000000	96.075807 
2955.000000	96.077044 
2954.000000	96.077401 
2953.000000	96.077559 
2952.000000	96.079921 
2951.000000	96.086924 
2950.000000	96.097992 
2949.000000	96.109016 
2948.000000	96.116088 
2947.000000	96.119173 
2946.000000	96.121224 
2945.000000	96.124297 
2944.000000	96.127630 
2943.000000	96.129261 
2942.000000	96.127969 
2941.000000	96.123559 
2940.000000	96.116817 
2939.000000	96.109802 
2938.000000	96.105023 
2937.000000	96.103460 
2936.000000	96.103828 
2935.000000	96.104109 
2934.000000	96.103380 
2933.000000	96.101906 
2932.000000	96.100297 
2931.000000	96.099291 
2930.000000	96.099932 
2929.000000	96.102954 
2928.000000	96.107637 
2927.000000	96.111687 
2926.000000	96.112733 
2925.000000	96.110229 
2924.000000	96.105987 
2923.000000	96.102765 
2922.000000	96.102174 
2921.000000	96.103947 
2920.000000	96.107132 
2919.000000	96.111433 
2918.000000	96.116909 
2917.000000	96.122631 
2916.000000	96.126606 
2915.000000	96.127669 
2914.000000	96.127077 
2913.000000	96.127649 
2912.000000	96.131200 
2911.000000	96.137082 
2910.000000	96.143053 
2909.000000	96.147285 
2908.000000	96.149452 
2907.000000	96.150249 
2906.000000	96.150326 
2905.000000	96.149859 
2904.000000	96.148862 
2903.000000	96.148053 
2902.000000	96.148963 
2901.000000	96.152814 
2900.000000	96.159462 
2899.000000	96.167112 
2898.000000	96.173616 
2897.000000	96.178064 
2896.000000	96.181066 
2895.000000	96.183795 
2894.000000	96.187166 
2893.000000	96.191706 
2892.000000	96.197488 
2891.000000	96.203708 
2890.000000	96.208823 
2889.000000	96.211852 
2888.000000	96.213423 
2887.000000	96.215174 
2886.000000	96.218046 
2885.000000	96.221691 
2884.000000	96.225576 
2883.000000	96.229837 
2882.000000	96.234605 
2881.000000	96.239188 
2880.000000	96.242779 
2879.000000	96.245713 
2878.000000	96.249291 
2877.000000	96.254277 
2876.000000	96.260158 
2875.000000	96.265949 
2874.000000	96.271234 
2873.000000	96.275991 
2872.000000	96.279919 
2871.000000	96.282664 
2870.000000	96.284569 
2869.000000	96.286653 
2868.000000	96.289621 
2867.000000	96.293267 
2866.000000	96.297016 
2865.000000	96.300651 
2864.000000	96.304385 
2863.000000	96.308573 
2862.000000	96.313549 
2861.000000	96.319391 
2860.000000	96.325563 
2859.000000	96.331031 
2858.000000	96.335125 
2857.000000	96.338188 
2856.000000	96.341214 
2855.000000	96.344875 
2854.000000	96.349047 
2853.000000	96.353148 
2852.000000	96.356683 
2851.000000	96.359602 
2850.000000	96.362408 
2849.000000	96.365831 
2848.000000	96.370141 
2847.000000	96.374856 
2846.000000	96.379335 
2845.000000	96.383583 
2844.000000	96.388280 
2843.000000	96.394090 
2842.000000	96.401098 
2841.000000	96.408625 
2840.000000	96.415318 
2839.000000	96.419776 
2838.000000	96.421609 
2837.000000	96.422009 
2836.000000	96.422935 
2835.000000	96.425485 
2834.000000	96.429435 
2833.000000	96.434156 
2832.000000	96.439323 
2831.000000	96.444568 
2830.000000	96.449073 
2829.000000	96.452143 
2828.000000	96.454139 
2827.000000	96.456426 
2826.000000	96.460221 
2825.000000	96.465466 
2824.000000	96.470744 
2823.000000	96.474305 
2822.000000	96.475371 
2821.000000	96.474623 
2820.000000	96.473567 
2819.000000	96.473331 
2818.000000	96.474160 
2817.000000	96.475952 
2816.000000	96.478771 
2815.000000	96.482553 
2814.000000	96.486575 
2813.000000	96.489681 
2812.000000	96.491191 
2811.000000	96.491496 
2810.000000	96.491816 
2809.000000	96.493372 
2808.000000	96.496653 
2807.000000	96.501266 
2806.000000	96.506238 
2805.000000	96.510542 
2804.000000	96.513476 
2803.000000	96.514715 
2802.000000	96.514381 
2801.000000	96.513247 
2800.000000	96.512579 
2799.000000	96.513300 
2798.000000	96.515258 
2797.000000	96.517483 
2796.000000	96.519226 
2795.000000	96.520667 
2794.000000	96.522518 
2793.000000	96.525189 
2792.000000	96.528516 
2791.000000	96.532090 
2790.000000	96.535522 
2789.000000	96.538385 
2788.000000	96.540254 
2787.000000	96.541026 
2786.000000	96.541091 
2785.000000	96.541006 
2784.000000	96.541004 
2783.000000	96.540960 
2782.000000	96.540774 
2781.000000	96.540633 
2780.000000	96.540935 
2779.000000	96.542054 
2778.000000	96.544136 
2777.000000	96.546977 
2776.000000	96.550050 
2775.000000	96.552901 
2774.000000	96.555650 
2773.000000	96.558819 
2772.000000	96.562524 
2771.000000	96.566106 
2770.000000	96.568819 
2769.000000	96.570647 
2768.000000	96.572043 
2767.000000	96.572998 
2766.000000	96.572955 
2765.000000	96.571793 
2764.000000	96.570294 
2763.000000	96.569307 
2762.000000	96.568859 
2761.000000	96.568460 
2760.000000	96.568201 
2759.000000	96.569112 
2758.000000	96.572118 
2757.000000	96.576805 
2756.000000	96.581451 
2755.000000	96.584664 
2754.000000	96.586775 
2753.000000	96.589067 
2752.000000	96.591865 
2751.000000	96.594062 
2750.000000	96.594742 
2749.000000	96.594395 
2748.000000	96.593952 
2747.000000	96.593264 
2746.000000	96.591538 
2745.000000	96.589041 
2744.000000	96.587347 
2743.000000	96.587624 
2742.000000	96.589529 
2741.000000	96.591870 
2740.000000	96.593862 
2739.000000	96.595448 
2738.000000	96.596771 
2737.000000	96.597927 
2736.000000	96.599090 
2735.000000	96.600420 
2734.000000	96.601834 
2733.000000	96.603046 
2732.000000	96.603884 
2731.000000	96.604462 
2730.000000	96.605071 
2729.000000	96.605927 
2728.000000	96.606984 
2727.000000	96.607960 
2726.000000	96.608609 
2725.000000	96.608991 
2724.000000	96.609451 
2723.000000	96.610286 
2722.000000	96.611501 
2721.000000	96.612885 
2720.000000	96.614246 
2719.000000	96.615489 
2718.000000	96.616507 
2717.000000	96.617181 
2716.000000	96.617519 
2715.000000	96.617721 
2714.000000	96.618062 
2713.000000	96.618674 
2712.000000	96.619508 
2711.000000	96.620411 
2710.000000	96.621233 
2709.000000	96.621929 
2708.000000	96.622575 
2707.000000	96.623325 
2706.000000	96.624334 
2705.000000	96.625673 
2704.000000	96.627192 
2703.000000	96.628498 
2702.000000	96.629209 
2701.000000	96.629335 
2700.000000	96.629428 
2699.000000	96.630159 
2698.000000	96.631701 
2697.000000	96.633469 
2696.000000	96.634509 
2695.000000	96.634271 
2694.000000	96.633063 
2693.000000	96.631780 
2692.000000	96.631045 
2691.000000	96.630832 
2690.000000	96.631006 
2689.000000	96.631881 
2688.000000	96.633789 
2687.000000	96.636270 
2686.000000	96.638276 
2685.000000	96.639255 
2684.000000	96.639554 
2683.000000	96.639624 
2682.000000	96.639352 
2681.000000	96.638442 
2680.000000	96.636949 
2679.000000	96.635154 
2678.000000	96.633446 
2677.000000	96.632587 
2676.000000	96.633436 
2675.000000	96.635925 
2674.000000	96.638846 
2673.000000	96.641205 
2672.000000	96.643163 
2671.000000	96.644967 
2670.000000	96.645728 
2669.000000	96.644500 
2668.000000	96.642086 
2667.000000	96.640460 
2666.000000	96.640251 
2665.000000	96.639941 
2664.000000	96.638005 
2663.000000	96.634793 
2662.000000	96.631764 
2661.000000	96.629488 
2660.000000	96.627134 
2659.000000	96.623661 
2658.000000	96.618957 
2657.000000	96.613995 
2656.000000	96.610171 
2655.000000	96.608275 
2654.000000	96.607883 
2653.000000	96.607964 
2652.000000	96.608241 
2651.000000	96.609509 
2650.000000	96.612228 
2649.000000	96.615241 
2648.000000	96.616526 
2647.000000	96.615055 
2646.000000	96.611367 
2645.000000	96.606718 
2644.000000	96.602326 
2643.000000	96.599385 
2642.000000	96.598839 
2641.000000	96.600538 
2640.000000	96.602974 
2639.000000	96.604445 
2638.000000	96.604441 
2637.000000	96.603485 
2636.000000	96.602141 
2635.000000	96.600790 
2634.000000	96.600058 
2633.000000	96.600579 
2632.000000	96.602149 
2631.000000	96.603649 
2630.000000	96.604118 
2629.000000	96.603546 
2628.000000	96.602442 
2627.000000	96.601165 
2626.000000	96.599921 
2625.000000	96.599066 
2624.000000	96.598936 
2623.000000	96.599425 
2622.000000	96.600010 
2621.000000	96.600152 
2620.000000	96.599558 
2619.000000	96.598202 
2618.000000	96.596371 
2617.000000	96.594676 
2616.000000	96.593720 
2615.000000	96.593667 
2614.000000	96.594217 
2613.000000	96.594954 
2612.000000	96.595626 
2611.000000	96.596185 
2610.000000	96.596691 
2609.000000	96.597170 
2608.000000	96.597471 
2607.000000	96.597370 
2606.000000	96.596891 
2605.000000	96.596395 
2604.000000	96.596181 
2603.000000	96.596142 
2602.000000	96.596019 
2601.000000	96.595817 
2600.000000	96.595720 
2599.000000	96.595740 
2598.000000	96.595676 
2597.000000	96.595414 
2596.000000	96.595040 
2595.000000	96.594679 
2594.000000	96.594354 
2593.000000	96.594109 
2592.000000	96.594080 
2591.000000	96.594304 
2590.000000	96.594598 
2589.000000	96.594719 
2588.000000	96.594634 
2587.000000	96.594495 
2586.000000	96.594456 
2585.000000	96.594551 
2584.000000	96.594710 
2583.000000	96.594815 
2582.000000	96.594762 
2581.000000	96.594542 
2580.000000	96.594251 
2579.000000	96.594013 
2578.000000	96.593903 
2577.000000	96.593924 
2576.000000	96.594040 
2575.000000	96.594194 
2574.000000	96.594320 
2573.000000	96.594388 
2572.000000	96.594400 
2571.000000	96.594365 
2570.000000	96.594288 
2569.000000	96.594177 
2568.000000	96.594075 
2567.000000	96.594031 
2566.000000	96.594038 
2565.000000	96.594036 
2564.000000	96.593978 
2563.000000	96.593885 
2562.000000	96.593816 
2561.000000	96.593820 
2560.000000	96.593935 
2559.000000	96.594181 
2558.000000	96.594516 
2557.000000	96.594834 
2556.000000	96.595054 
2555.000000	96.595196 
2554.000000	96.595323 
2553.000000	96.595441 
2552.000000	96.595482 
2551.000000	96.595421 
2550.000000	96.595340 
2549.000000	96.595304 
2548.000000	96.595179 
2547.000000	96.594771 
2546.000000	96.594206 
2545.000000	96.593996 
2544.000000	96.594444 
2543.000000	96.595112 
2542.000000	96.595190 
2541.000000	96.594591 
2540.000000	96.594276 
2539.000000	96.595173 
2538.000000	96.597093 
2537.000000	96.598857 
2536.000000	96.599655 
2535.000000	96.599708 
2534.000000	96.599616 
2533.000000	96.599531 
2532.000000	96.599283 
2531.000000	96.598893 
2530.000000	96.598466 
2529.000000	96.597829 
2528.000000	96.596709 
2527.000000	96.595256 
2526.000000	96.594113 
2525.000000	96.593896 
2524.000000	96.594744 
2523.000000	96.596354 
2522.000000	96.598261 
2521.000000	96.600046 
2520.000000	96.601389 
2519.000000	96.602097 
2518.000000	96.602097 
2517.000000	96.601350 
2516.000000	96.599784 
2515.000000	96.597428 
2514.000000	96.594727 
2513.000000	96.592577 
2512.000000	96.591810 
2511.000000	96.592678 
2510.000000	96.594854 
2509.000000	96.597718 
2508.000000	96.600444 
2507.000000	96.602138 
2506.000000	96.602474 
2505.000000	96.602255 
2504.000000	96.602810 
2503.000000	96.604465 
2502.000000	96.606038 
2501.000000	96.606217 
2500.000000	96.604991 
2499.000000	96.603369 
2498.000000	96.602099 
2497.000000	96.601210 
2496.000000	96.600698 
2495.000000	96.600784 
2494.000000	96.601393 
2493.000000	96.601935 
2492.000000	96.601973 
2491.000000	96.601867 
2490.000000	96.602364 
2489.000000	96.603611 
2488.000000	96.604877 
2487.000000	96.605367 
2486.000000	96.605129 
2485.000000	96.604937 
2484.000000	96.605392 
2483.000000	96.606352 
2482.000000	96.607269 
2481.000000	96.607768 
2480.000000	96.607743 
2479.000000	96.607172 
2478.000000	96.606200 
2477.000000	96.605257 
2476.000000	96.604747 
2475.000000	96.604603 
2474.000000	96.604418 
2473.000000	96.603984 
2472.000000	96.603456 
2471.000000	96.603040 
2470.000000	96.602835 
2469.000000	96.602978 
2468.000000	96.603586 
2467.000000	96.604427 
2466.000000	96.604918 
2465.000000	96.604663 
2464.000000	96.603903 
2463.000000	96.603314 
2462.000000	96.603400 
2461.000000	96.604161 
2460.000000	96.605172 
2459.000000	96.605821 
2458.000000	96.605595 
2457.000000	96.604313 
2456.000000	96.602231 
2455.000000	96.600032 
2454.000000	96.598561 
2453.000000	96.598344 
2452.000000	96.599245 
2451.000000	96.600592 
2450.000000	96.601868 
2449.000000	96.603115 
2448.000000	96.604481 
2447.000000	96.605679 
2446.000000	96.606262 
2445.000000	96.606287 
2444.000000	96.606253 
2443.000000	96.606459 
2442.000000	96.606772 
2441.000000	96.606982 
2440.000000	96.607043 
2439.000000	96.607016 
2438.000000	96.607169 
2437.000000	96.608049 
2436.000000	96.609879 
2435.000000	96.611833 
2434.000000	96.612615 
2433.000000	96.611974 
2432.000000	96.611102 
2431.000000	96.611347 
2430.000000	96.613116 
2429.000000	96.616185 
2428.000000	96.620131 
2427.000000	96.624005 
2426.000000	96.626435 
2425.000000	96.626755 
2424.000000	96.625583 
2423.000000	96.623973 
2422.000000	96.622562 
2421.000000	96.621920 
2420.000000	96.622799 
2419.000000	96.625191 
2418.000000	96.627832 
2417.000000	96.629776 
2416.000000	96.631583 
2415.000000	96.634135 
2414.000000	96.637244 
2413.000000	96.640419 
2412.000000	96.644002 
2411.000000	96.648333 
2410.000000	96.652550 
2409.000000	96.655647 
2408.000000	96.658064 
2407.000000	96.660746 
2406.000000	96.663154 
2405.000000	96.663646 
2404.000000	96.661685 
2403.000000	96.658577 
2402.000000	96.656163 
2401.000000	96.655693 
2400.000000	96.657759 
2399.000000	96.662160 
2398.000000	96.667720 
2397.000000	96.673132 
2396.000000	96.678035 
2395.000000	96.682586 
2394.000000	96.686384 
2393.000000	96.688903 
2392.000000	96.690825 
2391.000000	96.693687 
2390.000000	96.697850 
2389.000000	96.701760 
2388.000000	96.703580 
2387.000000	96.702888 
2386.000000	96.700578 
2385.000000	96.698116 
2384.000000	96.697124 
2383.000000	96.698856 
2382.000000	96.703596 
2381.000000	96.710885 
2380.000000	96.720272 
2379.000000	96.731047 
2378.000000	96.740967 
2377.000000	96.746512 
2376.000000	96.745767 
2375.000000	96.740540 
2374.000000	96.735110 
2373.000000	96.732245 
2372.000000	96.731839 
2371.000000	96.733442 
2370.000000	96.737681 
2369.000000	96.743853 
2368.000000	96.747936 
2367.000000	96.745879 
2366.000000	96.738584 
2365.000000	96.731637 
2364.000000	96.729434 
2363.000000	96.731227 
2362.000000	96.733386 
2361.000000	96.734391 
2360.000000	96.734458 
2359.000000	96.733263 
2358.000000	96.731272 
2357.000000	96.730272 
2356.000000	96.731686 
2355.000000	96.735229 
2354.000000	96.739236 
2353.000000	96.741056 
2352.000000	96.738314 
2351.000000	96.730747 
2350.000000	96.719912 
2349.000000	96.710303 
2348.000000	96.707389 
2347.000000	96.708751 
2346.000000	96.703582 
2345.000000	96.686979 
2344.000000	96.668218 
2343.000000	96.657613 
2342.000000	96.657777 
2341.000000	96.668727 
2340.000000	96.687478 
2339.000000	96.706506 
2338.000000	96.717528 
2337.000000	96.718519 
2336.000000	96.714495 
2335.000000	96.711610 
2334.000000	96.710492 
2333.000000	96.706268 
2332.000000	96.694015 
2331.000000	96.673587 
2330.000000	96.646427 
2329.000000	96.613197 
2328.000000	96.577603 
2327.000000	96.546297 
2326.000000	96.524880 
2325.000000	96.512743 
2324.000000	96.507858 
2323.000000	96.509465 
2322.000000	96.515143 
2321.000000	96.519377 
2320.000000	96.519486 
2319.000000	96.521337 
2318.000000	96.531404 
2317.000000	96.548578 
2316.000000	96.564825 
2315.000000	96.573730 
2314.000000	96.573820 
2313.000000	96.567017 
2312.000000	96.556591 
2311.000000	96.546549 
2310.000000	96.539135 
2309.000000	96.532952 
2308.000000	96.526153 
2307.000000	96.520295 
2306.000000	96.518806 
2305.000000	96.521619 
2304.000000	96.525025 
2303.000000	96.526660 
2302.000000	96.528378 
2301.000000	96.532906 
2300.000000	96.539588 
2299.000000	96.544151 
2298.000000	96.542989 
2297.000000	96.536459 
2296.000000	96.528408 
2295.000000	96.522451 
2294.000000	96.519169 
2293.000000	96.516548 
2292.000000	96.513058 
2291.000000	96.509420 
2290.000000	96.507426 
2289.000000	96.507925 
2288.000000	96.510195 
2287.000000	96.512788 
2286.000000	96.514713 
2285.000000	96.516305 
2284.000000	96.518980 
2283.000000	96.523559 
2282.000000	96.528947 
2281.000000	96.533030 
2280.000000	96.534501 
2279.000000	96.533361 
2278.000000	96.530418 
2277.000000	96.527208 
2276.000000	96.525829 
2275.000000	96.527601 
2274.000000	96.531617 
2273.000000	96.535463 
2272.000000	96.537742 
2271.000000	96.538858 
2270.000000	96.539272 
2269.000000	96.538638 
2268.000000	96.537210 
2267.000000	96.536485 
2266.000000	96.537363 
2265.000000	96.538859 
2264.000000	96.539385 
2263.000000	96.538230 
2262.000000	96.535193 
2261.000000	96.530049 
2260.000000	96.523408 
2259.000000	96.517036 
2258.000000	96.512539 
2257.000000	96.510624 
2256.000000	96.511958 
2255.000000	96.517137 
2254.000000	96.524844 
2253.000000	96.531437 
2252.000000	96.534118 
2251.000000	96.533207 
2250.000000	96.530236 
2249.000000	96.525443 
2248.000000	96.518892 
2247.000000	96.512530 
2246.000000	96.508841 
2245.000000	96.507721 
2244.000000	96.506687 
2243.000000	96.504089 
2242.000000	96.500739 
2241.000000	96.498338 
2240.000000	96.497677 
2239.000000	96.498559 
2238.000000	96.500165 
2237.000000	96.501231 
2236.000000	96.500827 
2235.000000	96.499139 
2234.000000	96.496931 
2233.000000	96.494453 
2232.000000	96.491624 
2231.000000	96.488916 
2230.000000	96.486955 
2229.000000	96.485441 
2228.000000	96.483499 
2227.000000	96.481069 
2226.000000	96.478990 
2225.000000	96.477644 
2224.000000	96.476299 
2223.000000	96.474261 
2222.000000	96.472021 
2221.000000	96.470542 
2220.000000	96.469828 
2219.000000	96.469066 
2218.000000	96.467744 
2217.000000	96.466164 
2216.000000	96.464828 
2215.000000	96.463763 
2214.000000	96.462634 
2213.000000	96.461268 
2212.000000	96.459843 
2211.000000	96.458602 
2210.000000	96.457589 
2209.000000	96.456718 
2208.000000	96.455881 
2207.000000	96.454907 
2206.000000	96.453544 
2205.000000	96.451898 
2204.000000	96.450800 
2203.000000	96.451201 
2202.000000	96.452878 
2201.000000	96.454174 
2200.000000	96.453183 
2199.000000	96.449078 
2198.000000	96.442776 
2197.000000	96.436734 
2196.000000	96.433589 
2195.000000	96.434084 
2194.000000	96.436484 
2193.000000	96.438705 
2192.000000	96.440446 
2191.000000	96.442029 
2190.000000	96.442172 
2189.000000	96.439208 
2188.000000	96.434018 
2187.000000	96.428952 
2186.000000	96.423802 
2185.000000	96.416382 
2184.000000	96.408404 
2183.000000	96.406942 
2182.000000	96.416922 
2181.000000	96.434048 
2180.000000	96.447673 
2179.000000	96.450776 
2178.000000	96.444741 
2177.000000	96.436565 
2176.000000	96.433667 
2175.000000	96.439317 
2174.000000	96.450102 
2173.000000	96.458059 
2172.000000	96.457854 
2171.000000	96.451189 
2170.000000	96.442766 
2169.000000	96.433822 
2168.000000	96.422582 
2167.000000	96.409983 
2166.000000	96.400776 
2165.000000	96.397903 
2164.000000	96.398871 
2163.000000	96.399924 
2162.000000	96.402679 
2161.000000	96.414539 
2160.000000	96.441891 
2159.000000	96.482509 
2158.000000	96.524293 
2157.000000	96.554110 
2156.000000	96.568093 
2155.000000	96.571185 
2154.000000	96.569638 
2153.000000	96.566794 
2152.000000	96.564266 
2151.000000	96.563052 
2150.000000	96.562911 
2149.000000	96.563749 
2148.000000	96.568222 
2147.000000	96.579564 
2146.000000	96.595731 
2145.000000	96.609522 
2144.000000	96.616826 
2143.000000	96.621156 
2142.000000	96.627582 
2141.000000	96.635598 
2140.000000	96.641230 
2139.000000	96.643673 
2138.000000	96.645938 
2137.000000	96.650131 
2136.000000	96.655073 
2135.000000	96.657653 
2134.000000	96.655063 
2133.000000	96.647728 
2132.000000	96.641344 
2131.000000	96.642969 
2130.000000	96.653116 
2129.000000	96.663885 
2128.000000	96.667254 
2127.000000	96.663419 
2126.000000	96.658930 
2125.000000	96.658463 
2124.000000	96.660920 
2123.000000	96.662559 
2122.000000	96.660850 
2121.000000	96.655169 
2120.000000	96.646094 
2119.000000	96.635101 
2118.000000	96.624392 
2117.000000	96.616430 
2116.000000	96.612805 
2115.000000	96.612567 
2114.000000	96.611983 
2113.000000	96.608024 
2112.000000	96.602875 
2111.000000	96.602344 
2110.000000	96.608630 
2109.000000	96.617105 
2108.000000	96.621832 
2107.000000	96.622276 
2106.000000	96.622065 
2105.000000	96.623444 
2104.000000	96.625944 
2103.000000	96.628749 
2102.000000	96.630898 
2101.000000	96.629992 
2100.000000	96.624496 
2099.000000	96.617719 
2098.000000	96.616462 
2097.000000	96.624388 
2096.000000	96.638496 
2095.000000	96.651937 
2094.000000	96.659718 
2093.000000	96.661014 
2092.000000	96.657654 
2091.000000	96.652329 
2090.000000	96.647543 
2089.000000	96.644834 
2088.000000	96.644344 
2087.000000	96.645046 
2086.000000	96.645513 
2085.000000	96.644923 
2084.000000	96.643823 
2083.000000	96.643637 
2082.000000	96.645119 
2081.000000	96.647772 
2080.000000	96.651243 
2079.000000	96.656254 
2078.000000	96.662825 
2077.000000	96.668339 
2076.000000	96.669441 
2075.000000	96.665839 
2074.000000	96.660467 
2073.000000	96.655835 
2072.000000	96.651827 
2071.000000	96.647542 
2070.000000	96.643536 
2069.000000	96.641137 
2068.000000	96.640630 
2067.000000	96.641072 
2066.000000	96.641148 
2065.000000	96.639504 
2064.000000	96.635116 
2063.000000	96.628614 
2062.000000	96.623046 
2061.000000	96.622082 
2060.000000	96.626870 
2059.000000	96.635246 
2058.000000	96.643450 
2057.000000	96.648674 
2056.000000	96.650200 
2055.000000	96.648313 
2054.000000	96.643320 
2053.000000	96.635994 
2052.000000	96.628335 
2051.000000	96.622620 
2050.000000	96.619796 
2049.000000	96.619501 
2048.000000	96.621309 
2047.000000	96.625019 
2046.000000	96.629787 
2045.000000	96.634199 
2044.000000	96.637597 
2043.000000	96.640331 
2042.000000	96.642511 
2041.000000	96.643639 
2040.000000	96.643865 
2039.000000	96.644489 
2038.000000	96.646413 
2037.000000	96.648873 
2036.000000	96.650494 
2035.000000	96.651061 
2034.000000	96.651522 
2033.000000	96.652720 
2032.000000	96.654644 
2031.000000	96.656559 
2030.000000	96.657452 
2029.000000	96.656811 
2028.000000	96.655300 
2027.000000	96.654202 
2026.000000	96.653840 
2025.000000	96.653359 
2024.000000	96.652385 
2023.000000	96.652185 
2022.000000	96.654447 
2021.000000	96.659190 
2020.000000	96.664088 
2019.000000	96.666432 
2018.000000	96.665390 
2017.000000	96.662425 
2016.000000	96.660227 
2015.000000	96.660467 
2014.000000	96.662205 
2013.000000	96.662550 
2012.000000	96.660001 
2011.000000	96.656939 
2010.000000	96.657301 
2009.000000	96.661800 
2008.000000	96.667197 
2007.000000	96.670755 
2006.000000	96.673355 
2005.000000	96.676590 
2004.000000	96.679343 
2003.000000	96.679611 
2002.000000	96.678089 
2001.000000	96.677311 
2000.000000	96.677777 
1999.000000	96.677055 
1998.000000	96.672778 
1997.000000	96.665426 
1996.000000	96.658038 
1995.000000	96.653827 
1994.000000	96.653990 
1993.000000	96.657058 
1992.000000	96.659729 
1991.000000	96.659526 
1990.000000	96.657078 
1989.000000	96.655284 
1988.000000	96.656070 
1987.000000	96.658130 
1986.000000	96.658126 
1985.000000	96.654213 
1984.000000	96.648002 
1983.000000	96.642910 
1982.000000	96.641165 
1981.000000	96.642973 
1980.000000	96.648022 
1979.000000	96.656051 
1978.000000	96.665397 
1977.000000	96.672831 
1976.000000	96.676005 
1975.000000	96.675526 
1974.000000	96.674177 
1973.000000	96.674726 
1972.000000	96.678348 
1971.000000	96.684187 
1970.000000	96.689776 
1969.000000	96.692488 
1968.000000	96.691356 
1967.000000	96.687646 
1966.000000	96.683975 
1965.000000	96.682505 
1964.000000	96.683969 
1963.000000	96.687914 
1962.000000	96.693070 
1961.000000	96.697626 
1960.000000	96.699952 
1959.000000	96.699553 
1958.000000	96.697601 
1957.000000	96.696483 
1956.000000	96.697892 
1955.000000	96.701343 
1954.000000	96.704593 
1953.000000	96.705863 
1952.000000	96.705335 
1951.000000	96.704446 
1950.000000	96.704378 
1949.000000	96.705489 
1948.000000	96.707704 
1947.000000	96.710530 
1946.000000	96.712792 
1945.000000	96.713152 
1944.000000	96.711122 
1943.000000	96.707363 
1942.000000	96.703333 
1941.000000	96.700505 
1940.000000	96.699682 
1939.000000	96.700628 
1938.000000	96.702089 
1937.000000	96.702888 
1936.000000	96.703155 
1935.000000	96.703804 
1934.000000	96.705034 
1933.000000	96.706474 
1932.000000	96.708384 
1931.000000	96.711429 
1930.000000	96.715181 
1929.000000	96.717793 
1928.000000	96.718324 
1927.000000	96.717543 
1926.000000	96.716135 
1925.000000	96.713752 
1924.000000	96.710386 
1923.000000	96.707785 
1922.000000	96.707520 
1921.000000	96.708689 
1920.000000	96.709435 
1919.000000	96.709121 
1918.000000	96.707738 
1917.000000	96.704647 
1916.000000	96.699974 
1915.000000	96.696085 
1914.000000	96.695069 
1913.000000	96.696278 
1912.000000	96.697428 
1911.000000	96.697512 
1910.000000	96.696906 
1909.000000	96.695499 
1908.000000	96.693162 
1907.000000	96.690545 
1906.000000	96.688068 
1905.000000	96.684940 
1904.000000	96.680624 
1903.000000	96.677061 
1902.000000	96.676615 
1901.000000	96.678629 
1900.000000	96.680446 
1899.000000	96.680825 
1898.000000	96.680351 
1897.000000	96.679375 
1896.000000	96.677373 
1895.000000	96.674460 
1894.000000	96.671728 
1893.000000	96.669838 
1892.000000	96.668557 
1891.000000	96.667622 
1890.000000	96.666985 
1889.000000	96.666338 
1888.000000	96.665324 
1887.000000	96.664311 
1886.000000	96.663753 
1885.000000	96.663090 
1884.000000	96.661309 
1883.000000	96.658619 
1882.000000	96.656614 
1881.000000	96.656414 
1880.000000	96.657692 
1879.000000	96.659175 
1878.000000	96.659747 
1877.000000	96.659260 
1876.000000	96.658440 
1875.000000	96.658336 
1874.000000	96.659532 
1873.000000	96.661527 
1872.000000	96.663283 
1871.000000	96.664209 
1870.000000	96.664081 
1869.000000	96.662567 
1868.000000	96.659823 
1867.000000	96.657308 
1866.000000	96.656150 
1865.000000	96.655350 
1864.000000	96.653630 
1863.000000	96.652213 
1862.000000	96.653578 
1861.000000	96.657844 
1860.000000	96.662474 
1859.000000	96.665720 
1858.000000	96.668176 
1857.000000	96.670494 
1856.000000	96.672222 
1855.000000	96.673047 
1854.000000	96.673276 
1853.000000	96.672907 
1852.000000	96.672670 
1851.000000	96.674343 
1850.000000	96.678080 
1849.000000	96.681386 
1848.000000	96.681862 
1847.000000	96.680520 
1846.000000	96.680482 
1845.000000	96.683190 
1844.000000	96.687291 
1843.000000	96.690864 
1842.000000	96.693741 
1841.000000	96.696586 
1840.000000	96.700031 
1839.000000	96.704402 
1838.000000	96.709108 
1837.000000	96.712085 
1836.000000	96.711703 
1835.000000	96.709284 
1834.000000	96.707357 
1833.000000	96.706333 
1832.000000	96.705073 
1831.000000	96.702914 
1830.000000	96.700630 
1829.000000	96.699822 
1828.000000	96.701206 
1827.000000	96.704597 
1826.000000	96.709073 
1825.000000	96.713068 
1824.000000	96.715166 
1823.000000	96.715543 
1822.000000	96.715882 
1821.000000	96.717182 
1820.000000	96.718806 
1819.000000	96.719814 
1818.000000	96.720599 
1817.000000	96.721616 
1816.000000	96.721767 
1815.000000	96.720680 
1814.000000	96.719986 
1813.000000	96.721280 
1812.000000	96.723466 
1811.000000	96.723670 
1810.000000	96.721466 
1809.000000	96.718830 
1808.000000	96.716980 
1807.000000	96.716197 
1806.000000	96.717175 
1805.000000	96.720208 
1804.000000	96.723680 
1803.000000	96.725659 
1802.000000	96.725849 
1801.000000	96.725749 
1800.000000	96.726299 
1799.000000	96.726795 
1798.000000	96.726737 
1797.000000	96.725649 
1796.000000	96.723020 
1795.000000	96.719941 
1794.000000	96.718669 
1793.000000	96.720221 
1792.000000	96.722322 
1791.000000	96.722118 
1790.000000	96.721068 
1789.000000	96.722152 
1788.000000	96.725592 
1787.000000	96.729338 
1786.000000	96.731815 
1785.000000	96.733100 
1784.000000	96.733985 
1783.000000	96.735992 
1782.000000	96.739368 
1781.000000	96.742752 
1780.000000	96.745043 
1779.000000	96.746355 
1778.000000	96.748260 
1777.000000	96.750992 
1776.000000	96.753391 
1775.000000	96.754651 
1774.000000	96.754709 
1773.000000	96.755043 
1772.000000	96.757043 
1771.000000	96.758618 
1770.000000	96.758275 
1769.000000	96.757543 
1768.000000	96.758120 
1767.000000	96.760645 
1766.000000	96.764839 
1765.000000	96.770628 
1764.000000	96.777244 
1763.000000	96.782130 
1762.000000	96.783082 
1761.000000	96.781758 
1760.000000	96.781257 
1759.000000	96.782073 
1758.000000	96.782504 
1757.000000	96.781116 
1756.000000	96.780138 
1755.000000	96.781002 
1754.000000	96.781434 
1753.000000	96.778563 
1752.000000	96.772950 
1751.000000	96.768787 
1750.000000	96.768689 
1749.000000	96.770810 
1748.000000	96.772589 
1747.000000	96.774115 
1746.000000	96.775666 
1745.000000	96.778436 
1744.000000	96.783753 
1743.000000	96.789598 
1742.000000	96.792667 
1741.000000	96.792928 
1740.000000	96.792191 
1739.000000	96.790724 
1738.000000	96.788115 
1737.000000	96.785805 
1736.000000	96.784360 
1735.000000	96.782259 
1734.000000	96.779752 
1733.000000	96.775410 
1732.000000	96.770816 
1731.000000	96.771252 
1730.000000	96.777126 
1729.000000	96.782587 
1728.000000	96.784010 
1727.000000	96.783233 
1726.000000	96.782340 
1725.000000	96.782108 
1724.000000	96.781750 
1723.000000	96.780420 
1722.000000	96.779596 
1721.000000	96.779855 
1720.000000	96.779289 
1719.000000	96.775100 
1718.000000	96.768426 
1717.000000	96.761587 
1716.000000	96.750539 
1715.000000	96.735945 
1714.000000	96.725645 
1713.000000	96.721848 
1712.000000	96.719835 
1711.000000	96.718415 
1710.000000	96.719877 
1709.000000	96.722229 
1708.000000	96.720718 
1707.000000	96.715188 
1706.000000	96.710394 
1705.000000	96.707283 
1704.000000	96.699928 
1703.000000	96.686928 
1702.000000	96.671553 
1701.000000	96.659040 
1700.000000	96.650895 
1699.000000	96.638323 
1698.000000	96.626644 
1697.000000	96.621929 
1696.000000	96.618682 
1695.000000	96.611875 
1694.000000	96.603259 
1693.000000	96.596784 
1692.000000	96.592249 
1691.000000	96.586731 
1690.000000	96.578700 
1689.000000	96.568370 
1688.000000	96.557750 
1687.000000	96.548166 
1686.000000	96.539356 
1685.000000	96.532220 
1684.000000	96.524618 
1683.000000	96.511723 
1682.000000	96.495944 
1681.000000	96.480688 
1680.000000	96.468161 
1679.000000	96.458454 
1678.000000	96.449242 
1677.000000	96.438286 
1676.000000	96.427029 
1675.000000	96.418817 
1674.000000	96.410226 
1673.000000	96.398795 
1672.000000	96.388209 
1671.000000	96.382047 
1670.000000	96.379265 
1669.000000	96.373950 
1668.000000	96.364739 
1667.000000	96.354861 
1666.000000	96.344374 
1665.000000	96.332837 
1664.000000	96.322165 
1663.000000	96.315097 
1662.000000	96.307991 
1661.000000	96.294549 
1660.000000	96.279029 
1659.000000	96.268938 
1658.000000	96.264311 
1657.000000	96.261402 
1656.000000	96.258831 
1655.000000	96.255093 
1654.000000	96.248436 
1653.000000	96.242660 
1652.000000	96.225286 
1651.000000	96.200309 
1650.000000	96.180631 
1649.000000	96.171883 
1648.000000	96.170343 
1647.000000	96.171185 
1646.000000	96.169325 
1645.000000	96.161117 
1644.000000	96.148030 
1643.000000	96.135967 
1642.000000	96.129779 
1641.000000	96.128151 
1640.000000	96.128290 
1639.000000	96.127632 
1638.000000	96.125980 
1637.000000	96.124756 
1636.000000	96.126691 
1635.000000	96.131067 
1634.000000	96.132369 
1633.000000	96.130502 
1632.000000	96.127300 
1631.000000	96.125597 
1630.000000	96.127786 
1629.000000	96.133890 
1628.000000	96.141863 
1627.000000	96.150825 
1626.000000	96.159911 
1625.000000	96.168683 
1624.000000	96.180042 
1623.000000	96.196441 
1622.000000	96.212427 
1621.000000	96.220778 
1620.000000	96.224480 
1619.000000	96.231072 
1618.000000	96.244304 
1617.000000	96.260435 
1616.000000	96.271557 
1615.000000	96.276378 
1614.000000	96.279809 
1613.000000	96.283897 
1612.000000	96.288503 
1611.000000	96.295454 
1610.000000	96.305345 
1609.000000	96.316240 
1608.000000	96.328337 
1607.000000	96.343170 
1606.000000	96.357571 
1605.000000	96.367893 
1604.000000	96.377133 
1603.000000	96.388289 
1602.000000	96.398876 
1601.000000	96.406268 
1600.000000	96.412745 
1599.000000	96.421265 
1598.000000	96.430183 
1597.000000	96.437172 
1596.000000	96.443527 
1595.000000	96.451738 
1594.000000	96.461245 
1593.000000	96.469640 
1592.000000	96.476813 
1591.000000	96.484587 
1590.000000	96.493358 
1589.000000	96.502002 
1588.000000	96.510547 
1587.000000	96.519885 
1586.000000	96.529638 
1585.000000	96.538204 
1584.000000	96.545965 
1583.000000	96.554478 
1582.000000	96.563024 
1581.000000	96.570053 
1580.000000	96.576439 
1579.000000	96.584325 
1578.000000	96.593886 
1577.000000	96.603841 
1576.000000	96.613156 
1575.000000	96.620722 
1574.000000	96.626071 
1573.000000	96.630542 
1572.000000	96.635970 
1571.000000	96.643257 
1570.000000	96.651407 
1569.000000	96.657437 
1568.000000	96.661516 
1567.000000	96.666064 
1566.000000	96.671445 
1565.000000	96.676756 
1564.000000	96.682428 
1563.000000	96.688312 
1562.000000	96.693678 
1561.000000	96.696340 
1560.000000	96.700511 
1559.000000	96.710019 
1558.000000	96.716808 
1557.000000	96.718431 
1556.000000	96.720016 
1555.000000	96.723516 
1554.000000	96.727516 
1553.000000	96.730875 
1552.000000	96.734063 
1551.000000	96.736821 
1550.000000	96.738915 
1549.000000	96.741119 
1548.000000	96.744467 
1547.000000	96.748949 
1546.000000	96.753036 
1545.000000	96.755466 
1544.000000	96.756924 
1543.000000	96.758894 
1542.000000	96.762366 
1541.000000	96.767070 
1540.000000	96.769890 
1539.000000	96.768950 
1538.000000	96.765849 
1537.000000	96.762752 
1536.000000	96.760792 
1535.000000	96.760610 
1534.000000	96.762128 
1533.000000	96.764096 
1532.000000	96.764971 
1531.000000	96.764799 
1530.000000	96.764760 
1529.000000	96.765334 
1528.000000	96.765755 
1527.000000	96.765326 
1526.000000	96.764295 
1525.000000	96.763533 
1524.000000	96.763787 
1523.000000	96.765225 
1522.000000	96.767138 
1521.000000	96.767544 
1520.000000	96.765087 
1519.000000	96.761075 
1518.000000	96.757669 
1517.000000	96.755748 
1516.000000	96.754808 
1515.000000	96.754483 
1514.000000	96.755092 
1513.000000	96.756602 
1512.000000	96.757760 
1511.000000	96.756961 
1510.000000	96.754527 
1509.000000	96.751613 
1508.000000	96.749135 
1507.000000	96.747175 
1506.000000	96.746331 
1505.000000	96.745040 
1504.000000	96.741959 
1503.000000	96.737723 
1502.000000	96.733403 
1501.000000	96.729714 
1500.000000	96.727174 
1499.000000	96.725065 
1498.000000	96.722036 
1497.000000	96.719110 
1496.000000	96.717581 
1495.000000	96.717298 
1494.000000	96.718890 
1493.000000	96.723305 
1492.000000	96.729487 
1491.000000	96.734623 
1490.000000	96.736475 
1489.000000	96.735015 
1488.000000	96.730584 
1487.000000	96.724335 
1486.000000	96.719102 
1485.000000	96.714271 
1484.000000	96.708479 
1483.000000	96.703028 
1482.000000	96.699500 
1481.000000	96.697720 
1480.000000	96.695491 
1479.000000	96.692066 
1478.000000	96.688827 
1477.000000	96.686894 
1476.000000	96.684766 
1475.000000	96.680884 
1474.000000	96.676293 
1473.000000	96.673229 
1472.000000	96.671697 
1471.000000	96.669169 
1470.000000	96.665309 
1469.000000	96.661301 
1468.000000	96.657015 
1467.000000	96.652196 
1466.000000	96.648233 
1465.000000	96.646525 
1464.000000	96.646210 
1463.000000	96.644279 
1462.000000	96.640011 
1461.000000	96.635564 
1460.000000	96.633036 
1459.000000	96.631882 
1458.000000	96.629256 
1457.000000	96.624615 
1456.000000	96.619443 
1455.000000	96.613153 
1454.000000	96.605540 
1453.000000	96.598936 
1452.000000	96.595327 
1451.000000	96.594584 
1450.000000	96.595708 
1449.000000	96.598319 
1448.000000	96.600544 
1447.000000	96.599813 
1446.000000	96.595492 
1445.000000	96.590129 
1444.000000	96.586981 
1443.000000	96.584797 
1442.000000	96.580983 
1441.000000	96.575965 
1440.000000	96.572203 
1439.000000	96.569066 
1438.000000	96.563763 
1437.000000	96.557439 
1436.000000	96.553459 
1435.000000	96.550039 
1434.000000	96.545719 
1433.000000	96.543193 
1432.000000	96.543744 
1431.000000	96.545057 
1430.000000	96.544228 
1429.000000	96.542209 
1428.000000	96.540440 
1427.000000	96.539187 
1426.000000	96.538303 
1425.000000	96.538774 
1424.000000	96.542804 
1423.000000	96.547386 
1422.000000	96.548672 
1421.000000	96.548733 
1420.000000	96.552402 
1419.000000	96.555877 
1418.000000	96.549936 
1417.000000	96.539034 
1416.000000	96.535090 
1415.000000	96.539881 
1414.000000	96.545785 
1413.000000	96.547043 
1412.000000	96.545932 
1411.000000	96.546047 
1410.000000	96.547070 
1409.000000	96.548769 
1408.000000	96.551765 
1407.000000	96.555928 
1406.000000	96.560403 
1405.000000	96.566308 
1404.000000	96.576614 
1403.000000	96.588859 
1402.000000	96.598250 
1401.000000	96.606099 
1400.000000	96.618106 
1399.000000	96.635092 
1398.000000	96.649983 
1397.000000	96.657514 
1396.000000	96.659535 
1395.000000	96.661303 
1394.000000	96.665523 
1393.000000	96.672788 
1392.000000	96.684498 
1391.000000	96.699824 
1390.000000	96.714973 
1389.000000	96.726197 
1388.000000	96.731956 
1387.000000	96.733165 
1386.000000	96.732478 
1385.000000	96.733389 
1384.000000	96.738524 
1383.000000	96.747063 
1382.000000	96.755862 
1381.000000	96.762939 
1380.000000	96.768464 
1379.000000	96.773934 
1378.000000	96.780886 
1377.000000	96.789932 
1376.000000	96.800012 
1375.000000	96.808730 
1374.000000	96.814308 
1373.000000	96.818529 
1372.000000	96.824925 
1371.000000	96.834789 
1370.000000	96.845914 
1369.000000	96.855014 
1368.000000	96.862121 
1367.000000	96.869450 
1366.000000	96.877978 
1365.000000	96.886923 
1364.000000	96.894465 
1363.000000	96.898855 
1362.000000	96.900362 
1361.000000	96.901609 
1360.000000	96.905217 
1359.000000	96.911918 
1358.000000	96.920353 
1357.000000	96.928269 
1356.000000	96.934159 
1355.000000	96.937678 
1354.000000	96.939612 
1353.000000	96.942529 
1352.000000	96.948231 
1351.000000	96.956877 
1350.000000	96.966703 
1349.000000	96.974123 
1348.000000	96.977393 
1347.000000	96.977858 
1346.000000	96.978416 
1345.000000	96.981121 
1344.000000	96.986319 
1343.000000	96.993351 
1342.000000	97.000956 
1341.000000	97.006856 
1340.000000	97.008451 
1339.000000	97.005304 
1338.000000	97.000071 
1337.000000	96.996322 
1336.000000	96.995376 
1335.000000	96.995715 
1334.000000	96.995697 
1333.000000	96.995799 
1332.000000	96.997158 
1331.000000	96.999462 
1330.000000	97.001273 
1329.000000	97.002173 
1328.000000	97.002913 
1327.000000	97.004057 
1326.000000	97.004929 
1325.000000	97.004499 
1324.000000	97.003148 
1323.000000	97.001239 
1322.000000	96.998038 
1321.000000	96.993786 
1320.000000	96.991160 
1319.000000	96.992484 
1318.000000	96.996681 
1317.000000	97.000924 
1316.000000	97.003653 
1315.000000	97.004286 
1314.000000	97.001992 
1313.000000	96.997349 
1312.000000	96.993339 
1311.000000	96.992369 
1310.000000	96.993318 
1309.000000	96.993941 
1308.000000	96.994402 
1307.000000	96.996694 
1306.000000	97.000989 
1305.000000	97.005046 
1304.000000	97.007433 
1303.000000	97.008163 
1302.000000	97.007060 
1301.000000	97.003912 
1300.000000	97.000286 
1299.000000	96.998746 
1298.000000	96.999724 
1297.000000	97.000764 
1296.000000	96.999459 
1295.000000	96.996251 
1294.000000	96.993727 
1293.000000	96.994210 
1292.000000	96.998066 
1291.000000	97.003386 
1290.000000	97.007267 
1289.000000	97.007877 
1288.000000	97.005325 
1287.000000	97.000790 
1286.000000	96.995595 
1285.000000	96.991504 
1284.000000	96.990490 
1283.000000	96.992511 
1282.000000	96.994558 
1281.000000	96.993452 
1280.000000	96.989491 
1279.000000	96.986070 
1278.000000	96.985979 
1277.000000	96.989331 
1276.000000	96.994608 
1275.000000	97.000358 
1274.000000	97.005480 
1273.000000	97.009059 
1272.000000	97.010486 
1271.000000	97.009439 
1270.000000	97.005981 
1269.000000	97.000949 
1268.000000	96.995789 
1267.000000	96.991191 
1266.000000	96.986678 
1265.000000	96.982747 
1264.000000	96.981917 
1263.000000	96.985682 
1262.000000	96.991644 
1261.000000	96.995672 
1260.000000	96.996933 
1259.000000	96.998541 
1258.000000	97.002695 
1257.000000	97.007344 
1256.000000	97.008591 
1255.000000	97.005643 
1254.000000	97.002315 
1253.000000	97.002798 
1252.000000	97.006179 
1251.000000	97.006953 
1250.000000	97.002042 
1249.000000	96.995586 
1248.000000	96.994467 
1247.000000	96.999640 
1246.000000	97.004962 
1245.000000	97.005133 
1244.000000	97.001361 
1243.000000	96.998195 
1242.000000	96.998120 
1241.000000	97.000944 
1240.000000	97.005411 
1239.000000	97.008975 
1238.000000	97.008464 
1237.000000	97.003510 
1236.000000	96.997612 
1235.000000	96.993979 
1234.000000	96.992029 
1233.000000	96.989466 
1232.000000	96.985240 
1231.000000	96.978435 
1230.000000	96.967290 
1229.000000	96.952266 
1228.000000	96.937367 
1227.000000	96.924912 
1226.000000	96.910823 
1225.000000	96.888736 
1224.000000	96.857697 
1223.000000	96.822636 
1222.000000	96.787945 
1221.000000	96.753394 
1220.000000	96.716070 
1219.000000	96.673586 
1218.000000	96.625390 
1217.000000	96.573123 
1216.000000	96.519375 
1215.000000	96.464727 
1214.000000	96.407507 
1213.000000	96.348214 
1212.000000	96.291377 
1211.000000	96.239214 
1210.000000	96.185709 
1209.000000	96.122011 
1208.000000	96.047070 
1207.000000	95.968711 
1206.000000	95.894275 
1205.000000	95.823937 
1204.000000	95.753644 
1203.000000	95.680636 
1202.000000	95.604920 
1201.000000	95.528079 
1200.000000	95.451845 
1199.000000	95.376395 
1198.000000	95.299972 
1197.000000	95.221579 
1196.000000	95.142765 
1195.000000	95.064813 
1194.000000	94.985946 
1193.000000	94.903918 
1192.000000	94.819585 
1191.000000	94.734773 
1190.000000	94.648527 
1189.000000	94.559075 
1188.000000	94.467672 
1187.000000	94.376320 
1186.000000	94.283291 
1185.000000	94.185384 
1184.000000	94.083270 
1183.000000	93.980240 
1182.000000	93.877076 
1181.000000	93.772598 
1180.000000	93.667505 
1179.000000	93.562355 
1178.000000	93.453157 
1177.000000	93.335059 
1176.000000	93.209732 
1175.000000	93.083418 
1174.000000	92.958264 
1173.000000	92.831473 
1172.000000	92.702349 
1171.000000	92.573203 
1170.000000	92.443359 
1169.000000	92.309743 
1168.000000	92.174677 
1167.000000	92.046953 
1166.000000	91.934853 
1165.000000	91.844838 
1164.000000	91.786599 
1163.000000	91.769986 
1162.000000	91.793816 
1161.000000	91.843470 
1160.000000	91.900672 
1159.000000	91.950149 
1158.000000	91.978094 
1157.000000	91.973748 
1156.000000	91.935387 
1155.000000	91.869231 
1154.000000	91.781518 
1153.000000	91.676847 
1152.000000	91.563588 
1151.000000	91.452483 
1150.000000	91.347402 
1149.000000	91.244050 
1148.000000	91.139322 
1147.000000	91.034858 
1146.000000	90.930293 
1145.000000	90.821321 
1144.000000	90.707237 
1143.000000	90.593266 
1142.000000	90.482679 
1141.000000	90.373120 
1140.000000	90.262647 
1139.000000	90.152408 
1138.000000	90.041603 
1137.000000	89.927239 
1136.000000	89.810839 
1135.000000	89.697948 
1134.000000	89.588764 
1133.000000	89.476503 
1132.000000	89.356922 
1131.000000	89.232166 
1130.000000	89.104110 
1129.000000	88.972029 
1128.000000	88.838473 
1127.000000	88.708710 
1126.000000	88.581925 
1125.000000	88.451164 
1124.000000	88.314240 
1123.000000	88.176654 
1122.000000	88.042127 
1121.000000	87.909089 
1120.000000	87.778205 
1119.000000	87.653373 
1118.000000	87.532861 
1117.000000	87.409835 
1116.000000	87.284695 
1115.000000	87.166814 
1114.000000	87.060561 
1113.000000	86.959388 
1112.000000	86.856966 
1111.000000	86.754264 
1110.000000	86.652184 
1109.000000	86.547463 
1108.000000	86.439079 
1107.000000	86.329420 
1106.000000	86.217350 
1105.000000	86.099453 
1104.000000	85.978861 
1103.000000	85.862783 
1102.000000	85.749990 
1101.000000	85.632979 
1100.000000	85.512002 
1099.000000	85.395763 
1098.000000	85.288007 
1097.000000	85.184045 
1096.000000	85.081292 
1095.000000	84.979780 
1094.000000	84.873018 
1093.000000	84.753162 
1092.000000	84.626733 
1091.000000	84.510677 
1090.000000	84.410730 
1089.000000	84.317132 
1088.000000	84.222333 
1087.000000	84.128081 
1086.000000	84.034596 
1085.000000	83.939146 
1084.000000	83.847093 
1083.000000	83.767938 
1082.000000	83.697793 
1081.000000	83.621698 
1080.000000	83.535564 
1079.000000	83.449736 
1078.000000	83.368707 
1077.000000	83.283756 
1076.000000	83.188322 
1075.000000	83.083827 
1074.000000	82.967661 
1073.000000	82.832297 
1072.000000	82.678861 
1071.000000	82.514639 
1070.000000	82.334756 
1069.000000	82.124569 
1068.000000	81.884168 
1067.000000	81.633111 
1066.000000	81.386483 
1065.000000	81.143059 
1064.000000	80.901055 
1063.000000	80.665451 
1062.000000	80.432816 
1061.000000	80.187846 
1060.000000	79.923580 
1059.000000	79.649747 
1058.000000	79.375126 
1057.000000	79.097093 
1056.000000	78.813519 
1055.000000	78.528120 
1054.000000	78.238648 
1053.000000	77.936909 
1052.000000	77.626388 
1051.000000	77.321554 
1050.000000	77.023076 
1049.000000	76.714331 
1048.000000	76.388746 
1047.000000	76.058506 
1046.000000	75.731917 
1045.000000	75.404791 
1044.000000	75.077462 
1043.000000	74.758112 
1042.000000	74.445135 
1041.000000	74.127286 
1040.000000	73.805977 
1039.000000	73.496966 
1038.000000	73.205777 
1037.000000	72.922590 
1036.000000	72.645085 
1035.000000	72.384086 
1034.000000	72.142637 
1033.000000	71.912401 
1032.000000	71.694464 
1031.000000	71.500062 
1030.000000	71.327094 
1029.000000	71.160641 
1028.000000	71.000889 
1027.000000	70.864879 
1026.000000	70.755586 
1025.000000	70.654794 
1024.000000	70.551910 
1023.000000	70.454257 
1022.000000	70.362971 
1021.000000	70.264980 
1020.000000	70.156001 
1019.000000	70.047269 
1018.000000	69.943035 
1017.000000	69.834957 
1016.000000	69.723933 
1015.000000	69.623138 
1014.000000	69.533720 
1013.000000	69.441185 
1012.000000	69.340952 
1011.000000	69.244393 
1010.000000	69.156076 
1009.000000	69.069625 
1008.000000	68.989358 
1007.000000	68.930278 
1006.000000	68.892502 
1005.000000	68.860778 
1004.000000	68.832506 
1003.000000	68.820352 
1002.000000	68.824400 
1001.000000	68.829641 
1000.000000	68.835173 
999.000000	 68.857690 
998.000000	 68.900479 
997.000000	 68.946386 
996.000000	 68.987492 
995.000000	 69.035447 
994.000000	 69.096484 
993.000000	 69.162273 
992.000000	 69.230773 
991.000000	 69.310094 
990.000000	 69.396608 
989.000000	 69.475655 
988.000000	 69.549239 
987.000000	 69.636920 
986.000000	 69.744818 
985.000000	 69.860398 
984.000000	 69.981514 
983.000000	 70.121725 
982.000000	 70.281110 
981.000000	 70.441168 
980.000000	 70.596631 
979.000000	 70.764557 
978.000000	 70.953249 
977.000000	 71.149502 
976.000000	 71.345560 
975.000000	 71.552454 
974.000000	 71.776309 
973.000000	 72.006389 
972.000000	 72.237047 
971.000000	 72.478622 
970.000000	 72.736198 
969.000000	 72.998707 
968.000000	 73.258335 
967.000000	 73.521112 
966.000000	 73.790343 
965.000000	 74.058729 
964.000000	 74.323533 
963.000000	 74.590734 
962.000000	 74.858628 
961.000000	 75.116270 
960.000000	 75.363061 
959.000000	 75.610835 
958.000000	 75.862114 
957.000000	 76.105495 
956.000000	 76.336801 
955.000000	 76.565325 
954.000000	 76.794903 
953.000000	 77.017889 
952.000000	 77.231735 
951.000000	 77.442138 
950.000000	 77.646253 
949.000000	 77.832368 
948.000000	 78.000007 
947.000000	 78.161423 
946.000000	 78.320036 
945.000000	 78.466658 
944.000000	 78.599973 
943.000000	 78.730404 
942.000000	 78.859831 
941.000000	 78.977816 
940.000000	 79.082666 
939.000000	 79.186101 
938.000000	 79.292204 
937.000000	 79.392055 
936.000000	 79.484950 
935.000000	 79.584565 
934.000000	 79.696913 
933.000000	 79.811062 
932.000000	 79.918740 
931.000000	 80.025065 
930.000000	 80.133406 
929.000000	 80.237565 
928.000000	 80.336287 
927.000000	 80.438935 
926.000000	 80.549316 
925.000000	 80.658000 
924.000000	 80.755756 
923.000000	 80.840925 
922.000000	 80.911216 
921.000000	 80.964106 
920.000000	 81.008128 
919.000000	 81.057378 
918.000000	 81.111394 
917.000000	 81.156294 
916.000000	 81.188527 
915.000000	 81.221611 
914.000000	 81.267741 
913.000000	 81.330169 
912.000000	 81.415347 
911.000000	 81.533516 
910.000000	 81.683462 
909.000000	 81.853940 
908.000000	 82.042654 
907.000000	 82.256807 
906.000000	 82.494736 
905.000000	 82.746050 
904.000000	 83.009983 
903.000000	 83.293330 
902.000000	 83.589648 
901.000000	 83.881111 
900.000000	 84.162399 
899.000000	 84.442985 
898.000000	 84.725139 
897.000000	 84.999702 
896.000000	 85.264258 
895.000000	 85.525545 
894.000000	 85.782958 
893.000000	 86.029158 
892.000000	 86.267415 
891.000000	 86.508552 
890.000000	 86.750013 
889.000000	 86.977716 
888.000000	 87.189654 
887.000000	 87.398384 
886.000000	 87.609394 
885.000000	 87.815981 
884.000000	 88.015371 
883.000000	 88.209712 
882.000000	 88.392219 
881.000000	 88.555486 
880.000000	 88.714465 
879.000000	 88.896586 
878.000000	 89.104875 
877.000000	 89.314365 
876.000000	 89.508675 
875.000000	 89.695905 
874.000000	 89.885440 
873.000000	 90.075787 
872.000000	 90.271778 
871.000000	 90.488250 
870.000000	 90.727177 
869.000000	 90.971242 
868.000000	 91.206879 
867.000000	 91.435391 
866.000000	 91.657540 
865.000000	 91.866988 
864.000000	 92.064921 
863.000000	 92.263487 
862.000000	 92.467696 
861.000000	 92.668430 
860.000000	 92.858267 
859.000000	 93.039934 
858.000000	 93.215615 
857.000000	 93.382399 
856.000000	 93.541851 
855.000000	 93.699907 
854.000000	 93.854037 
853.000000	 93.994441 
852.000000	 94.120572 
851.000000	 94.242946 
850.000000	 94.366873 
849.000000	 94.488134 
848.000000	 94.605323 
847.000000	 94.720751 
846.000000	 94.828032 
845.000000	 94.915195 
844.000000	 94.982238 
843.000000	 95.040146 
842.000000	 95.090725 
841.000000	 95.122928 
840.000000	 95.130773 
839.000000	 95.118889 
838.000000	 95.089486 
837.000000	 95.041861 
836.000000	 94.987902 
835.000000	 94.949535 
834.000000	 94.934117 
833.000000	 94.927817 
832.000000	 94.918705 
831.000000	 94.910737 
830.000000	 94.910524 
829.000000	 94.918632 
828.000000	 94.942278 
827.000000	 94.998547 
826.000000	 95.092358 
825.000000	 95.204207 
824.000000	 95.308821 
823.000000	 95.393429 
822.000000	 95.454414 
821.000000	 95.493930 
820.000000	 95.524325 
819.000000	 95.558677 
818.000000	 95.591576 
817.000000	 95.601881 
816.000000	 95.576328 
815.000000	 95.518533 
814.000000	 95.435011 
813.000000	 95.326014 
812.000000	 95.190216 
811.000000	 95.021906 
810.000000	 94.800504 
809.000000	 94.499280 
808.000000	 94.110441 
807.000000	 93.650622 
806.000000	 93.141010 
805.000000	 92.597356 
804.000000	 92.041610 
803.000000	 91.503171 
802.000000	 91.000587 
801.000000	 90.539455 
800.000000	 90.134449 
799.000000	 89.813546 
798.000000	 89.592497 
797.000000	 89.463348 
796.000000	 89.412788 
795.000000	 89.430536 
794.000000	 89.495355 
793.000000	 89.577294 
792.000000	 89.662068 
791.000000	 89.753711 
790.000000	 89.849069 
789.000000	 89.930338 
788.000000	 89.985216 
787.000000	 90.010937 
786.000000	 89.994024 
785.000000	 89.910007 
784.000000	 89.751729 
783.000000	 89.539819 
782.000000	 89.301440 
781.000000	 89.059496 
780.000000	 88.844917 
779.000000	 88.691533 
778.000000	 88.608536 
777.000000	 88.580921 
776.000000	 88.604217 
775.000000	 88.693494 
774.000000	 88.849973 
773.000000	 89.045743 
772.000000	 89.252706 
771.000000	 89.462357 
770.000000	 89.666879 
769.000000	 89.846470 
768.000000	 89.988916 
767.000000	 90.100917 
766.000000	 90.188946 
765.000000	 90.249616 
764.000000	 90.289516 
763.000000	 90.331382 
762.000000	 90.385824 
761.000000	 90.436789 
760.000000	 90.470035 
759.000000	 90.498794 
758.000000	 90.547837 
757.000000	 90.629099 
756.000000	 90.744911 
755.000000	 90.895417 
754.000000	 91.066716 
753.000000	 91.227448 
752.000000	 91.353920 
751.000000	 91.450637 
750.000000	 91.537963 
749.000000	 91.630832 
748.000000	 91.735468 
747.000000	 91.850984 
746.000000	 91.964659 
745.000000	 92.060126 
744.000000	 92.140637 
743.000000	 92.232066 
742.000000	 92.354422 
741.000000	 92.503180 
740.000000	 92.665328 
739.000000	 92.837659 
738.000000	 93.019052 
737.000000	 93.198286 
736.000000	 93.361301 
735.000000	 93.503605 
734.000000	 93.629838 
733.000000	 93.749377 
732.000000	 93.873635 
731.000000	 94.004339 
730.000000	 94.120913 
729.000000	 94.193696 
728.000000	 94.217339 
727.000000	 94.219372 
726.000000	 94.232304 
725.000000	 94.271740 
724.000000	 94.341285 
723.000000	 94.437759 
722.000000	 94.545465 
721.000000	 94.643556 
720.000000	 94.727787 
719.000000	 94.810849 
718.000000	 94.899340 
717.000000	 94.990113 
716.000000	 95.087431 
715.000000	 95.199099 
714.000000	 95.312725 
713.000000	 95.400337 
712.000000	 95.454635 
711.000000	 95.498106 
710.000000	 95.548345 
709.000000	 95.597077 
708.000000	 95.632461 
707.000000	 95.657565 
706.000000	 95.671345 
705.000000	 95.656392 
704.000000	 95.601157 
703.000000	 95.512747 
702.000000	 95.395960 
701.000000	 95.237846 
700.000000	 95.025195 
699.000000	 94.762408 
698.000000	 94.461331 
697.000000	 94.138224 
696.000000	 93.833779 
695.000000	 93.609789 
694.000000	 93.510150 
693.000000	 93.534791 
692.000000	 93.655799 
691.000000	 93.840675 
690.000000	 94.050568 
689.000000	 94.244406 
688.000000	 94.404379 
687.000000	 94.541306 
686.000000	 94.666083 
685.000000	 94.774042 
684.000000	 94.864269 
683.000000	 94.948960 
682.000000	 95.031623 
681.000000	 95.102145 
680.000000	 95.163290 
679.000000	 95.240677 
678.000000	 95.347159 
677.000000	 95.466675 
676.000000	 95.591343 
675.000000	 95.731004 
674.000000	 95.880991 
673.000000	 96.011313 
672.000000	 96.099316 
671.000000	 96.165738 
670.000000	 96.267782 
669.000000	 96.444592 
668.000000	 96.602546 
667.000000	 96.654874 
666.000000	 96.669919 
665.000000	 96.673642 
664.000000	 96.663697 
663.000000	 96.663766 
662.000000	 96.695051 
661.000000	 96.739980 
660.000000	 96.791668 
659.000000	 96.871238 
658.000000	 96.975933 
657.000000	 97.056655 
656.000000	 97.086449 
655.000000	 97.084424 
654.000000	 97.065506 
653.000000	 97.018738 
652.000000	 96.956056 
651.000000	 96.929383 
650.000000	 96.960512 

