4000.000000	97.294957 
3999.000000	97.292964 
3998.000000	97.290996 
3997.000000	97.289986 
3996.000000	97.290261 
3995.000000	97.291502 
3994.000000	97.292980 
3993.000000	97.293980 
3992.000000	97.294155 
3991.000000	97.293644 
3990.000000	97.292998 
3989.000000	97.292696 
3988.000000	97.292656 
3987.000000	97.292472 
3986.000000	97.292111 
3985.000000	97.292065 
3984.000000	97.292719 
3983.000000	97.293876 
3982.000000	97.295111 
3981.000000	97.296209 
3980.000000	97.296945 
3979.000000	97.296787 
3978.000000	97.295372 
3977.000000	97.293213 
3976.000000	97.291579 
3975.000000	97.291418 
3974.000000	97.292622 
3973.000000	97.294214 
3972.000000	97.294950 
3971.000000	97.293991 
3970.000000	97.291373 
3969.000000	97.288148 
3968.000000	97.285680 
3967.000000	97.284598 
3966.000000	97.284486 
3965.000000	97.284402 
3964.000000	97.283563 
3963.000000	97.281757 
3962.000000	97.279405 
3961.000000	97.277265 
3960.000000	97.275827 
3959.000000	97.275088 
3958.000000	97.274897 
3957.000000	97.275264 
3956.000000	97.275940 
3955.000000	97.276136 
3954.000000	97.275210 
3953.000000	97.273384 
3952.000000	97.271601 
3951.000000	97.270549 
3950.000000	97.270093 
3949.000000	97.269514 
3948.000000	97.268100 
3947.000000	97.265694 
3946.000000	97.262734 
3945.000000	97.259736 
3944.000000	97.256997 
3943.000000	97.254906 
3942.000000	97.254125 
3941.000000	97.254918 
3940.000000	97.256534 
3939.000000	97.257777 
3938.000000	97.258123 
3937.000000	97.258240 
3936.000000	97.258838 
3935.000000	97.259384 
3934.000000	97.258674 
3933.000000	97.256369 
3932.000000	97.253528 
3931.000000	97.251189 
3930.000000	97.249541 
3929.000000	97.248804 
3928.000000	97.249467 
3927.000000	97.251189 
3926.000000	97.252093 
3925.000000	97.250777 
3924.000000	97.248305 
3923.000000	97.246655 
3922.000000	97.246085 
3921.000000	97.245544 
3920.000000	97.244633 
3919.000000	97.243936 
3918.000000	97.243486 
3917.000000	97.242831 
3916.000000	97.242284 
3915.000000	97.242721 
3914.000000	97.244014 
3913.000000	97.245253 
3912.000000	97.246015 
3911.000000	97.246797 
3910.000000	97.247551 
3909.000000	97.247688 
3908.000000	97.246903 
3907.000000	97.245510 
3906.000000	97.243623 
3905.000000	97.240697 
3904.000000	97.236725 
3903.000000	97.232824 
3902.000000	97.230282 
3901.000000	97.229493 
3900.000000	97.230007 
3899.000000	97.231282 
3898.000000	97.232829 
3897.000000	97.233964 
3896.000000	97.234181 
3895.000000	97.233699 
3894.000000	97.233059 
3893.000000	97.232563 
3892.000000	97.231909 
3891.000000	97.230939 
3890.000000	97.230007 
3889.000000	97.229465 
3888.000000	97.229121 
3887.000000	97.228525 
3886.000000	97.227673 
3885.000000	97.226933 
3884.000000	97.226421 
3883.000000	97.225953 
3882.000000	97.225421 
3881.000000	97.224900 
3880.000000	97.224473 
3879.000000	97.224102 
3878.000000	97.223741 
3877.000000	97.223396 
3876.000000	97.223056 
3875.000000	97.222710 
3874.000000	97.222356 
3873.000000	97.222001 
3872.000000	97.221647 
3871.000000	97.221293 
3870.000000	97.220946 
3869.000000	97.220628 
3868.000000	97.220351 
3867.000000	97.220108 
3866.000000	97.219885 
3865.000000	97.219682 
3864.000000	97.219508 
3863.000000	97.219356 
3862.000000	97.219204 
3861.000000	97.219034 
3860.000000	97.218843 
3859.000000	97.218628 
3858.000000	97.218388 
3857.000000	97.218129 
3856.000000	97.217865 
3855.000000	97.217610 
3854.000000	97.217374 
3853.000000	97.217166 
3852.000000	97.216991 
3851.000000	97.216850 
3850.000000	97.216742 
3849.000000	97.216663 
3848.000000	97.216603 
3847.000000	97.216547 
3846.000000	97.216480 
3845.000000	97.216393 
3844.000000	97.216289 
3843.000000	97.216179 
3842.000000	97.216078 
3841.000000	97.215999 
3840.000000	97.215939 
3839.000000	97.215887 
3838.000000	97.215821 
3837.000000	97.215729 
3836.000000	97.215611 
3835.000000	97.215480 
3834.000000	97.215352 
3833.000000	97.215237 
3832.000000	97.215137 
3831.000000	97.215049 
3830.000000	97.214965 
3829.000000	97.214878 
3828.000000	97.214785 
3827.000000	97.214680 
3826.000000	97.214556 
3825.000000	97.214411 
3824.000000	97.214254 
3823.000000	97.214086 
3822.000000	97.213910 
3821.000000	97.213737 
3820.000000	97.213592 
3819.000000	97.213495 
3818.000000	97.213443 
3817.000000	97.213419 
3816.000000	97.213413 
3815.000000	97.213422 
3814.000000	97.213438 
3813.000000	97.213443 
3812.000000	97.213426 
3811.000000	97.213390 
3810.000000	97.213346 
3809.000000	97.213290 
3808.000000	97.213210 
3807.000000	97.213094 
3806.000000	97.212953 
3805.000000	97.212808 
3804.000000	97.212676 
3803.000000	97.212565 
3802.000000	97.212480 
3801.000000	97.212424 
3800.000000	97.212388 
3799.000000	97.212346 
3798.000000	97.212275 
3797.000000	97.212165 
3796.000000	97.212024 
3795.000000	97.211850 
3794.000000	97.211632 
3793.000000	97.211382 
3792.000000	97.211090 
3791.000000	97.210769 
3790.000000	97.210512 
3789.000000	97.210299 
3788.000000	97.209951 
3787.000000	97.209389 
3786.000000	97.208647 
3785.000000	97.207699 
3784.000000	97.206601 
3783.000000	97.205648 
3782.000000	97.204950 
3781.000000	97.204227 
3780.000000	97.203321 
3779.000000	97.202755 
3778.000000	97.203009 
3777.000000	97.203707 
3776.000000	97.203786 
3775.000000	97.202771 
3774.000000	97.201403 
3773.000000	97.200790 
3772.000000	97.200765 
3771.000000	97.200117 
3770.000000	97.198621 
3769.000000	97.197457 
3768.000000	97.197135 
3767.000000	97.196694 
3766.000000	97.195066 
3765.000000	97.192648 
3764.000000	97.191075 
3763.000000	97.191064 
3762.000000	97.191378 
3761.000000	97.190631 
3760.000000	97.189210 
3759.000000	97.188236 
3758.000000	97.186830 
3757.000000	97.183680 
3756.000000	97.179356 
3755.000000	97.175111 
3754.000000	97.171126 
3753.000000	97.167421 
3752.000000	97.165926 
3751.000000	97.167762 
3750.000000	97.169689 
3749.000000	97.168907 
3748.000000	97.167863 
3747.000000	97.169499 
3746.000000	97.171981 
3745.000000	97.171461 
3744.000000	97.169605 
3743.000000	97.169652 
3742.000000	97.170177 
3741.000000	97.168729 
3740.000000	97.165886 
3739.000000	97.164801 
3738.000000	97.166107 
3737.000000	97.166369 
3736.000000	97.163966 
3735.000000	97.162510 
3734.000000	97.165118 
3733.000000	97.169228 
3732.000000	97.170786 
3731.000000	97.169421 
3730.000000	97.167100 
3729.000000	97.164913 
3728.000000	97.162303 
3727.000000	97.159255 
3726.000000	97.157731 
3725.000000	97.158868 
3724.000000	97.161017 
3723.000000	97.162242 
3722.000000	97.162845 
3721.000000	97.163795 
3720.000000	97.164480 
3719.000000	97.163886 
3718.000000	97.161347 
3717.000000	97.157575 
3716.000000	97.154306 
3715.000000	97.151556 
3714.000000	97.147456 
3713.000000	97.141335 
3712.000000	97.135589 
3711.000000	97.132508 
3710.000000	97.131197 
3709.000000	97.130061 
3708.000000	97.128333 
3707.000000	97.125712 
3706.000000	97.122757 
3705.000000	97.120434 
3704.000000	97.118985 
3703.000000	97.117232 
3702.000000	97.113143 
3701.000000	97.105590 
3700.000000	97.095842 
3699.000000	97.086766 
3698.000000	97.079378 
3697.000000	97.072670 
3696.000000	97.067084 
3695.000000	97.063417 
3694.000000	97.060090 
3693.000000	97.055978 
3692.000000	97.053835 
3691.000000	97.057384 
3690.000000	97.064431 
3689.000000	97.068231 
3688.000000	97.065769 
3687.000000	97.060231 
3686.000000	97.055060 
3685.000000	97.049242 
3684.000000	97.041302 
3683.000000	97.034052 
3682.000000	97.030429 
3681.000000	97.026439 
3680.000000	97.016085 
3679.000000	97.000536 
3678.000000	96.986613 
3677.000000	96.974994 
3676.000000	96.962250 
3675.000000	96.951714 
3674.000000	96.946982 
3673.000000	96.945462 
3672.000000	96.941037 
3671.000000	96.930474 
3670.000000	96.919582 
3669.000000	96.914444 
3668.000000	96.910693 
3667.000000	96.902470 
3666.000000	96.890785 
3665.000000	96.879712 
3664.000000	96.871357 
3663.000000	96.864980 
3662.000000	96.858198 
3661.000000	96.849384 
3660.000000	96.839555 
3659.000000	96.830011 
3658.000000	96.819865 
3657.000000	96.805319 
3656.000000	96.785517 
3655.000000	96.764983 
3654.000000	96.748610 
3653.000000	96.736912 
3652.000000	96.725629 
3651.000000	96.710898 
3650.000000	96.694159 
3649.000000	96.678406 
3648.000000	96.664396 
3647.000000	96.653927 
3646.000000	96.649012 
3645.000000	96.648269 
3644.000000	96.647674 
3643.000000	96.644654 
3642.000000	96.639466 
3641.000000	96.633530 
3640.000000	96.626295 
3639.000000	96.615798 
3638.000000	96.602960 
3637.000000	96.591114 
3636.000000	96.580839 
3635.000000	96.567723 
3634.000000	96.549517 
3633.000000	96.531197 
3632.000000	96.518318 
3631.000000	96.507347 
3630.000000	96.488698 
3629.000000	96.464349 
3628.000000	96.447335 
3627.000000	96.441563 
3626.000000	96.441195 
3625.000000	96.442196 
3624.000000	96.445603 
3623.000000	96.453651 
3622.000000	96.463788 
3621.000000	96.468170 
3620.000000	96.461293 
3619.000000	96.446021 
3618.000000	96.429574 
3617.000000	96.417857 
3616.000000	96.413995 
3615.000000	96.416610 
3614.000000	96.421575 
3613.000000	96.426658 
3612.000000	96.432231 
3611.000000	96.437597 
3610.000000	96.439986 
3609.000000	96.438257 
3608.000000	96.435437 
3607.000000	96.435457 
3606.000000	96.438777 
3605.000000	96.443898 
3604.000000	96.450314 
3603.000000	96.458231 
3602.000000	96.467010 
3601.000000	96.474479 
3600.000000	96.479161 
3599.000000	96.480341 
3598.000000	96.477319 
3597.000000	96.470357 
3596.000000	96.462043 
3595.000000	96.454806 
3594.000000	96.449995 
3593.000000	96.448111 
3592.000000	96.449372 
3591.000000	96.453499 
3590.000000	96.457925 
3589.000000	96.458341 
3588.000000	96.453499 
3587.000000	96.447933 
3586.000000	96.446964 
3585.000000	96.451700 
3584.000000	96.459836 
3583.000000	96.468032 
3582.000000	96.473838 
3581.000000	96.476111 
3580.000000	96.475166 
3579.000000	96.472159 
3578.000000	96.468338 
3577.000000	96.464663 
3576.000000	96.461493 
3575.000000	96.458353 
3574.000000	96.454160 
3573.000000	96.448604 
3572.000000	96.442623 
3571.000000	96.437898 
3570.000000	96.435140 
3569.000000	96.433114 
3568.000000	96.430507 
3567.000000	96.428051 
3566.000000	96.426637 
3565.000000	96.425424 
3564.000000	96.423455 
3563.000000	96.421108 
3562.000000	96.419404 
3561.000000	96.418704 
3560.000000	96.418197 
3559.000000	96.416972 
3558.000000	96.415231 
3557.000000	96.414376 
3556.000000	96.415645 
3555.000000	96.418747 
3554.000000	96.421699 
3553.000000	96.422471 
3552.000000	96.420899 
3551.000000	96.418626 
3550.000000	96.417397 
3549.000000	96.417680 
3548.000000	96.418657 
3547.000000	96.418870 
3546.000000	96.416940 
3545.000000	96.412561 
3544.000000	96.407156 
3543.000000	96.403068 
3542.000000	96.401660 
3541.000000	96.402571 
3540.000000	96.404480 
3539.000000	96.406066 
3538.000000	96.406535 
3537.000000	96.405865 
3536.000000	96.404833 
3535.000000	96.404220 
3534.000000	96.404123 
3533.000000	96.404069 
3532.000000	96.403878 
3531.000000	96.403848 
3530.000000	96.403911 
3529.000000	96.403196 
3528.000000	96.400954 
3527.000000	96.397663 
3526.000000	96.394624 
3525.000000	96.392701 
3524.000000	96.392028 
3523.000000	96.392631 
3522.000000	96.394527 
3521.000000	96.397277 
3520.000000	96.399979 
3519.000000	96.401945 
3518.000000	96.403202 
3517.000000	96.404037 
3516.000000	96.404302 
3515.000000	96.403490 
3514.000000	96.401595 
3513.000000	96.399327 
3512.000000	96.397295 
3511.000000	96.395423 
3510.000000	96.393498 
3509.000000	96.391908 
3508.000000	96.391376 
3507.000000	96.392073 
3506.000000	96.393222 
3505.000000	96.393678 
3504.000000	96.392899 
3503.000000	96.391204 
3502.000000	96.389243 
3501.000000	96.387519 
3500.000000	96.386562 
3499.000000	96.387054 
3498.000000	96.389234 
3497.000000	96.392282 
3496.000000	96.394561 
3495.000000	96.394880 
3494.000000	96.393519 
3493.000000	96.391795 
3492.000000	96.390536 
3491.000000	96.389427 
3490.000000	96.388032 
3489.000000	96.386731 
3488.000000	96.386073 
3487.000000	96.385714 
3486.000000	96.384952 
3485.000000	96.384255 
3484.000000	96.385122 
3483.000000	96.387994 
3482.000000	96.391079 
3481.000000	96.391993 
3480.000000	96.390141 
3479.000000	96.386789 
3478.000000	96.383305 
3477.000000	96.380163 
3476.000000	96.377616 
3475.000000	96.376377 
3474.000000	96.377095 
3473.000000	96.379536 
3472.000000	96.382625 
3471.000000	96.385272 
3470.000000	96.387145 
3469.000000	96.388662 
3468.000000	96.390310 
3467.000000	96.392157 
3466.000000	96.393955 
3465.000000	96.395393 
3464.000000	96.396009 
3463.000000	96.395034 
3462.000000	96.391896 
3461.000000	96.387093 
3460.000000	96.382089 
3459.000000	96.377876 
3458.000000	96.373975 
3457.000000	96.369184 
3456.000000	96.363224 
3455.000000	96.357316 
3454.000000	96.353181 
3453.000000	96.351619 
3452.000000	96.352388 
3451.000000	96.354815 
3450.000000	96.357846 
3449.000000	96.359799 
3448.000000	96.358988 
3447.000000	96.355054 
3446.000000	96.349250 
3445.000000	96.343208 
3444.000000	96.337712 
3443.000000	96.332860 
3442.000000	96.328906 
3441.000000	96.326350 
3440.000000	96.325248 
3439.000000	96.324816 
3438.000000	96.323927 
3437.000000	96.322001 
3436.000000	96.319571 
3435.000000	96.317886 
3434.000000	96.317780 
3433.000000	96.318750 
3432.000000	96.319332 
3431.000000	96.318437 
3430.000000	96.316204 
3429.000000	96.313656 
3428.000000	96.311687 
3427.000000	96.310474 
3426.000000	96.309677 
3425.000000	96.308891 
3424.000000	96.307767 
3423.000000	96.305940 
3422.000000	96.303213 
3421.000000	96.299891 
3420.000000	96.296779 
3419.000000	96.294625 
3418.000000	96.293588 
3417.000000	96.293227 
3416.000000	96.292852 
3415.000000	96.291973 
3414.000000	96.290503 
3413.000000	96.288692 
3412.000000	96.286968 
3411.000000	96.285667 
3410.000000	96.284831 
3409.000000	96.284284 
3408.000000	96.283871 
3407.000000	96.283543 
3406.000000	96.283221 
3405.000000	96.282731 
3404.000000	96.281925 
3403.000000	96.280771 
3402.000000	96.279351 
3401.000000	96.277859 
3400.000000	96.276606 
3399.000000	96.275845 
3398.000000	96.275548 
3397.000000	96.275370 
3396.000000	96.274893 
3395.000000	96.273939 
3394.000000	96.272659 
3393.000000	96.271431 
3392.000000	96.270646 
3391.000000	96.270482 
3390.000000	96.270779 
3389.000000	96.271111 
3388.000000	96.271142 
3387.000000	96.270911 
3386.000000	96.270732 
3385.000000	96.270763 
3384.000000	96.270763 
3383.000000	96.270358 
3382.000000	96.269548 
3381.000000	96.268731 
3380.000000	96.268164 
3379.000000	96.267582 
3378.000000	96.266672 
3377.000000	96.265849 
3376.000000	96.266050 
3375.000000	96.267605 
3374.000000	96.269689 
3373.000000	96.271099 
3372.000000	96.271459 
3371.000000	96.271404 
3370.000000	96.271732 
3369.000000	96.272564 
3368.000000	96.273424 
3367.000000	96.273924 
3366.000000	96.274229 
3365.000000	96.274841 
3364.000000	96.276022 
3363.000000	96.277477 
3362.000000	96.278561 
3361.000000	96.278794 
3360.000000	96.278248 
3359.000000	96.277563 
3358.000000	96.277543 
3357.000000	96.278576 
3356.000000	96.280315 
3355.000000	96.281895 
3354.000000	96.282677 
3353.000000	96.282799 
3352.000000	96.282977 
3351.000000	96.283799 
3350.000000	96.285349 
3349.000000	96.287472 
3348.000000	96.290172 
3347.000000	96.293552 
3346.000000	96.297330 
3345.000000	96.300564 
3344.000000	96.302196 
3343.000000	96.301916 
3342.000000	96.300519 
3341.000000	96.299414 
3340.000000	96.299422 
3339.000000	96.300153 
3338.000000	96.300701 
3337.000000	96.300845 
3336.000000	96.301308 
3335.000000	96.302792 
3334.000000	96.305071 
3333.000000	96.307243 
3332.000000	96.308740 
3331.000000	96.309808 
3330.000000	96.310930 
3329.000000	96.312133 
3328.000000	96.313068 
3327.000000	96.313621 
3326.000000	96.314141 
3325.000000	96.314982 
3324.000000	96.315936 
3323.000000	96.316372 
3322.000000	96.315961 
3321.000000	96.315098 
3320.000000	96.314486 
3319.000000	96.314409 
3318.000000	96.314636 
3317.000000	96.314984 
3316.000000	96.315762 
3315.000000	96.317493 
3314.000000	96.320331 
3313.000000	96.323813 
3312.000000	96.327132 
3311.000000	96.329703 
3310.000000	96.331501 
3309.000000	96.332915 
3308.000000	96.334246 
3307.000000	96.335326 
3306.000000	96.335755 
3305.000000	96.335508 
3304.000000	96.335128 
3303.000000	96.335283 
3302.000000	96.336192 
3301.000000	96.337519 
3300.000000	96.338711 
3299.000000	96.339439 
3298.000000	96.339754 
3297.000000	96.339967 
3296.000000	96.340397 
3295.000000	96.341175 
3294.000000	96.342222 
3293.000000	96.343344 
3292.000000	96.344343 
3291.000000	96.345129 
3290.000000	96.345752 
3289.000000	96.346337 
3288.000000	96.347005 
3287.000000	96.347806 
3286.000000	96.348707 
3285.000000	96.349638 
3284.000000	96.350545 
3283.000000	96.351422 
3282.000000	96.352293 
3281.000000	96.353174 
3280.000000	96.354066 
3279.000000	96.354969 
3278.000000	96.355884 
3277.000000	96.356812 
3276.000000	96.357753 
3275.000000	96.358704 
3274.000000	96.359657 
3273.000000	96.360606 
3272.000000	96.361549 
3271.000000	96.362490 
3270.000000	96.363431 
3269.000000	96.364372 
3268.000000	96.365314 
3267.000000	96.366258 
3266.000000	96.367216 
3265.000000	96.368199 
3264.000000	96.369222 
3263.000000	96.370288 
3262.000000	96.371394 
3261.000000	96.372526 
3260.000000	96.373671 
3259.000000	96.374817 
3258.000000	96.375963 
3257.000000	96.377111 
3256.000000	96.378272 
3255.000000	96.379449 
3254.000000	96.380643 
3253.000000	96.381846 
3252.000000	96.383052 
3251.000000	96.384259 
3250.000000	96.385465 
3249.000000	96.386672 
3248.000000	96.387881 
3247.000000	96.389093 
3246.000000	96.390310 
3245.000000	96.391536 
3244.000000	96.392772 
3243.000000	96.394025 
3242.000000	96.395296 
3241.000000	96.396590 
3240.000000	96.397905 
3239.000000	96.399238 
3238.000000	96.400588 
3237.000000	96.401957 
3236.000000	96.403344 
3235.000000	96.404743 
3234.000000	96.406145 
3233.000000	96.407548 
3232.000000	96.408944 
3231.000000	96.410326 
3230.000000	96.411699 
3229.000000	96.413085 
3228.000000	96.414515 
3227.000000	96.416017 
3226.000000	96.417595 
3225.000000	96.419218 
3224.000000	96.420829 
3223.000000	96.422381 
3222.000000	96.423876 
3221.000000	96.425386 
3220.000000	96.426986 
3219.000000	96.428690 
3218.000000	96.430436 
3217.000000	96.432142 
3216.000000	96.433783 
3215.000000	96.435388 
3214.000000	96.437027 
3213.000000	96.438756 
3212.000000	96.440545 
3211.000000	96.442271 
3210.000000	96.443835 
3209.000000	96.445294 
3208.000000	96.446826 
3207.000000	96.448548 
3206.000000	96.450433 
3205.000000	96.452427 
3204.000000	96.454564 
3203.000000	96.456870 
3202.000000	96.459262 
3201.000000	96.461594 
3200.000000	96.463771 
3199.000000	96.465818 
3198.000000	96.467827 
3197.000000	96.469845 
3196.000000	96.471851 
3195.000000	96.473822 
3194.000000	96.475794 
3193.000000	96.477823 
3192.000000	96.479911 
3191.000000	96.482020 
3190.000000	96.484125 
3189.000000	96.486226 
3188.000000	96.488316 
3187.000000	96.490395 
3186.000000	96.492473 
3185.000000	96.494557 
3184.000000	96.496648 
3183.000000	96.498748 
3182.000000	96.500856 
3181.000000	96.502975 
3180.000000	96.505100 
3179.000000	96.507226 
3178.000000	96.509346 
3177.000000	96.511461 
3176.000000	96.513578 
3175.000000	96.515699 
3174.000000	96.517818 
3173.000000	96.519925 
3172.000000	96.522010 
3171.000000	96.524070 
3170.000000	96.526109 
3169.000000	96.528139 
3168.000000	96.530175 
3167.000000	96.532223 
3166.000000	96.534281 
3165.000000	96.536340 
3164.000000	96.538393 
3163.000000	96.540442 
3162.000000	96.542492 
3161.000000	96.544547 
3160.000000	96.546604 
3159.000000	96.548658 
3158.000000	96.550704 
3157.000000	96.552747 
3156.000000	96.554801 
3155.000000	96.556877 
3154.000000	96.558978 
3153.000000	96.561096 
3152.000000	96.563217 
3151.000000	96.565330 
3150.000000	96.567427 
3149.000000	96.569513 
3148.000000	96.571601 
3147.000000	96.573710 
3146.000000	96.575853 
3145.000000	96.578028 
3144.000000	96.580222 
3143.000000	96.582417 
3142.000000	96.584603 
3141.000000	96.586779 
3140.000000	96.588945 
3139.000000	96.591102 
3138.000000	96.593246 
3137.000000	96.595382 
3136.000000	96.597515 
3135.000000	96.599653 
3134.000000	96.601796 
3133.000000	96.603947 
3132.000000	96.606107 
3131.000000	96.608278 
3130.000000	96.610463 
3129.000000	96.612667 
3128.000000	96.614888 
3127.000000	96.617128 
3126.000000	96.619389 
3125.000000	96.621663 
3124.000000	96.623934 
3123.000000	96.626189 
3122.000000	96.628423 
3121.000000	96.630642 
3120.000000	96.632859 
3119.000000	96.635086 
3118.000000	96.637330 
3117.000000	96.639592 
3116.000000	96.641873 
3115.000000	96.644146 
3114.000000	96.646349 
3113.000000	96.648420 
3112.000000	96.650384 
3111.000000	96.652406 
3110.000000	96.654645 
3109.000000	96.657111 
3108.000000	96.659624 
3107.000000	96.661951 
3106.000000	96.664020 
3105.000000	96.665917 
3104.000000	96.667745 
3103.000000	96.669569 
3102.000000	96.671460 
3101.000000	96.673463 
3100.000000	96.675512 
3099.000000	96.677437 
3098.000000	96.679190 
3097.000000	96.680980 
3096.000000	96.683069 
3095.000000	96.685475 
3094.000000	96.687968 
3093.000000	96.690294 
3092.000000	96.692360 
3091.000000	96.694203 
3090.000000	96.695915 
3089.000000	96.697623 
3088.000000	96.699442 
3087.000000	96.701427 
3086.000000	96.703567 
3085.000000	96.705811 
3084.000000	96.708045 
3083.000000	96.710114 
3082.000000	96.711963 
3081.000000	96.713759 
3080.000000	96.715724 
3079.000000	96.717800 
3078.000000	96.719670 
3077.000000	96.721232 
3076.000000	96.722820 
3075.000000	96.724816 
3074.000000	96.727135 
3073.000000	96.729270 
3072.000000	96.730883 
3071.000000	96.732132 
3070.000000	96.733452 
3069.000000	96.735108 
3068.000000	96.737028 
3067.000000	96.738905 
3066.000000	96.740415 
3065.000000	96.741451 
3064.000000	96.742195 
3063.000000	96.742956 
3062.000000	96.743891 
3061.000000	96.744997 
3060.000000	96.746288 
3059.000000	96.747805 
3058.000000	96.749539 
3057.000000	96.751454 
3056.000000	96.753486 
3055.000000	96.755416 
3054.000000	96.756908 
3053.000000	96.757804 
3052.000000	96.758371 
3051.000000	96.759117 
3050.000000	96.760275 
3049.000000	96.761651 
3048.000000	96.762941 
3047.000000	96.764043 
3046.000000	96.765006 
3045.000000	96.765875 
3044.000000	96.766736 
3043.000000	96.767784 
3042.000000	96.769147 
3041.000000	96.770630 
3040.000000	96.771764 
3039.000000	96.772259 
3038.000000	96.772304 
3037.000000	96.772405 
3036.000000	96.772896 
3035.000000	96.773665 
3034.000000	96.774362 
3033.000000	96.774775 
3032.000000	96.774942 
3031.000000	96.774987 
3030.000000	96.774950 
3029.000000	96.774875 
3028.000000	96.774902 
3027.000000	96.775138 
3026.000000	96.775442 
3025.000000	96.775471 
3024.000000	96.775020 
3023.000000	96.774270 
3022.000000	96.773700 
3021.000000	96.773778 
3020.000000	96.774680 
3019.000000	96.776067 
3018.000000	96.777118 
3017.000000	96.777078 
3016.000000	96.775880 
3015.000000	96.774295 
3014.000000	96.773412 
3013.000000	96.773841 
3012.000000	96.775347 
3011.000000	96.776887 
3010.000000	96.777226 
3009.000000	96.775826 
3008.000000	96.773212 
3007.000000	96.770549 
3006.000000	96.768703 
3005.000000	96.767763 
3004.000000	96.767325 
3003.000000	96.766910 
3002.000000	96.766264 
3001.000000	96.765611 
3000.000000	96.765556 
2999.000000	96.766301 
2998.000000	96.767061 
2997.000000	96.766751 
2996.000000	96.765220 
2995.000000	96.763329 
2994.000000	96.761772 
2993.000000	96.760421 
2992.000000	96.758940 
2991.000000	96.757436 
2990.000000	96.756210 
2989.000000	96.755396 
2988.000000	96.755215 
2987.000000	96.756130 
2986.000000	96.758332 
2985.000000	96.761373 
2984.000000	96.764589 
2983.000000	96.767564 
2982.000000	96.769949 
2981.000000	96.771257 
2980.000000	96.771253 
2979.000000	96.770372 
2978.000000	96.769420 
2977.000000	96.768969 
2976.000000	96.769207 
2975.000000	96.770079 
2974.000000	96.771388 
2973.000000	96.773022 
2972.000000	96.775248 
2971.000000	96.778417 
2970.000000	96.782143 
2969.000000	96.785190 
2968.000000	96.786517 
2967.000000	96.786256 
2966.000000	96.785564 
2965.000000	96.785685 
2964.000000	96.787266 
2963.000000	96.790259 
2962.000000	96.793953 
2961.000000	96.797183 
2960.000000	96.799071 
2959.000000	96.799768 
2958.000000	96.800427 
2957.000000	96.802261 
2956.000000	96.805542 
2955.000000	96.809421 
2954.000000	96.812563 
2953.000000	96.814205 
2952.000000	96.814643 
2951.000000	96.814910 
2950.000000	96.815831 
2949.000000	96.817383 
2948.000000	96.818985 
2947.000000	96.820182 
2946.000000	96.820983 
2945.000000	96.821682 
2944.000000	96.822564 
2943.000000	96.823737 
2942.000000	96.825024 
2941.000000	96.825969 
2940.000000	96.826163 
2939.000000	96.825711 
2938.000000	96.825340 
2937.000000	96.825818 
2936.000000	96.827285 
2935.000000	96.829194 
2934.000000	96.830757 
2933.000000	96.831562 
2932.000000	96.831717 
2931.000000	96.831630 
2930.000000	96.831690 
2929.000000	96.832076 
2928.000000	96.832786 
2927.000000	96.833747 
2926.000000	96.834839 
2925.000000	96.835870 
2924.000000	96.836643 
2923.000000	96.837131 
2922.000000	96.837509 
2921.000000	96.837991 
2920.000000	96.838704 
2919.000000	96.839745 
2918.000000	96.841118 
2917.000000	96.842447 
2916.000000	96.843039 
2915.000000	96.842532 
2914.000000	96.841460 
2913.000000	96.840880 
2912.000000	96.841186 
2911.000000	96.841658 
2910.000000	96.841312 
2909.000000	96.839998 
2908.000000	96.838552 
2907.000000	96.837996 
2906.000000	96.838637 
2905.000000	96.839910 
2904.000000	96.840829 
2903.000000	96.840847 
2902.000000	96.840332 
2901.000000	96.840212 
2900.000000	96.841175 
2899.000000	96.843075 
2898.000000	96.845218 
2897.000000	96.846974 
2896.000000	96.848032 
2895.000000	96.848325 
2894.000000	96.848187 
2893.000000	96.848492 
2892.000000	96.850087 
2891.000000	96.852896 
2890.000000	96.855795 
2889.000000	96.857725 
2888.000000	96.858697 
2887.000000	96.859441 
2886.000000	96.860365 
2885.000000	96.861262 
2884.000000	96.861954 
2883.000000	96.862651 
2882.000000	96.863509 
2881.000000	96.864297 
2880.000000	96.864971 
2879.000000	96.866233 
2878.000000	96.868930 
2877.000000	96.872925 
2876.000000	96.876898 
2875.000000	96.879563 
2874.000000	96.880813 
2873.000000	96.881527 
2872.000000	96.882590 
2871.000000	96.884170 
2870.000000	96.885884 
2869.000000	96.887286 
2868.000000	96.888137 
2867.000000	96.888497 
2866.000000	96.888744 
2865.000000	96.889375 
2864.000000	96.890718 
2863.000000	96.892836 
2862.000000	96.895627 
2861.000000	96.898830 
2860.000000	96.901947 
2859.000000	96.904515 
2858.000000	96.906564 
2857.000000	96.908604 
2856.000000	96.911060 
2855.000000	96.913778 
2854.000000	96.916161 
2853.000000	96.917771 
2852.000000	96.918659 
2851.000000	96.919251 
2850.000000	96.920086 
2849.000000	96.921519 
2848.000000	96.923518 
2847.000000	96.925681 
2846.000000	96.927548 
2845.000000	96.928994 
2844.000000	96.930272 
2843.000000	96.931729 
2842.000000	96.933513 
2841.000000	96.935515 
2840.000000	96.937466 
2839.000000	96.939134 
2838.000000	96.940483 
2837.000000	96.941707 
2836.000000	96.943062 
2835.000000	96.944650 
2834.000000	96.946372 
2833.000000	96.948080 
2832.000000	96.949717 
2831.000000	96.951290 
2830.000000	96.952781 
2829.000000	96.954144 
2828.000000	96.955381 
2827.000000	96.956580 
2826.000000	96.957847 
2825.000000	96.959214 
2824.000000	96.960622 
2823.000000	96.961975 
2822.000000	96.963218 
2821.000000	96.964366 
2820.000000	96.965470 
2819.000000	96.966561 
2818.000000	96.967649 
2817.000000	96.968732 
2816.000000	96.969809 
2815.000000	96.970877 
2814.000000	96.971937 
2813.000000	96.972987 
2812.000000	96.974028 
2811.000000	96.975065 
2810.000000	96.976109 
2809.000000	96.977169 
2808.000000	96.978252 
2807.000000	96.979354 
2806.000000	96.980465 
2805.000000	96.981576 
2804.000000	96.982682 
2803.000000	96.983778 
2802.000000	96.984864 
2801.000000	96.985942 
2800.000000	96.987013 
2799.000000	96.988077 
2798.000000	96.989131 
2797.000000	96.990172 
2796.000000	96.991197 
2795.000000	96.992207 
2794.000000	96.993209 
2793.000000	96.994211 
2792.000000	96.995217 
2791.000000	96.996224 
2790.000000	96.997230 
2789.000000	96.998235 
2788.000000	96.999243 
2787.000000	97.000260 
2786.000000	97.001293 
2785.000000	97.002338 
2784.000000	97.003388 
2783.000000	97.004430 
2782.000000	97.005459 
2781.000000	97.006481 
2780.000000	97.007506 
2779.000000	97.008544 
2778.000000	97.009593 
2777.000000	97.010643 
2776.000000	97.011681 
2775.000000	97.012702 
2774.000000	97.013706 
2773.000000	97.014698 
2772.000000	97.015675 
2771.000000	97.016643 
2770.000000	97.017626 
2769.000000	97.018646 
2768.000000	97.019721 
2767.000000	97.020816 
2766.000000	97.021852 
2765.000000	97.022765 
2764.000000	97.023602 
2763.000000	97.024482 
2762.000000	97.025461 
2761.000000	97.026436 
2760.000000	97.027213 
2759.000000	97.027686 
2758.000000	97.027959 
2757.000000	97.028277 
2756.000000	97.028825 
2755.000000	97.029624 
2754.000000	97.030642 
2753.000000	97.031875 
2752.000000	97.033214 
2751.000000	97.034366 
2750.000000	97.035147 
2749.000000	97.035793 
2748.000000	97.036713 
2747.000000	97.037829 
2746.000000	97.038545 
2745.000000	97.038509 
2744.000000	97.038050 
2743.000000	97.037760 
2742.000000	97.037854 
2741.000000	97.038162 
2740.000000	97.038585 
2739.000000	97.039233 
2738.000000	97.040145 
2737.000000	97.041150 
2736.000000	97.042032 
2735.000000	97.042716 
2734.000000	97.043267 
2733.000000	97.043774 
2732.000000	97.044293 
2731.000000	97.044858 
2730.000000	97.045526 
2729.000000	97.046347 
2728.000000	97.047287 
2727.000000	97.048208 
2726.000000	97.048966 
2725.000000	97.049543 
2724.000000	97.050033 
2723.000000	97.050546 
2722.000000	97.051140 
2721.000000	97.051825 
2720.000000	97.052596 
2719.000000	97.053440 
2718.000000	97.054330 
2717.000000	97.055214 
2716.000000	97.056036 
2715.000000	97.056779 
2714.000000	97.057504 
2713.000000	97.058297 
2712.000000	97.059181 
2711.000000	97.060104 
2710.000000	97.060985 
2709.000000	97.061771 
2708.000000	97.062459 
2707.000000	97.063120 
2706.000000	97.063870 
2705.000000	97.064779 
2704.000000	97.065762 
2703.000000	97.066595 
2702.000000	97.067095 
2701.000000	97.067322 
2700.000000	97.067577 
2699.000000	97.068158 
2698.000000	97.069108 
2697.000000	97.070130 
2696.000000	97.070813 
2695.000000	97.071053 
2694.000000	97.071228 
2693.000000	97.071790 
2692.000000	97.072605 
2691.000000	97.072996 
2690.000000	97.072602 
2689.000000	97.071923 
2688.000000	97.071730 
2687.000000	97.072238 
2686.000000	97.073235 
2685.000000	97.074653 
2684.000000	97.076401 
2683.000000	97.077749 
2682.000000	97.077723 
2681.000000	97.076361 
2680.000000	97.075025 
2679.000000	97.075102 
2678.000000	97.076648 
2677.000000	97.078432 
2676.000000	97.078976 
2675.000000	97.077518 
2674.000000	97.074418 
2673.000000	97.071141 
2672.000000	97.069338 
2671.000000	97.069457 
2670.000000	97.070546 
2669.000000	97.071400 
2668.000000	97.071587 
2667.000000	97.071093 
2666.000000	97.069592 
2665.000000	97.066763 
2664.000000	97.063091 
2663.000000	97.059720 
2662.000000	97.057359 
2661.000000	97.055751 
2660.000000	97.054277 
2659.000000	97.052681 
2658.000000	97.051123 
2657.000000	97.049852 
2656.000000	97.049002 
2655.000000	97.048504 
2654.000000	97.048066 
2653.000000	97.047435 
2652.000000	97.046832 
2651.000000	97.046885 
2650.000000	97.047878 
2649.000000	97.049132 
2648.000000	97.049432 
2647.000000	97.048159 
2646.000000	97.045817 
2645.000000	97.043513 
2644.000000	97.041988 
2643.000000	97.041252 
2642.000000	97.040982 
2641.000000	97.040929 
2640.000000	97.040922 
2639.000000	97.040728 
2638.000000	97.040102 
2637.000000	97.038972 
2636.000000	97.037552 
2635.000000	97.036317 
2634.000000	97.035737 
2633.000000	97.035900 
2632.000000	97.036293 
2631.000000	97.036120 
2630.000000	97.035018 
2629.000000	97.033328 
2628.000000	97.031759 
2627.000000	97.030697 
2626.000000	97.030103 
2625.000000	97.029841 
2624.000000	97.029812 
2623.000000	97.029852 
2622.000000	97.029749 
2621.000000	97.029386 
2620.000000	97.028724 
2619.000000	97.027675 
2618.000000	97.026223 
2617.000000	97.024676 
2616.000000	97.023530 
2615.000000	97.022962 
2614.000000	97.022719 
2613.000000	97.022570 
2612.000000	97.022603 
2611.000000	97.022906 
2610.000000	97.023304 
2609.000000	97.023576 
2608.000000	97.023672 
2607.000000	97.023540 
2606.000000	97.023050 
2605.000000	97.022327 
2604.000000	97.021851 
2603.000000	97.021911 
2602.000000	97.022281 
2601.000000	97.022626 
2600.000000	97.022881 
2599.000000	97.022874 
2598.000000	97.022115 
2597.000000	97.020498 
2596.000000	97.018831 
2595.000000	97.018044 
2594.000000	97.018104 
2593.000000	97.018293 
2592.000000	97.018262 
2591.000000	97.018038 
2590.000000	97.017289 
2589.000000	97.015718 
2588.000000	97.014201 
2587.000000	97.014366 
2586.000000	97.016761 
2585.000000	97.020196 
2584.000000	97.022979 
2583.000000	97.024318 
2582.000000	97.024290 
2581.000000	97.023316 
2580.000000	97.022062 
2579.000000	97.021291 
2578.000000	97.021362 
2577.000000	97.022057 
2576.000000	97.022899 
2575.000000	97.023234 
2574.000000	97.022238 
2573.000000	97.019551 
2572.000000	97.015977 
2571.000000	97.012888 
2570.000000	97.010819 
2569.000000	97.009260 
2568.000000	97.007773 
2567.000000	97.006510 
2566.000000	97.005536 
2565.000000	97.004606 
2564.000000	97.003805 
2563.000000	97.003556 
2562.000000	97.003751 
2561.000000	97.003869 
2560.000000	97.004351 
2559.000000	97.006696 
2558.000000	97.011332 
2557.000000	97.016226 
2556.000000	97.018821 
2555.000000	97.018887 
2554.000000	97.018190 
2553.000000	97.017615 
2552.000000	97.016055 
2551.000000	97.012711 
2550.000000	97.008944 
2549.000000	97.006769 
2548.000000	97.006197 
2547.000000	97.005394 
2546.000000	97.003205 
2545.000000	97.000253 
2544.000000	96.997474 
2543.000000	96.994819 
2542.000000	96.992071 
2541.000000	96.990060 
2540.000000	96.989928 
2539.000000	96.991444 
2538.000000	96.992970 
2537.000000	96.993303 
2536.000000	96.992934 
2535.000000	96.993085 
2534.000000	96.993978 
2533.000000	96.994617 
2532.000000	96.994185 
2531.000000	96.993029 
2530.000000	96.991950 
2529.000000	96.990894 
2528.000000	96.989005 
2527.000000	96.986090 
2526.000000	96.983461 
2525.000000	96.982675 
2524.000000	96.983818 
2523.000000	96.985566 
2522.000000	96.986719 
2521.000000	96.987223 
2520.000000	96.987533 
2519.000000	96.987648 
2518.000000	96.987163 
2517.000000	96.985892 
2516.000000	96.983997 
2515.000000	96.981744 
2514.000000	96.979556 
2513.000000	96.978117 
2512.000000	96.977935 
2511.000000	96.978910 
2510.000000	96.980560 
2509.000000	96.982433 
2508.000000	96.984021 
2507.000000	96.984674 
2506.000000	96.984277 
2505.000000	96.983841 
2504.000000	96.984634 
2503.000000	96.986652 
2502.000000	96.988543 
2501.000000	96.989218 
2500.000000	96.988922 
2499.000000	96.988472 
2498.000000	96.988099 
2497.000000	96.987586 
2496.000000	96.987109 
2495.000000	96.987177 
2494.000000	96.987839 
2493.000000	96.988606 
2492.000000	96.989262 
2491.000000	96.990232 
2490.000000	96.991903 
2489.000000	96.993869 
2488.000000	96.995105 
2487.000000	96.994900 
2486.000000	96.993515 
2485.000000	96.992111 
2484.000000	96.991956 
2483.000000	96.993608 
2482.000000	96.996719 
2481.000000	97.000292 
2480.000000	97.003227 
2479.000000	97.004817 
2478.000000	97.005068 
2477.000000	97.004628 
2476.000000	97.004081 
2475.000000	97.003234 
2474.000000	97.001538 
2473.000000	96.999232 
2472.000000	96.997543 
2471.000000	96.997432 
2470.000000	96.998577 
2469.000000	96.999854 
2468.000000	97.000549 
2467.000000	97.000720 
2466.000000	97.000540 
2465.000000	96.999941 
2464.000000	96.999052 
2463.000000	96.998519 
2462.000000	96.999000 
2461.000000	97.000431 
2460.000000	97.002055 
2459.000000	97.003190 
2458.000000	97.003735 
2457.000000	97.003773 
2456.000000	97.002994 
2455.000000	97.001006 
2454.000000	96.998214 
2453.000000	96.995880 
2452.000000	96.994942 
2451.000000	96.995160 
2450.000000	96.995815 
2449.000000	96.996767 
2448.000000	96.998252 
2447.000000	97.000024 
2446.000000	97.001429 
2445.000000	97.002224 
2444.000000	97.002668 
2443.000000	97.002974 
2442.000000	97.003310 
2441.000000	97.004121 
2440.000000	97.005737 
2439.000000	97.007754 
2438.000000	97.009396 
2437.000000	97.010400 
2436.000000	97.011088 
2435.000000	97.011695 
2434.000000	97.012125 
2433.000000	97.012348 
2432.000000	97.012645 
2431.000000	97.013357 
2430.000000	97.014599 
2429.000000	97.016220 
2428.000000	97.017859 
2427.000000	97.019113 
2426.000000	97.019758 
2425.000000	97.019799 
2424.000000	97.019494 
2423.000000	97.019252 
2422.000000	97.019414 
2421.000000	97.020338 
2420.000000	97.022450 
2419.000000	97.025638 
2418.000000	97.028837 
2417.000000	97.030960 
2416.000000	97.031880 
2415.000000	97.032253 
2414.000000	97.032779 
2413.000000	97.033977 
2412.000000	97.036087 
2411.000000	97.038449 
2410.000000	97.039640 
2409.000000	97.039114 
2408.000000	97.038176 
2407.000000	97.038516 
2406.000000	97.040294 
2405.000000	97.042342 
2404.000000	97.043644 
2403.000000	97.043830 
2402.000000	97.042929 
2401.000000	97.041733 
2400.000000	97.041972 
2399.000000	97.044972 
2398.000000	97.050212 
2397.000000	97.055783 
2396.000000	97.060004 
2395.000000	97.061975 
2394.000000	97.061360 
2393.000000	97.058847 
2392.000000	97.056445 
2391.000000	97.055985 
2390.000000	97.057246 
2389.000000	97.058363 
2388.000000	97.057874 
2387.000000	97.055482 
2386.000000	97.051268 
2385.000000	97.045618 
2384.000000	97.040089 
2383.000000	97.037033 
2382.000000	97.038163 
2381.000000	97.044188 
2380.000000	97.055463 
2379.000000	97.071597 
2378.000000	97.089697 
2377.000000	97.104318 
2376.000000	97.110862 
2375.000000	97.108644 
2374.000000	97.100506 
2373.000000	97.090155 
2372.000000	97.080651 
2371.000000	97.074713 
2370.000000	97.074180 
2369.000000	97.078063 
2368.000000	97.082305 
2367.000000	97.083020 
2366.000000	97.080173 
2365.000000	97.077169 
2364.000000	97.076242 
2363.000000	97.075552 
2362.000000	97.073984 
2361.000000	97.074517 
2360.000000	97.078110 
2359.000000	97.080234 
2358.000000	97.076447 
2357.000000	97.069923 
2356.000000	97.067826 
2355.000000	97.070710 
2354.000000	97.075510 
2353.000000	97.078105 
2352.000000	97.078132 
2351.000000	97.076164 
2350.000000	97.070888 
2349.000000	97.063810 
2348.000000	97.058677 
2347.000000	97.058950 
2346.000000	97.058704 
2345.000000	97.049569 
2344.000000	97.035237 
2343.000000	97.024334 
2342.000000	97.026975 
2341.000000	97.044180 
2340.000000	97.068795 
2339.000000	97.088885 
2338.000000	97.097551 
2337.000000	97.097342 
2336.000000	97.092750 
2335.000000	97.086930 
2334.000000	97.079995 
2333.000000	97.072867 
2332.000000	97.063390 
2331.000000	97.050569 
2330.000000	97.028483 
2329.000000	96.998879 
2328.000000	96.963040 
2327.000000	96.931538 
2326.000000	96.908885 
2325.000000	96.895585 
2324.000000	96.888701 
2323.000000	96.886413 
2322.000000	96.888210 
2321.000000	96.889623 
2320.000000	96.887672 
2319.000000	96.886262 
2318.000000	96.890686 
2317.000000	96.902784 
2316.000000	96.915656 
2315.000000	96.924780 
2314.000000	96.925674 
2313.000000	96.920895 
2312.000000	96.912365 
2311.000000	96.906900 
2310.000000	96.905458 
2309.000000	96.906594 
2308.000000	96.904924 
2307.000000	96.901887 
2306.000000	96.900063 
2305.000000	96.900577 
2304.000000	96.898954 
2303.000000	96.894013 
2302.000000	96.888611 
2301.000000	96.888359 
2300.000000	96.892743 
2299.000000	96.897734 
2298.000000	96.897714 
2297.000000	96.893265 
2296.000000	96.887993 
2295.000000	96.887226 
2294.000000	96.891729 
2293.000000	96.899368 
2292.000000	96.906695 
2291.000000	96.913212 
2290.000000	96.920443 
2289.000000	96.929091 
2288.000000	96.936833 
2287.000000	96.940264 
2286.000000	96.939028 
2285.000000	96.936537 
2284.000000	96.936787 
2283.000000	96.939899 
2282.000000	96.943019 
2281.000000	96.944033 
2280.000000	96.943589 
2279.000000	96.942693 
2278.000000	96.941216 
2277.000000	96.939444 
2276.000000	96.939518 
2275.000000	96.943437 
2274.000000	96.950202 
2273.000000	96.956877 
2272.000000	96.961808 
2271.000000	96.965455 
2270.000000	96.967996 
2269.000000	96.968545 
2268.000000	96.967088 
2267.000000	96.965445 
2266.000000	96.965352 
2265.000000	96.966830 
2264.000000	96.968603 
2263.000000	96.969072 
2262.000000	96.966711 
2261.000000	96.961026 
2260.000000	96.953731 
2259.000000	96.947608 
2258.000000	96.944107 
2257.000000	96.942928 
2256.000000	96.943839 
2255.000000	96.947064 
2254.000000	96.951578 
2253.000000	96.954835 
2252.000000	96.955138 
2251.000000	96.953098 
2250.000000	96.949969 
2249.000000	96.945978 
2248.000000	96.941293 
2247.000000	96.937436 
2246.000000	96.936108 
2245.000000	96.937089 
2244.000000	96.938184 
2243.000000	96.937397 
2242.000000	96.934557 
2241.000000	96.930749 
2240.000000	96.927189 
2239.000000	96.924631 
2238.000000	96.923263 
2237.000000	96.922626 
2236.000000	96.921959 
2235.000000	96.920962 
2234.000000	96.919983 
2233.000000	96.919371 
2232.000000	96.918957 
2231.000000	96.918277 
2230.000000	96.917001 
2229.000000	96.915055 
2228.000000	96.912638 
2227.000000	96.910235 
2226.000000	96.908269 
2225.000000	96.906635 
2224.000000	96.904773 
2223.000000	96.902300 
2222.000000	96.899531 
2221.000000	96.897258 
2220.000000	96.895730 
2219.000000	96.894180 
2218.000000	96.891594 
2217.000000	96.888040 
2216.000000	96.884909 
2215.000000	96.883391 
2214.000000	96.883067 
2213.000000	96.882324 
2212.000000	96.880304 
2211.000000	96.877898 
2210.000000	96.876619 
2209.000000	96.876953 
2208.000000	96.878093 
2207.000000	96.878939 
2206.000000	96.878889 
2205.000000	96.877777 
2204.000000	96.875521 
2203.000000	96.872200 
2202.000000	96.868497 
2201.000000	96.865350 
2200.000000	96.862969 
2199.000000	96.860468 
2198.000000	96.856945 
2197.000000	96.852954 
2196.000000	96.850244 
2195.000000	96.849743 
2194.000000	96.850520 
2193.000000	96.851183 
2192.000000	96.851603 
2191.000000	96.852338 
2190.000000	96.852998 
2189.000000	96.852651 
2188.000000	96.851455 
2187.000000	96.849955 
2186.000000	96.846792 
2185.000000	96.839561 
2184.000000	96.829175 
2183.000000	96.821453 
2182.000000	96.821639 
2181.000000	96.828921 
2180.000000	96.837079 
2179.000000	96.840846 
2178.000000	96.840364 
2177.000000	96.839387 
2176.000000	96.841382 
2175.000000	96.847148 
2174.000000	96.854651 
2173.000000	96.860761 
2172.000000	96.863932 
2171.000000	96.864850 
2170.000000	96.864215 
2169.000000	96.861350 
2168.000000	96.856441 
2167.000000	96.852876 
2166.000000	96.854441 
2165.000000	96.859963 
2164.000000	96.863226 
2163.000000	96.859804 
2162.000000	96.852603 
2161.000000	96.849265 
2160.000000	96.854771 
2159.000000	96.867853 
2158.000000	96.883159 
2157.000000	96.896018 
2156.000000	96.905291 
2155.000000	96.912513 
2154.000000	96.919710 
2153.000000	96.928039 
2152.000000	96.937227 
2151.000000	96.945259 
2150.000000	96.949203 
2149.000000	96.948136 
2148.000000	96.945697 
2147.000000	96.947775 
2146.000000	96.956326 
2145.000000	96.967009 
2144.000000	96.974490 
2143.000000	96.978776 
2142.000000	96.983799 
2141.000000	96.990883 
2140.000000	96.997093 
2139.000000	97.000633 
2138.000000	97.004422 
2137.000000	97.011891 
2136.000000	97.021075 
2135.000000	97.025675 
2134.000000	97.021934 
2133.000000	97.012825 
2132.000000	97.005719 
2131.000000	97.005856 
2130.000000	97.012574 
2129.000000	97.020985 
2128.000000	97.026575 
2127.000000	97.028479 
2126.000000	97.028737 
2125.000000	97.029420 
2124.000000	97.031091 
2123.000000	97.033546 
2122.000000	97.036741 
2121.000000	97.040298 
2120.000000	97.042835 
2119.000000	97.042855 
2118.000000	97.040329 
2117.000000	97.036835 
2116.000000	97.033659 
2115.000000	97.030166 
2114.000000	97.025096 
2113.000000	97.019509 
2112.000000	97.017035 
2111.000000	97.020044 
2110.000000	97.026352 
2109.000000	97.031031 
2108.000000	97.031555 
2107.000000	97.029718 
2106.000000	97.028663 
2105.000000	97.029908 
2104.000000	97.033555 
2103.000000	97.038997 
2102.000000	97.044074 
2101.000000	97.045390 
2100.000000	97.041727 
2099.000000	97.036647 
2098.000000	97.035785 
2097.000000	97.041392 
2096.000000	97.050897 
2095.000000	97.060130 
2094.000000	97.066706 
2093.000000	97.070105 
2092.000000	97.070581 
2091.000000	97.069429 
2090.000000	97.069196 
2089.000000	97.071911 
2088.000000	97.076998 
2087.000000	97.081628 
2086.000000	97.083192 
2085.000000	97.081068 
2084.000000	97.076478 
2083.000000	97.071330 
2082.000000	97.067492 
2081.000000	97.066748 
2080.000000	97.070516 
2079.000000	97.078753 
2078.000000	97.088617 
2077.000000	97.095374 
2076.000000	97.096227 
2075.000000	97.092787 
2074.000000	97.089225 
2073.000000	97.087350 
2072.000000	97.085067 
2071.000000	97.080394 
2070.000000	97.074717 
2069.000000	97.070991 
2068.000000	97.070186 
2067.000000	97.070690 
2066.000000	97.070444 
2065.000000	97.068571 
2064.000000	97.065275 
2063.000000	97.061237 
2062.000000	97.057504 
2061.000000	97.055187 
2060.000000	97.054656 
2059.000000	97.055357 
2058.000000	97.056392 
2057.000000	97.057028 
2056.000000	97.056854 
2055.000000	97.055715 
2054.000000	97.053814 
2053.000000	97.051707 
2052.000000	97.049871 
2051.000000	97.048341 
2050.000000	97.046916 
2049.000000	97.045548 
2048.000000	97.044361 
2047.000000	97.043396 
2046.000000	97.042553 
2045.000000	97.041724 
2044.000000	97.040807 
2043.000000	97.039678 
2042.000000	97.038289 
2041.000000	97.036834 
2040.000000	97.035710 
2039.000000	97.035166 
2038.000000	97.035059 
2037.000000	97.034937 
2036.000000	97.034422 
2035.000000	97.033462 
2034.000000	97.032316 
2033.000000	97.031456 
2032.000000	97.031237 
2031.000000	97.031591 
2030.000000	97.031901 
2029.000000	97.031484 
2028.000000	97.030213 
2027.000000	97.028668 
2026.000000	97.027516 
2025.000000	97.026969 
2024.000000	97.027066 
2023.000000	97.028099 
2022.000000	97.030353 
2021.000000	97.033457 
2020.000000	97.036192 
2019.000000	97.037221 
2018.000000	97.035971 
2017.000000	97.033054 
2016.000000	97.030061 
2015.000000	97.028286 
2014.000000	97.027645 
2013.000000	97.026953 
2012.000000	97.025540 
2011.000000	97.024413 
2010.000000	97.024986 
2009.000000	97.026867 
2008.000000	97.027879 
2007.000000	97.026772 
2006.000000	97.024877 
2005.000000	97.024382 
2004.000000	97.025692 
2003.000000	97.027661 
2002.000000	97.029659 
2001.000000	97.031913 
2000.000000	97.033791 
1999.000000	97.033296 
1998.000000	97.029166 
1997.000000	97.022691 
1996.000000	97.016906 
1995.000000	97.013989 
1994.000000	97.014057 
1993.000000	97.015686 
1992.000000	97.016788 
1991.000000	97.015931 
1990.000000	97.013638 
1989.000000	97.012204 
1988.000000	97.013328 
1987.000000	97.015949 
1986.000000	97.017106 
1985.000000	97.015325 
1984.000000	97.012105 
1983.000000	97.009818 
1982.000000	97.009299 
1981.000000	97.010142 
1980.000000	97.012306 
1979.000000	97.015951 
1978.000000	97.019996 
1977.000000	97.022457 
1976.000000	97.022506 
1975.000000	97.021283 
1974.000000	97.020678 
1973.000000	97.022008 
1972.000000	97.025593 
1971.000000	97.030676 
1970.000000	97.035672 
1969.000000	97.038959 
1968.000000	97.039846 
1967.000000	97.039002 
1966.000000	97.038198 
1965.000000	97.039341 
1964.000000	97.043374 
1963.000000	97.049880 
1962.000000	97.057357 
1961.000000	97.063792 
1960.000000	97.067429 
1959.000000	97.067533 
1958.000000	97.065236 
1957.000000	97.063462 
1956.000000	97.064555 
1955.000000	97.068101 
1954.000000	97.071670 
1953.000000	97.073742 
1952.000000	97.074938 
1951.000000	97.076185 
1950.000000	97.077343 
1949.000000	97.078414 
1948.000000	97.080613 
1947.000000	97.084758 
1946.000000	97.089384 
1945.000000	97.091895 
1944.000000	97.091283 
1943.000000	97.088668 
1942.000000	97.085959 
1941.000000	97.084476 
1940.000000	97.084810 
1939.000000	97.086847 
1938.000000	97.089644 
1937.000000	97.092315 
1936.000000	97.095028 
1935.000000	97.098238 
1934.000000	97.101421 
1933.000000	97.103885 
1932.000000	97.106258 
1931.000000	97.109732 
1930.000000	97.114008 
1929.000000	97.117122 
1928.000000	97.117972 
1927.000000	97.117286 
1926.000000	97.116086 
1925.000000	97.114617 
1924.000000	97.113092 
1923.000000	97.112360 
1922.000000	97.112622 
1921.000000	97.112923 
1920.000000	97.113007 
1919.000000	97.114043 
1918.000000	97.116703 
1917.000000	97.119524 
1916.000000	97.120753 
1915.000000	97.120658 
1914.000000	97.120161 
1913.000000	97.119189 
1912.000000	97.117522 
1911.000000	97.116162 
1910.000000	97.116546 
1909.000000	97.118590 
1908.000000	97.120844 
1907.000000	97.122022 
1906.000000	97.121742 
1905.000000	97.120160 
1904.000000	97.117948 
1903.000000	97.116511 
1902.000000	97.116833 
1901.000000	97.118301 
1900.000000	97.119494 
1899.000000	97.119837 
1898.000000	97.119762 
1897.000000	97.119646 
1896.000000	97.119242 
1895.000000	97.118232 
1894.000000	97.116663 
1893.000000	97.114818 
1892.000000	97.113067 
1891.000000	97.111830 
1890.000000	97.111369 
1889.000000	97.111508 
1888.000000	97.111848 
1887.000000	97.112299 
1886.000000	97.112912 
1885.000000	97.113418 
1884.000000	97.113399 
1883.000000	97.112849 
1882.000000	97.112232 
1881.000000	97.111982 
1880.000000	97.112148 
1879.000000	97.112446 
1878.000000	97.112541 
1877.000000	97.112437 
1876.000000	97.112543 
1875.000000	97.113295 
1874.000000	97.114718 
1873.000000	97.116272 
1872.000000	97.117278 
1871.000000	97.117377 
1870.000000	97.116589 
1869.000000	97.115413 
1868.000000	97.114744 
1867.000000	97.115175 
1866.000000	97.116312 
1865.000000	97.117008 
1864.000000	97.116698 
1863.000000	97.116221 
1862.000000	97.116821 
1861.000000	97.118547 
1860.000000	97.120331 
1859.000000	97.121553 
1858.000000	97.122634 
1857.000000	97.123937 
1856.000000	97.125226 
1855.000000	97.126233 
1854.000000	97.127004 
1853.000000	97.127576 
1852.000000	97.128315 
1851.000000	97.129992 
1850.000000	97.132781 
1849.000000	97.135905 
1848.000000	97.138505 
1847.000000	97.140637 
1846.000000	97.142677 
1845.000000	97.144384 
1844.000000	97.145489 
1843.000000	97.146613 
1842.000000	97.148464 
1841.000000	97.150716 
1840.000000	97.152814 
1839.000000	97.154823 
1838.000000	97.156967 
1837.000000	97.158559 
1836.000000	97.158723 
1835.000000	97.158241 
1834.000000	97.158814 
1833.000000	97.160534 
1832.000000	97.161658 
1831.000000	97.160521 
1830.000000	97.157876 
1829.000000	97.156750 
1828.000000	97.158805 
1827.000000	97.163101 
1826.000000	97.167599 
1825.000000	97.171088 
1824.000000	97.173534 
1823.000000	97.175312 
1822.000000	97.176657 
1821.000000	97.177269 
1820.000000	97.176849 
1819.000000	97.176057 
1818.000000	97.176736 
1817.000000	97.179528 
1816.000000	97.182376 
1815.000000	97.183965 
1814.000000	97.185431 
1813.000000	97.187885 
1812.000000	97.189526 
1811.000000	97.187364 
1810.000000	97.182305 
1809.000000	97.178056 
1808.000000	97.176188 
1807.000000	97.176124 
1806.000000	97.177785 
1805.000000	97.181210 
1804.000000	97.184347 
1803.000000	97.184354 
1802.000000	97.180190 
1801.000000	97.174213 
1800.000000	97.169695 
1799.000000	97.167844 
1798.000000	97.168445 
1797.000000	97.169588 
1796.000000	97.168972 
1795.000000	97.167050 
1794.000000	97.166267 
1793.000000	97.167801 
1792.000000	97.169697 
1791.000000	97.170355 
1790.000000	97.172389 
1789.000000	97.178369 
1788.000000	97.186810 
1787.000000	97.193742 
1786.000000	97.196681 
1785.000000	97.196363 
1784.000000	97.195097 
1783.000000	97.195292 
1782.000000	97.197162 
1781.000000	97.199741 
1780.000000	97.202923 
1779.000000	97.207227 
1778.000000	97.213447 
1777.000000	97.220564 
1776.000000	97.226349 
1775.000000	97.229419 
1774.000000	97.230062 
1773.000000	97.230914 
1772.000000	97.234397 
1771.000000	97.238568 
1770.000000	97.240757 
1769.000000	97.241041 
1768.000000	97.240906 
1767.000000	97.241794 
1766.000000	97.243857 
1765.000000	97.246463 
1764.000000	97.248820 
1763.000000	97.250360 
1762.000000	97.251449 
1761.000000	97.253325 
1760.000000	97.256149 
1759.000000	97.258824 
1758.000000	97.260581 
1757.000000	97.261869 
1756.000000	97.264064 
1755.000000	97.267232 
1754.000000	97.270030 
1753.000000	97.271480 
1752.000000	97.271892 
1751.000000	97.272487 
1750.000000	97.273989 
1749.000000	97.275909 
1748.000000	97.277502 
1747.000000	97.278714 
1746.000000	97.279745 
1745.000000	97.280878 
1744.000000	97.282368 
1743.000000	97.284010 
1742.000000	97.285345 
1741.000000	97.286312 
1740.000000	97.287195 
1739.000000	97.288328 
1738.000000	97.289987 
1737.000000	97.292293 
1736.000000	97.294592 
1735.000000	97.295250 
1734.000000	97.293557 
1733.000000	97.290575 
1732.000000	97.288674 
1731.000000	97.289206 
1730.000000	97.291557 
1729.000000	97.293914 
1728.000000	97.295186 
1727.000000	97.295563 
1726.000000	97.295350 
1725.000000	97.295045 
1724.000000	97.294861 
1723.000000	97.294623 
1722.000000	97.294657 
1721.000000	97.294993 
1720.000000	97.295039 
1719.000000	97.294189 
1718.000000	97.293676 
1717.000000	97.294443 
1716.000000	97.293572 
1715.000000	97.289816 
1714.000000	97.285540 
1713.000000	97.282262 
1712.000000	97.279462 
1711.000000	97.277390 
1710.000000	97.276860 
1709.000000	97.276967 
1708.000000	97.275816 
1707.000000	97.272888 
1706.000000	97.269628 
1705.000000	97.266978 
1704.000000	97.263634 
1703.000000	97.259005 
1702.000000	97.253757 
1701.000000	97.249518 
1700.000000	97.247227 
1699.000000	97.244479 
1698.000000	97.241997 
1697.000000	97.240396 
1696.000000	97.238355 
1695.000000	97.235847 
1694.000000	97.233910 
1693.000000	97.232716 
1692.000000	97.231286 
1691.000000	97.228732 
1690.000000	97.224956 
1689.000000	97.220443 
1688.000000	97.216133 
1687.000000	97.212604 
1686.000000	97.209948 
1685.000000	97.208206 
1684.000000	97.206549 
1683.000000	97.203622 
1682.000000	97.199666 
1681.000000	97.195313 
1680.000000	97.191245 
1679.000000	97.187959 
1678.000000	97.185158 
1677.000000	97.182186 
1676.000000	97.179256 
1675.000000	97.177248 
1674.000000	97.175226 
1673.000000	97.172198 
1672.000000	97.168715 
1671.000000	97.165451 
1670.000000	97.162085 
1669.000000	97.157561 
1668.000000	97.153060 
1667.000000	97.150593 
1666.000000	97.149359 
1665.000000	97.147687 
1664.000000	97.145475 
1663.000000	97.144272 
1662.000000	97.143565 
1661.000000	97.140948 
1660.000000	97.137742 
1659.000000	97.136532 
1658.000000	97.136735 
1657.000000	97.135816 
1656.000000	97.132085 
1655.000000	97.123821 
1654.000000	97.110395 
1653.000000	97.099468 
1652.000000	97.091487 
1651.000000	97.087820 
1650.000000	97.087253 
1649.000000	97.085451 
1648.000000	97.080548 
1647.000000	97.077389 
1646.000000	97.079633 
1645.000000	97.083759 
1644.000000	97.085606 
1643.000000	97.085070 
1642.000000	97.083762 
1641.000000	97.082202 
1640.000000	97.081194 
1639.000000	97.080320 
1638.000000	97.078742 
1637.000000	97.075958 
1636.000000	97.073653 
1635.000000	97.072864 
1634.000000	97.072618 
1633.000000	97.073628 
1632.000000	97.075304 
1631.000000	97.077663 
1630.000000	97.081070 
1629.000000	97.084608 
1628.000000	97.087180 
1627.000000	97.089631 
1626.000000	97.092481 
1625.000000	97.095287 
1624.000000	97.098722 
1623.000000	97.103533 
1622.000000	97.107374 
1621.000000	97.108067 
1620.000000	97.108134 
1619.000000	97.110540 
1618.000000	97.114816 
1617.000000	97.117051 
1616.000000	97.115366 
1615.000000	97.114047 
1614.000000	97.116167 
1613.000000	97.119222 
1612.000000	97.121036 
1611.000000	97.123370 
1610.000000	97.127658 
1609.000000	97.133150 
1608.000000	97.139962 
1607.000000	97.148346 
1606.000000	97.155121 
1605.000000	97.157902 
1604.000000	97.160339 
1603.000000	97.166069 
1602.000000	97.173160 
1601.000000	97.178032 
1600.000000	97.181226 
1599.000000	97.185231 
1598.000000	97.189533 
1597.000000	97.192522 
1596.000000	97.195092 
1595.000000	97.199341 
1594.000000	97.205054 
1593.000000	97.210435 
1592.000000	97.215512 
1591.000000	97.221363 
1590.000000	97.226967 
1589.000000	97.230474 
1588.000000	97.233119 
1587.000000	97.237451 
1586.000000	97.242643 
1585.000000	97.245020 
1584.000000	97.245341 
1583.000000	97.247504 
1582.000000	97.250919 
1581.000000	97.252670 
1580.000000	97.253955 
1579.000000	97.258015 
1578.000000	97.264916 
1577.000000	97.273560 
1576.000000	97.282971 
1575.000000	97.289678 
1574.000000	97.291276 
1573.000000	97.289625 
1572.000000	97.288734 
1571.000000	97.292039 
1570.000000	97.298395 
1569.000000	97.300818 
1568.000000	97.299072 
1567.000000	97.297592 
1566.000000	97.295769 
1565.000000	97.291831 
1564.000000	97.289349 
1563.000000	97.289479 
1562.000000	97.288952 
1561.000000	97.281428 
1560.000000	97.276887 
1559.000000	97.287499 
1558.000000	97.291199 
1557.000000	97.279935 
1556.000000	97.267962 
1555.000000	97.259825 
1554.000000	97.254423 
1553.000000	97.251955 
1552.000000	97.251789 
1551.000000	97.247597 
1550.000000	97.236294 
1549.000000	97.223605 
1548.000000	97.216910 
1547.000000	97.215561 
1546.000000	97.210395 
1545.000000	97.194798 
1544.000000	97.173633 
1543.000000	97.155582 
1542.000000	97.144219 
1541.000000	97.137304 
1540.000000	97.126807 
1539.000000	97.109312 
1538.000000	97.090564 
1537.000000	97.074329 
1536.000000	97.058776 
1535.000000	97.043251 
1534.000000	97.029288 
1533.000000	97.018278 
1532.000000	97.008180 
1531.000000	96.995985 
1530.000000	96.981209 
1529.000000	96.963838 
1528.000000	96.943508 
1527.000000	96.922064 
1526.000000	96.902392 
1525.000000	96.886025 
1524.000000	96.872576 
1523.000000	96.859581 
1522.000000	96.843548 
1521.000000	96.822659 
1520.000000	96.799839 
1519.000000	96.779229 
1518.000000	96.759995 
1517.000000	96.739857 
1516.000000	96.719910 
1515.000000	96.703557 
1514.000000	96.691025 
1513.000000	96.679159 
1512.000000	96.664426 
1511.000000	96.645254 
1510.000000	96.622857 
1509.000000	96.598017 
1508.000000	96.571924 
1507.000000	96.549160 
1506.000000	96.533246 
1505.000000	96.519467 
1504.000000	96.504452 
1503.000000	96.487676 
1502.000000	96.468990 
1501.000000	96.449134 
1500.000000	96.429464 
1499.000000	96.410096 
1498.000000	96.389851 
1497.000000	96.369435 
1496.000000	96.350538 
1495.000000	96.334063 
1494.000000	96.320248 
1493.000000	96.308383 
1492.000000	96.296329 
1491.000000	96.281201 
1490.000000	96.261768 
1489.000000	96.240114 
1488.000000	96.218089 
1487.000000	96.196844 
1486.000000	96.178489 
1485.000000	96.161591 
1484.000000	96.144363 
1483.000000	96.127296 
1482.000000	96.110783 
1481.000000	96.095041 
1480.000000	96.079649 
1479.000000	96.064142 
1478.000000	96.047318 
1477.000000	96.027949 
1476.000000	96.005436 
1475.000000	95.981004 
1474.000000	95.956920 
1473.000000	95.936783 
1472.000000	95.923876 
1471.000000	95.915640 
1470.000000	95.907241 
1469.000000	95.895629 
1468.000000	95.878989 
1467.000000	95.857940 
1466.000000	95.836927 
1465.000000	95.821667 
1464.000000	95.813806 
1463.000000	95.806894 
1462.000000	95.795046 
1461.000000	95.779036 
1460.000000	95.762736 
1459.000000	95.745747 
1458.000000	95.720765 
1457.000000	95.688410 
1456.000000	95.663450 
1455.000000	95.652268 
1454.000000	95.647102 
1453.000000	95.642185 
1452.000000	95.638337 
1451.000000	95.637173 
1450.000000	95.637735 
1449.000000	95.638719 
1448.000000	95.638810 
1447.000000	95.637644 
1446.000000	95.634866 
1445.000000	95.631645 
1444.000000	95.630261 
1443.000000	95.628246 
1442.000000	95.622574 
1441.000000	95.615107 
1440.000000	95.610415 
1439.000000	95.607428 
1438.000000	95.599809 
1437.000000	95.586881 
1436.000000	95.577775 
1435.000000	95.576931 
1434.000000	95.580523 
1433.000000	95.585723 
1432.000000	95.592552 
1431.000000	95.600884 
1430.000000	95.608545 
1429.000000	95.614558 
1428.000000	95.619294 
1427.000000	95.624417 
1426.000000	95.630972 
1425.000000	95.640217 
1424.000000	95.654949 
1423.000000	95.671382 
1422.000000	95.682458 
1421.000000	95.687200 
1420.000000	95.690296 
1419.000000	95.693052 
1418.000000	95.693749 
1417.000000	95.698299 
1416.000000	95.714769 
1415.000000	95.741749 
1414.000000	95.769649 
1413.000000	95.791451 
1412.000000	95.808851 
1411.000000	95.825271 
1410.000000	95.840541 
1409.000000	95.855388 
1408.000000	95.871947 
1407.000000	95.890701 
1406.000000	95.909340 
1405.000000	95.927135 
1404.000000	95.947407 
1403.000000	95.969218 
1402.000000	95.988046 
1401.000000	96.004095 
1400.000000	96.022895 
1399.000000	96.047624 
1398.000000	96.074332 
1397.000000	96.099032 
1396.000000	96.123082 
1395.000000	96.149827 
1394.000000	96.178270 
1393.000000	96.206566 
1392.000000	96.237275 
1391.000000	96.271599 
1390.000000	96.306244 
1389.000000	96.336599 
1388.000000	96.360272 
1387.000000	96.378750 
1386.000000	96.396344 
1385.000000	96.417720 
1384.000000	96.445371 
1383.000000	96.476733 
1382.000000	96.506336 
1381.000000	96.530875 
1380.000000	96.550605 
1379.000000	96.568397 
1378.000000	96.587917 
1377.000000	96.611114 
1376.000000	96.636000 
1375.000000	96.657889 
1374.000000	96.674239 
1373.000000	96.688994 
1372.000000	96.707714 
1371.000000	96.730968 
1370.000000	96.754330 
1369.000000	96.774174 
1368.000000	96.793343 
1367.000000	96.816190 
1366.000000	96.841810 
1365.000000	96.865096 
1364.000000	96.881334 
1363.000000	96.890396 
1362.000000	96.897810 
1361.000000	96.909824 
1360.000000	96.928189 
1359.000000	96.950727 
1358.000000	96.973587 
1357.000000	96.993143 
1356.000000	97.007927 
1355.000000	97.019325 
1354.000000	97.030274 
1353.000000	97.043276 
1352.000000	97.057491 
1351.000000	97.071348 
1350.000000	97.084807 
1349.000000	97.097584 
1348.000000	97.109051 
1347.000000	97.119060 
1346.000000	97.129015 
1345.000000	97.140577 
1344.000000	97.153606 
1343.000000	97.166427 
1342.000000	97.177463 
1341.000000	97.185425 
1340.000000	97.189261 
1339.000000	97.189932 
1338.000000	97.191169 
1337.000000	97.196866 
1336.000000	97.207476 
1335.000000	97.219864 
1334.000000	97.230938 
1333.000000	97.240118 
1332.000000	97.247814 
1331.000000	97.254075 
1330.000000	97.259239 
1329.000000	97.264359 
1328.000000	97.269564 
1327.000000	97.273651 
1326.000000	97.275344 
1325.000000	97.274412 
1324.000000	97.271957 
1323.000000	97.269045 
1322.000000	97.266566 
1321.000000	97.265994 
1320.000000	97.268606 
1319.000000	97.273741 
1318.000000	97.279430 
1317.000000	97.284638 
1316.000000	97.288933 
1315.000000	97.290700 
1314.000000	97.288537 
1313.000000	97.284703 
1312.000000	97.283772 
1311.000000	97.286927 
1310.000000	97.290312 
1309.000000	97.290577 
1308.000000	97.289157 
1307.000000	97.289876 
1306.000000	97.293680 
1305.000000	97.297976 
1304.000000	97.300570 
1303.000000	97.301172 
1302.000000	97.300060 
1301.000000	97.297559 
1300.000000	97.295089 
1299.000000	97.294680 
1298.000000	97.296596 
1297.000000	97.298315 
1296.000000	97.296815 
1295.000000	97.291893 
1294.000000	97.286663 
1293.000000	97.284917 
1292.000000	97.287990 
1291.000000	97.293970 
1290.000000	97.299616 
1289.000000	97.302672 
1288.000000	97.302505 
1287.000000	97.299629 
1286.000000	97.295468 
1285.000000	97.292191 
1284.000000	97.291549 
1283.000000	97.293207 
1282.000000	97.294768 
1281.000000	97.293638 
1280.000000	97.289085 
1279.000000	97.283050 
1278.000000	97.279363 
1277.000000	97.281181 
1276.000000	97.287989 
1275.000000	97.295702 
1274.000000	97.300615 
1273.000000	97.302706 
1272.000000	97.303981 
1271.000000	97.304560 
1270.000000	97.302503 
1269.000000	97.297208 
1268.000000	97.290843 
1267.000000	97.285757 
1266.000000	97.282282 
1265.000000	97.279888 
1264.000000	97.278482 
1263.000000	97.277638 
1262.000000	97.276614 
1261.000000	97.276213 
1260.000000	97.279247 
1259.000000	97.287410 
1258.000000	97.298262 
1257.000000	97.306620 
1256.000000	97.308576 
1255.000000	97.304452 
1254.000000	97.298825 
1253.000000	97.296875 
1252.000000	97.299159 
1251.000000	97.300788 
1250.000000	97.297476 
1249.000000	97.291225 
1248.000000	97.287392 
1247.000000	97.286855 
1246.000000	97.285090 
1245.000000	97.279554 
1244.000000	97.273363 
1243.000000	97.269737 
1242.000000	97.266899 
1241.000000	97.261501 
1240.000000	97.253816 
1239.000000	97.246038 
1238.000000	97.237846 
1237.000000	97.227304 
1236.000000	97.214645 
1235.000000	97.201686 
1234.000000	97.188453 
1233.000000	97.173697 
1232.000000	97.158140 
1231.000000	97.143962 
1230.000000	97.131127 
1229.000000	97.116926 
1228.000000	97.099072 
1227.000000	97.076779 
1226.000000	97.048834 
1225.000000	97.013175 
1224.000000	96.969272 
1223.000000	96.919497 
1222.000000	96.867476 
1221.000000	96.815682 
1220.000000	96.764277 
1219.000000	96.710855 
1218.000000	96.651476 
1217.000000	96.583725 
1216.000000	96.508996 
1215.000000	96.431002 
1214.000000	96.352776 
1213.000000	96.276434 
1212.000000	96.204135 
1211.000000	96.135975 
1210.000000	96.067501 
1209.000000	95.992849 
1208.000000	95.910978 
1207.000000	95.826466 
1206.000000	95.743932 
1205.000000	95.663899 
1204.000000	95.584292 
1203.000000	95.503478 
1202.000000	95.421392 
1201.000000	95.339657 
1200.000000	95.260787 
1199.000000	95.185505 
1198.000000	95.111276 
1197.000000	95.035757 
1196.000000	94.960546 
1195.000000	94.888633 
1194.000000	94.818964 
1193.000000	94.746807 
1192.000000	94.669298 
1191.000000	94.587507 
1190.000000	94.503309 
1189.000000	94.417411 
1188.000000	94.330339 
1187.000000	94.242197 
1186.000000	94.151505 
1185.000000	94.057172 
1184.000000	93.961156 
1183.000000	93.866133 
1182.000000	93.771392 
1181.000000	93.674404 
1180.000000	93.575254 
1179.000000	93.475133 
1178.000000	93.371235 
1177.000000	93.258359 
1176.000000	93.135895 
1175.000000	93.008868 
1174.000000	92.881935 
1173.000000	92.756657 
1172.000000	92.634230 
1171.000000	92.515148 
1170.000000	92.395825 
1169.000000	92.271802 
1168.000000	92.145704 
1167.000000	92.026916 
1166.000000	91.923131 
1165.000000	91.838601 
1164.000000	91.780825 
1163.000000	91.760111 
1162.000000	91.778452 
1161.000000	91.823790 
1160.000000	91.877637 
1159.000000	91.924025 
1158.000000	91.950416 
1157.000000	91.947129 
1156.000000	91.910549 
1155.000000	91.844751 
1154.000000	91.758334 
1153.000000	91.660993 
1152.000000	91.561541 
1151.000000	91.464199 
1150.000000	91.366359 
1149.000000	91.264489 
1148.000000	91.161876 
1147.000000	91.065138 
1146.000000	90.973624 
1145.000000	90.879179 
1144.000000	90.777122 
1143.000000	90.670796 
1142.000000	90.564481 
1141.000000	90.458818 
1140.000000	90.354608 
1139.000000	90.253926 
1138.000000	90.155350 
1137.000000	90.054599 
1136.000000	89.951595 
1135.000000	89.850535 
1134.000000	89.751887 
1133.000000	89.651381 
1132.000000	89.548014 
1131.000000	89.445219 
1130.000000	89.342577 
1129.000000	89.234693 
1128.000000	89.120625 
1127.000000	89.006230 
1126.000000	88.894341 
1125.000000	88.780603 
1124.000000	88.662305 
1123.000000	88.543562 
1122.000000	88.428186 
1121.000000	88.314693 
1120.000000	88.201756 
1119.000000	88.091334 
1118.000000	87.983283 
1117.000000	87.874171 
1116.000000	87.764070 
1115.000000	87.657387 
1114.000000	87.555176 
1113.000000	87.454419 
1112.000000	87.356113 
1111.000000	87.265033 
1110.000000	87.179689 
1109.000000	87.091908 
1108.000000	86.997921 
1107.000000	86.900735 
1106.000000	86.801158 
1105.000000	86.696689 
1104.000000	86.590140 
1103.000000	86.488562 
1102.000000	86.391476 
1101.000000	86.291774 
1100.000000	86.189070 
1099.000000	86.091647 
1098.000000	86.003767 
1097.000000	85.921170 
1096.000000	85.841127 
1095.000000	85.765139 
1094.000000	85.690739 
1093.000000	85.612978 
1092.000000	85.536028 
1091.000000	85.470987 
1090.000000	85.419935 
1089.000000	85.373856 
1088.000000	85.327503 
1087.000000	85.283630 
1086.000000	85.241610 
1085.000000	85.196168 
1084.000000	85.149859 
1083.000000	85.112814 
1082.000000	85.086845 
1081.000000	85.062772 
1080.000000	85.036048 
1079.000000	85.011517 
1078.000000	84.989969 
1077.000000	84.963843 
1076.000000	84.929573 
1075.000000	84.890700 
1074.000000	84.845546 
1073.000000	84.785250 
1072.000000	84.707097 
1071.000000	84.616547 
1070.000000	84.513072 
1069.000000	84.387591 
1068.000000	84.238015 
1067.000000	84.074650 
1066.000000	83.906483 
1065.000000	83.734512 
1064.000000	83.561908 
1063.000000	83.396403 
1062.000000	83.237520 
1061.000000	83.074995 
1060.000000	82.905027 
1059.000000	82.735648 
1058.000000	82.572175 
1057.000000	82.410500 
1056.000000	82.248485 
1055.000000	82.089955 
1054.000000	81.933003 
1053.000000	81.768587 
1052.000000	81.596482 
1051.000000	81.428635 
1050.000000	81.270256 
1049.000000	81.112152 
1048.000000	80.947135 
1047.000000	80.778062 
1046.000000	80.605824 
1045.000000	80.425881 
1044.000000	80.240201 
1043.000000	80.057928 
1042.000000	79.881242 
1041.000000	79.704270 
1040.000000	79.527844 
1039.000000	79.360664 
1038.000000	79.204212 
1037.000000	79.052278 
1036.000000	78.907139 
1035.000000	78.779695 
1034.000000	78.671498 
1033.000000	78.573149 
1032.000000	78.481952 
1031.000000	78.403675 
1030.000000	78.335536 
1029.000000	78.266533 
1028.000000	78.197444 
1027.000000	78.141757 
1026.000000	78.103533 
1025.000000	78.072245 
1024.000000	78.041653 
1023.000000	78.014966 
1022.000000	77.988912 
1021.000000	77.952731 
1020.000000	77.906826 
1019.000000	77.863651 
1018.000000	77.826653 
1017.000000	77.786817 
1016.000000	77.742710 
1015.000000	77.704518 
1014.000000	77.674861 
1013.000000	77.645010 
1012.000000	77.613561 
1011.000000	77.589629 
1010.000000	77.574213 
1009.000000	77.558097 
1008.000000	77.541738 
1007.000000	77.537249 
1006.000000	77.547082 
1005.000000	77.561104 
1004.000000	77.578387 
1003.000000	77.610500 
1002.000000	77.657927 
1001.000000	77.704628 
1000.000000	77.742872 
999.000000	 77.783615 
998.000000	 77.835011 
997.000000	 77.890197 
996.000000	 77.944032 
995.000000	 78.004058 
994.000000	 78.076676 
993.000000	 78.158217 
992.000000	 78.245778 
991.000000	 78.341125 
990.000000	 78.439118 
989.000000	 78.529085 
988.000000	 78.613063 
987.000000	 78.706489 
986.000000	 78.816410 
985.000000	 78.935505 
984.000000	 79.060665 
983.000000	 79.198779 
982.000000	 79.349031 
981.000000	 79.498620 
980.000000	 79.643219 
979.000000	 79.794430 
978.000000	 79.959548 
977.000000	 80.130416 
976.000000	 80.299315 
975.000000	 80.470243 
974.000000	 80.646873 
973.000000	 80.824183 
972.000000	 80.999811 
971.000000	 81.180644 
970.000000	 81.370995 
969.000000	 81.565714 
968.000000	 81.760144 
967.000000	 81.955349 
966.000000	 82.149586 
965.000000	 82.337266 
964.000000	 82.520659 
963.000000	 82.710270 
962.000000	 82.909254 
961.000000	 83.108915 
960.000000	 83.302737 
959.000000	 83.492482 
958.000000	 83.677465 
957.000000	 83.851099 
956.000000	 84.012661 
955.000000	 84.170810 
954.000000	 84.331258 
953.000000	 84.491347 
952.000000	 84.649392 
951.000000	 84.807429 
950.000000	 84.961913 
949.000000	 85.104330 
948.000000	 85.234859 
947.000000	 85.363860 
946.000000	 85.495808 
945.000000	 85.622695 
944.000000	 85.737369 
943.000000	 85.842775 
942.000000	 85.944709 
941.000000	 86.045894 
940.000000	 86.150563 
939.000000	 86.263897 
938.000000	 86.382621 
937.000000	 86.496192 
936.000000	 86.601227 
935.000000	 86.705653 
934.000000	 86.815876 
933.000000	 86.929478 
932.000000	 87.043388 
931.000000	 87.158829 
930.000000	 87.274518 
929.000000	 87.384698 
928.000000	 87.488137 
927.000000	 87.590914 
926.000000	 87.696771 
925.000000	 87.801762 
924.000000	 87.900363 
923.000000	 87.989798 
922.000000	 88.068063 
921.000000	 88.136278 
920.000000	 88.203702 
919.000000	 88.281008 
918.000000	 88.366533 
917.000000	 88.447308 
916.000000	 88.515358 
915.000000	 88.575870 
914.000000	 88.639114 
913.000000	 88.712343 
912.000000	 88.799763 
911.000000	 88.901993 
910.000000	 89.014909 
909.000000	 89.136414 
908.000000	 89.272601 
907.000000	 89.428543 
906.000000	 89.596061 
905.000000	 89.761201 
904.000000	 89.921402 
903.000000	 90.084227 
902.000000	 90.252261 
901.000000	 90.421624 
900.000000	 90.592991 
899.000000	 90.770471 
898.000000	 90.950325 
897.000000	 91.123738 
896.000000	 91.290161 
895.000000	 91.455284 
894.000000	 91.616518 
893.000000	 91.764092 
892.000000	 91.897077 
891.000000	 92.024956 
890.000000	 92.150874 
889.000000	 92.264223 
888.000000	 92.351597 
887.000000	 92.405715 
886.000000	 92.424991 
885.000000	 92.416511 
884.000000	 92.399127 
883.000000	 92.389902 
882.000000	 92.385560 
881.000000	 92.370403 
880.000000	 92.343854 
879.000000	 92.325587 
878.000000	 92.331703 
877.000000	 92.362873 
876.000000	 92.419584 
875.000000	 92.510425 
874.000000	 92.638097 
873.000000	 92.794003 
872.000000	 92.974372 
871.000000	 93.186034 
870.000000	 93.427590 
869.000000	 93.678282 
868.000000	 93.914390 
867.000000	 94.127007 
866.000000	 94.318152 
865.000000	 94.490618 
864.000000	 94.649409 
863.000000	 94.804823 
862.000000	 94.965032 
861.000000	 95.128362 
860.000000	 95.286779 
859.000000	 95.433419 
858.000000	 95.565474 
857.000000	 95.685125 
856.000000	 95.798869 
855.000000	 95.910535 
854.000000	 96.014560 
853.000000	 96.102285 
852.000000	 96.174650 
851.000000	 96.242066 
850.000000	 96.312599 
849.000000	 96.387554 
848.000000	 96.466657 
847.000000	 96.547604 
846.000000	 96.621562 
845.000000	 96.680544 
844.000000	 96.730127 
843.000000	 96.784519 
842.000000	 96.847841 
841.000000	 96.910037 
840.000000	 96.961074 
839.000000	 96.997470 
838.000000	 97.015358 
837.000000	 97.011921 
836.000000	 96.997332 
835.000000	 96.991832 
834.000000	 97.004471 
833.000000	 97.024973 
832.000000	 97.041611 
831.000000	 97.055935 
830.000000	 97.074107 
829.000000	 97.095226 
828.000000	 97.116425 
827.000000	 97.139655 
826.000000	 97.165304 
825.000000	 97.189038 
824.000000	 97.212448 
823.000000	 97.244392 
822.000000	 97.283118 
821.000000	 97.310746 
820.000000	 97.314701 
819.000000	 97.301841 
818.000000	 97.282802 
817.000000	 97.253087 
816.000000	 97.198956 
815.000000	 97.114175 
814.000000	 97.000977 
813.000000	 96.858909 
812.000000	 96.681398 
811.000000	 96.460183 
810.000000	 96.185404 
809.000000	 95.844414 
808.000000	 95.429395 
807.000000	 94.947336 
806.000000	 94.419495 
805.000000	 93.873365 
804.000000	 93.337089 
803.000000	 92.833656 
802.000000	 92.373793 
801.000000	 91.961357 
800.000000	 91.610310 
799.000000	 91.345821 
798.000000	 91.181806 
797.000000	 91.107700 
796.000000	 91.102922 
795.000000	 91.151980 
794.000000	 91.238831 
793.000000	 91.339956 
792.000000	 91.433361 
791.000000	 91.507454 
790.000000	 91.556526 
789.000000	 91.576335 
788.000000	 91.567539 
787.000000	 91.532683 
786.000000	 91.464485 
785.000000	 91.347015 
784.000000	 91.174830 
783.000000	 90.963854 
782.000000	 90.740499 
781.000000	 90.529906 
780.000000	 90.357196 
779.000000	 90.245241 
778.000000	 90.202277 
777.000000	 90.221650 
776.000000	 90.298784 
775.000000	 90.435609 
774.000000	 90.622495 
773.000000	 90.830446 
772.000000	 91.031017 
771.000000	 91.214902 
770.000000	 91.385557 
769.000000	 91.545622 
768.000000	 91.695678 
767.000000	 91.835140 
766.000000	 91.957337 
765.000000	 92.054244 
764.000000	 92.133157 
763.000000	 92.217874 
762.000000	 92.324289 
761.000000	 92.443479 
760.000000	 92.557534 
759.000000	 92.663568 
758.000000	 92.772600 
757.000000	 92.892176 
756.000000	 93.020877 
755.000000	 93.155183 
754.000000	 93.290448 
753.000000	 93.415790 
752.000000	 93.517012 
751.000000	 93.588179 
750.000000	 93.639055 
749.000000	 93.690678 
748.000000	 93.761678 
747.000000	 93.854328 
746.000000	 93.953511 
745.000000	 94.043558 
744.000000	 94.125842 
743.000000	 94.215139 
742.000000	 94.320277 
741.000000	 94.435966 
740.000000	 94.553533 
739.000000	 94.670257 
738.000000	 94.785045 
737.000000	 94.892457 
736.000000	 94.986121 
735.000000	 95.065163 
734.000000	 95.134739 
733.000000	 95.202050 
732.000000	 95.270825 
731.000000	 95.335917 
730.000000	 95.384702 
729.000000	 95.408807 
728.000000	 95.417091 
727.000000	 95.431497 
726.000000	 95.467912 
725.000000	 95.527304 
724.000000	 95.601934 
723.000000	 95.679752 
722.000000	 95.744708 
721.000000	 95.786309 
720.000000	 95.812765 
719.000000	 95.842496 
718.000000	 95.879817 
717.000000	 95.911720 
716.000000	 95.928127 
715.000000	 95.934413 
714.000000	 95.944319 
713.000000	 95.970512 
712.000000	 96.023819 
711.000000	 96.107771 
710.000000	 96.208120 
709.000000	 96.300431 
708.000000	 96.371564 
707.000000	 96.425915 
706.000000	 96.466326 
705.000000	 96.483085 
704.000000	 96.468336 
703.000000	 96.423978 
702.000000	 96.348401 
701.000000	 96.226782 
700.000000	 96.043930 
699.000000	 95.804116 
698.000000	 95.530368 
697.000000	 95.255281 
696.000000	 95.020281 
695.000000	 94.868214 
694.000000	 94.826207 
693.000000	 94.891731 
692.000000	 95.034785 
691.000000	 95.214757 
690.000000	 95.394910 
689.000000	 95.553442 
688.000000	 95.687267 
687.000000	 95.800790 
686.000000	 95.896254 
685.000000	 95.977833 
684.000000	 96.056580 
683.000000	 96.141848 
682.000000	 96.228172 
681.000000	 96.303470 
680.000000	 96.367491 
679.000000	 96.434565 
678.000000	 96.511545 
677.000000	 96.588920 
676.000000	 96.666233 
675.000000	 96.748843 
674.000000	 96.826210 
673.000000	 96.881887 
672.000000	 96.923730 
671.000000	 96.997020 
670.000000	 97.150259 
669.000000	 97.390111 
668.000000	 97.565097 
667.000000	 97.515124 
666.000000	 97.356329 
665.000000	 97.237407 
664.000000	 97.177053 
663.000000	 97.169270 
662.000000	 97.195424 
661.000000	 97.220945 
660.000000	 97.237437 
659.000000	 97.273367 
658.000000	 97.340377 
657.000000	 97.398268 
656.000000	 97.412849 
655.000000	 97.392657 
654.000000	 97.356147 
653.000000	 97.302290 
652.000000	 97.237472 
651.000000	 97.200034 
650.000000	 97.223263 

