4000.000000	96.419899 
3999.000000	96.417465 
3998.000000	96.412947 
3997.000000	96.407727 
3996.000000	96.403653 
3995.000000	96.401939 
3994.000000	96.402751 
3993.000000	96.405033 
3992.000000	96.406958 
3991.000000	96.407130 
3990.000000	96.405596 
3989.000000	96.403594 
3988.000000	96.402285 
3987.000000	96.402028 
3986.000000	96.402673 
3985.000000	96.403815 
3984.000000	96.404714 
3983.000000	96.404633 
3982.000000	96.403837 
3981.000000	96.403669 
3980.000000	96.405057 
3979.000000	96.407325 
3978.000000	96.408980 
3977.000000	96.409393 
3976.000000	96.409062 
3975.000000	96.408335 
3974.000000	96.406791 
3973.000000	96.404179 
3972.000000	96.401159 
3971.000000	96.398817 
3970.000000	96.397731 
3969.000000	96.397899 
3968.000000	96.399071 
3967.000000	96.400930 
3966.000000	96.403051 
3965.000000	96.404733 
3964.000000	96.405051 
3963.000000	96.403446 
3962.000000	96.400451 
3961.000000	96.397601 
3960.000000	96.396036 
3959.000000	96.395588 
3958.000000	96.395444 
3957.000000	96.395337 
3956.000000	96.395352 
3955.000000	96.395182 
3954.000000	96.394344 
3953.000000	96.392830 
3952.000000	96.391197 
3951.000000	96.389875 
3950.000000	96.388837 
3949.000000	96.387909 
3948.000000	96.387197 
3947.000000	96.387132 
3946.000000	96.387926 
3945.000000	96.389042 
3944.000000	96.389465 
3943.000000	96.388845 
3942.000000	96.387967 
3941.000000	96.387847 
3940.000000	96.388622 
3939.000000	96.389603 
3938.000000	96.390113 
3937.000000	96.390182 
3936.000000	96.390100 
3935.000000	96.389707 
3934.000000	96.388648 
3933.000000	96.387025 
3932.000000	96.385477 
3931.000000	96.384437 
3930.000000	96.383884 
3929.000000	96.383817 
3928.000000	96.384264 
3927.000000	96.384935 
3926.000000	96.385202 
3925.000000	96.384885 
3924.000000	96.384414 
3923.000000	96.384131 
3922.000000	96.383930 
3921.000000	96.383661 
3920.000000	96.383354 
3919.000000	96.383051 
3918.000000	96.382695 
3917.000000	96.382285 
3916.000000	96.381878 
3915.000000	96.381486 
3914.000000	96.381098 
3913.000000	96.380715 
3912.000000	96.380327 
3911.000000	96.379918 
3910.000000	96.379486 
3909.000000	96.379034 
3908.000000	96.378563 
3907.000000	96.378063 
3906.000000	96.377523 
3905.000000	96.376944 
3904.000000	96.376340 
3903.000000	96.375726 
3902.000000	96.375116 
3901.000000	96.374513 
3900.000000	96.373910 
3899.000000	96.373305 
3898.000000	96.372696 
3897.000000	96.372078 
3896.000000	96.371444 
3895.000000	96.370792 
3894.000000	96.370132 
3893.000000	96.369473 
3892.000000	96.368817 
3891.000000	96.368160 
3890.000000	96.367507 
3889.000000	96.366865 
3888.000000	96.366231 
3887.000000	96.365592 
3886.000000	96.364932 
3885.000000	96.364256 
3884.000000	96.363572 
3883.000000	96.362878 
3882.000000	96.362170 
3881.000000	96.361454 
3880.000000	96.360753 
3879.000000	96.360086 
3878.000000	96.359460 
3877.000000	96.358865 
3876.000000	96.358290 
3875.000000	96.357730 
3874.000000	96.357191 
3873.000000	96.356676 
3872.000000	96.356176 
3871.000000	96.355675 
3870.000000	96.355179 
3869.000000	96.354718 
3868.000000	96.354313 
3867.000000	96.353954 
3866.000000	96.353621 
3865.000000	96.353314 
3864.000000	96.353045 
3863.000000	96.352812 
3862.000000	96.352591 
3861.000000	96.352368 
3860.000000	96.352144 
3859.000000	96.351926 
3858.000000	96.351713 
3857.000000	96.351511 
3856.000000	96.351330 
3855.000000	96.351176 
3854.000000	96.351052 
3853.000000	96.350961 
3852.000000	96.350899 
3851.000000	96.350860 
3850.000000	96.350835 
3849.000000	96.350819 
3848.000000	96.350807 
3847.000000	96.350792 
3846.000000	96.350766 
3845.000000	96.350728 
3844.000000	96.350688 
3843.000000	96.350663 
3842.000000	96.350670 
3841.000000	96.350725 
3840.000000	96.350831 
3839.000000	96.350979 
3838.000000	96.351152 
3837.000000	96.351335 
3836.000000	96.351524 
3835.000000	96.351722 
3834.000000	96.351932 
3833.000000	96.352157 
3832.000000	96.352398 
3831.000000	96.352652 
3830.000000	96.352923 
3829.000000	96.353211 
3828.000000	96.353521 
3827.000000	96.353842 
3826.000000	96.354160 
3825.000000	96.354471 
3824.000000	96.354774 
3823.000000	96.355062 
3822.000000	96.355320 
3821.000000	96.355550 
3820.000000	96.355779 
3819.000000	96.356034 
3818.000000	96.356316 
3817.000000	96.356608 
3816.000000	96.356899 
3815.000000	96.357196 
3814.000000	96.357494 
3813.000000	96.357776 
3812.000000	96.358032 
3811.000000	96.358275 
3810.000000	96.358528 
3809.000000	96.358798 
3808.000000	96.359077 
3807.000000	96.359356 
3806.000000	96.359645 
3805.000000	96.359963 
3804.000000	96.360322 
3803.000000	96.360715 
3802.000000	96.361132 
3801.000000	96.361568 
3800.000000	96.362013 
3799.000000	96.362438 
3798.000000	96.362818 
3797.000000	96.363145 
3796.000000	96.363424 
3795.000000	96.363651 
3794.000000	96.363807 
3793.000000	96.363882 
3792.000000	96.363878 
3791.000000	96.363803 
3790.000000	96.363659 
3789.000000	96.363448 
3788.000000	96.363184 
3787.000000	96.362888 
3786.000000	96.362565 
3785.000000	96.362187 
3784.000000	96.361696 
3783.000000	96.361086 
3782.000000	96.360388 
3781.000000	96.359595 
3780.000000	96.358737 
3779.000000	96.358023 
3778.000000	96.357656 
3777.000000	96.357543 
3776.000000	96.357240 
3775.000000	96.356415 
3774.000000	96.355267 
3773.000000	96.354572 
3772.000000	96.354715 
3771.000000	96.354917 
3770.000000	96.354577 
3769.000000	96.354711 
3768.000000	96.356110 
3767.000000	96.357242 
3766.000000	96.355565 
3765.000000	96.351164 
3764.000000	96.347838 
3763.000000	96.348436 
3762.000000	96.350585 
3761.000000	96.350308 
3760.000000	96.348397 
3759.000000	96.348385 
3758.000000	96.347663 
3757.000000	96.341617 
3756.000000	96.331793 
3755.000000	96.322232 
3754.000000	96.312714 
3753.000000	96.301622 
3752.000000	96.295012 
3751.000000	96.298067 
3750.000000	96.300215 
3749.000000	96.292265 
3748.000000	96.285400 
3747.000000	96.293402 
3746.000000	96.307179 
3745.000000	96.305555 
3744.000000	96.295877 
3743.000000	96.297729 
3742.000000	96.305460 
3741.000000	96.303939 
3740.000000	96.293794 
3739.000000	96.291759 
3738.000000	96.302471 
3737.000000	96.308247 
3736.000000	96.300307 
3735.000000	96.296283 
3734.000000	96.310068 
3733.000000	96.326410 
3732.000000	96.327199 
3731.000000	96.315455 
3730.000000	96.303676 
3729.000000	96.295316 
3728.000000	96.283778 
3727.000000	96.266453 
3726.000000	96.252464 
3725.000000	96.248348 
3724.000000	96.248304 
3723.000000	96.245161 
3722.000000	96.240172 
3721.000000	96.236862 
3720.000000	96.233705 
3719.000000	96.227607 
3718.000000	96.215611 
3717.000000	96.198705 
3716.000000	96.181193 
3715.000000	96.162932 
3714.000000	96.139151 
3713.000000	96.109214 
3712.000000	96.081022 
3711.000000	96.060305 
3710.000000	96.041874 
3709.000000	96.018472 
3708.000000	95.986594 
3707.000000	95.946738 
3706.000000	95.903930 
3705.000000	95.864608 
3704.000000	95.831703 
3703.000000	95.801949 
3702.000000	95.768169 
3701.000000	95.725537 
3700.000000	95.677259 
3699.000000	95.631865 
3698.000000	95.593787 
3697.000000	95.562675 
3696.000000	95.540331 
3695.000000	95.527344 
3694.000000	95.518277 
3693.000000	95.509576 
3692.000000	95.507445 
3691.000000	95.520501 
3690.000000	95.543560 
3689.000000	95.560225 
3688.000000	95.562328 
3687.000000	95.556531 
3686.000000	95.549944 
3685.000000	95.540028 
3684.000000	95.523752 
3683.000000	95.506345 
3682.000000	95.491719 
3681.000000	95.470149 
3680.000000	95.431769 
3679.000000	95.384688 
3678.000000	95.344875 
3677.000000	95.305555 
3676.000000	95.248561 
3675.000000	95.182100 
3674.000000	95.127188 
3673.000000	95.087541 
3672.000000	95.048834 
3671.000000	94.998872 
3670.000000	94.947965 
3669.000000	94.910362 
3668.000000	94.877569 
3667.000000	94.836103 
3666.000000	94.786300 
3665.000000	94.734961 
3664.000000	94.684559 
3663.000000	94.631536 
3662.000000	94.570706 
3661.000000	94.501916 
3660.000000	94.432459 
3659.000000	94.369033 
3658.000000	94.310633 
3657.000000	94.248390 
3656.000000	94.179640 
3655.000000	94.112141 
3654.000000	94.052230 
3653.000000	93.996595 
3652.000000	93.935583 
3651.000000	93.866696 
3650.000000	93.801064 
3649.000000	93.745543 
3648.000000	93.693449 
3647.000000	93.642519 
3646.000000	93.598635 
3645.000000	93.563047 
3644.000000	93.528895 
3643.000000	93.489621 
3642.000000	93.444786 
3641.000000	93.398072 
3640.000000	93.349390 
3639.000000	93.294436 
3638.000000	93.233807 
3637.000000	93.173996 
3636.000000	93.117783 
3635.000000	93.058693 
3634.000000	92.993052 
3633.000000	92.929148 
3632.000000	92.876396 
3631.000000	92.828966 
3630.000000	92.770985 
3629.000000	92.706314 
3628.000000	92.654803 
3627.000000	92.618763 
3626.000000	92.585811 
3625.000000	92.550169 
3624.000000	92.517606 
3623.000000	92.497465 
3622.000000	92.491115 
3621.000000	92.490697 
3620.000000	92.490642 
3619.000000	92.493838 
3618.000000	92.503797 
3617.000000	92.521833 
3616.000000	92.550021 
3615.000000	92.586957 
3614.000000	92.627664 
3613.000000	92.669123 
3612.000000	92.710840 
3611.000000	92.750089 
3610.000000	92.781801 
3609.000000	92.804991 
3608.000000	92.825410 
3607.000000	92.848425 
3606.000000	92.873011 
3605.000000	92.897277 
3604.000000	92.923560 
3603.000000	92.954849 
3602.000000	92.989019 
3601.000000	93.018336 
3600.000000	93.038208 
3599.000000	93.050125 
3598.000000	93.058156 
3597.000000	93.065914 
3596.000000	93.075842 
3595.000000	93.086065 
3594.000000	93.093778 
3593.000000	93.099092 
3592.000000	93.105394 
3591.000000	93.116054 
3590.000000	93.129032 
3589.000000	93.137545 
3588.000000	93.138510 
3587.000000	93.136847 
3586.000000	93.138460 
3585.000000	93.145175 
3584.000000	93.156542 
3583.000000	93.170783 
3582.000000	93.184689 
3581.000000	93.193728 
3580.000000	93.195384 
3579.000000	93.191384 
3578.000000	93.186594 
3577.000000	93.185401 
3576.000000	93.188958 
3575.000000	93.195005 
3574.000000	93.199481 
3573.000000	93.199582 
3572.000000	93.194906 
3571.000000	93.187137 
3570.000000	93.177038 
3569.000000	93.162922 
3568.000000	93.145504 
3567.000000	93.132187 
3566.000000	93.130280 
3565.000000	93.139737 
3564.000000	93.155676 
3563.000000	93.173219 
3562.000000	93.189103 
3561.000000	93.201017 
3560.000000	93.207001 
3559.000000	93.206632 
3558.000000	93.201625 
3557.000000	93.194719 
3556.000000	93.187481 
3555.000000	93.179696 
3554.000000	93.170769 
3553.000000	93.161808 
3552.000000	93.155406 
3551.000000	93.152842 
3550.000000	93.152688 
3549.000000	93.152595 
3548.000000	93.151774 
3547.000000	93.150995 
3546.000000	93.150362 
3545.000000	93.148756 
3544.000000	93.145864 
3543.000000	93.143014 
3542.000000	93.141419 
3541.000000	93.140929 
3540.000000	93.140638 
3539.000000	93.139717 
3538.000000	93.137478 
3537.000000	93.133594 
3536.000000	93.128716 
3535.000000	93.123854 
3534.000000	93.119539 
3533.000000	93.115619 
3532.000000	93.112220 
3531.000000	93.109919 
3530.000000	93.108585 
3529.000000	93.106696 
3528.000000	93.102666 
3527.000000	93.096870 
3526.000000	93.091543 
3525.000000	93.088797 
3524.000000	93.088952 
3523.000000	93.090406 
3522.000000	93.090885 
3521.000000	93.089408 
3520.000000	93.086875 
3519.000000	93.084520 
3518.000000	93.082122 
3517.000000	93.077959 
3516.000000	93.070896 
3515.000000	93.062166 
3514.000000	93.055057 
3513.000000	93.052000 
3512.000000	93.051969 
3511.000000	93.051256 
3510.000000	93.047141 
3509.000000	93.040342 
3508.000000	93.033870 
3507.000000	93.029870 
3506.000000	93.027862 
3505.000000	93.025744 
3504.000000	93.021954 
3503.000000	93.016460 
3502.000000	93.010150 
3501.000000	93.003782 
3500.000000	92.997430 
3499.000000	92.990528 
3498.000000	92.982523 
3497.000000	92.973706 
3496.000000	92.965065 
3495.000000	92.957209 
3494.000000	92.949851 
3493.000000	92.942403 
3492.000000	92.934578 
3491.000000	92.926580 
3490.000000	92.919314 
3489.000000	92.913951 
3488.000000	92.910531 
3487.000000	92.906954 
3486.000000	92.900322 
3485.000000	92.889767 
3484.000000	92.877427 
3483.000000	92.866324 
3482.000000	92.857663 
3481.000000	92.850650 
3480.000000	92.844401 
3479.000000	92.838927 
3478.000000	92.834180 
3477.000000	92.829031 
3476.000000	92.821821 
3475.000000	92.811891 
3474.000000	92.800235 
3473.000000	92.788703 
3472.000000	92.778494 
3471.000000	92.769537 
3470.000000	92.761377 
3469.000000	92.754060 
3468.000000	92.747676 
3467.000000	92.741633 
3466.000000	92.735042 
3465.000000	92.727581 
3464.000000	92.719379 
3463.000000	92.710107 
3462.000000	92.698868 
3461.000000	92.685228 
3460.000000	92.670044 
3459.000000	92.654983 
3458.000000	92.641273 
3457.000000	92.629013 
3456.000000	92.617702 
3455.000000	92.607357 
3454.000000	92.598953 
3453.000000	92.593160 
3452.000000	92.589066 
3451.000000	92.584388 
3450.000000	92.577129 
3449.000000	92.567028 
3448.000000	92.555485 
3447.000000	92.544387 
3446.000000	92.534708 
3445.000000	92.526178 
3444.000000	92.517924 
3443.000000	92.509289 
3442.000000	92.500311 
3441.000000	92.491608 
3440.000000	92.483688 
3439.000000	92.476226 
3438.000000	92.468295 
3437.000000	92.459447 
3436.000000	92.450489 
3435.000000	92.442878 
3434.000000	92.437287 
3433.000000	92.432942 
3432.000000	92.428806 
3431.000000	92.424823 
3430.000000	92.421424 
3429.000000	92.418167 
3428.000000	92.413391 
3427.000000	92.405669 
3426.000000	92.395594 
3425.000000	92.385983 
3424.000000	92.379735 
3423.000000	92.377140 
3422.000000	92.375516 
3421.000000	92.371910 
3420.000000	92.365873 
3419.000000	92.359141 
3418.000000	92.353296 
3417.000000	92.348533 
3416.000000	92.344285 
3415.000000	92.339874 
3414.000000	92.334457 
3413.000000	92.327371 
3412.000000	92.319058 
3411.000000	92.311222 
3410.000000	92.305689 
3409.000000	92.303150 
3408.000000	92.302619 
3407.000000	92.301627 
3406.000000	92.297550 
3405.000000	92.289772 
3404.000000	92.280521 
3403.000000	92.272843 
3402.000000	92.267986 
3401.000000	92.265283 
3400.000000	92.263932 
3399.000000	92.263596 
3398.000000	92.263517 
3397.000000	92.262554 
3396.000000	92.260465 
3395.000000	92.258172 
3394.000000	92.256106 
3393.000000	92.253072 
3392.000000	92.247533 
3391.000000	92.239852 
3390.000000	92.232720 
3389.000000	92.229296 
3388.000000	92.231111 
3387.000000	92.237289 
3386.000000	92.244944 
3385.000000	92.250479 
3384.000000	92.251515 
3383.000000	92.248538 
3382.000000	92.244994 
3381.000000	92.244900 
3380.000000	92.249463 
3379.000000	92.256027 
3378.000000	92.260943 
3377.000000	92.263484 
3376.000000	92.265982 
3375.000000	92.270211 
3374.000000	92.274897 
3373.000000	92.277347 
3372.000000	92.276627 
3371.000000	92.274297 
3370.000000	92.272504 
3369.000000	92.272201 
3368.000000	92.273066 
3367.000000	92.274330 
3366.000000	92.275419 
3365.000000	92.276246 
3364.000000	92.277245 
3363.000000	92.279011 
3362.000000	92.281777 
3361.000000	92.285275 
3360.000000	92.288977 
3359.000000	92.292269 
3358.000000	92.294546 
3357.000000	92.295557 
3356.000000	92.295892 
3355.000000	92.296969 
3354.000000	92.300266 
3353.000000	92.306403 
3352.000000	92.314775 
3351.000000	92.323886 
3350.000000	92.332143 
3349.000000	92.338514 
3348.000000	92.342670 
3347.000000	92.344743 
3346.000000	92.345112 
3345.000000	92.344399 
3344.000000	92.343487 
3343.000000	92.343388 
3342.000000	92.345043 
3341.000000	92.348909 
3340.000000	92.354495 
3339.000000	92.360522 
3338.000000	92.365771 
3337.000000	92.369889 
3336.000000	92.373293 
3335.000000	92.376331 
3334.000000	92.378877 
3333.000000	92.380849 
3332.000000	92.382797 
3331.000000	92.385682 
3330.000000	92.390129 
3329.000000	92.396037 
3328.000000	92.402849 
3327.000000	92.409971 
3326.000000	92.416878 
3325.000000	92.422962 
3324.000000	92.427529 
3323.000000	92.430150 
3322.000000	92.431068 
3321.000000	92.431222 
3320.000000	92.431758 
3319.000000	92.433431 
3318.000000	92.436414 
3317.000000	92.440439 
3316.000000	92.444947 
3315.000000	92.449347 
3314.000000	92.453423 
3313.000000	92.457473 
3312.000000	92.461860 
3311.000000	92.466450 
3310.000000	92.470719 
3309.000000	92.474382 
3308.000000	92.477618 
3307.000000	92.480643 
3306.000000	92.483413 
3305.000000	92.485973 
3304.000000	92.488831 
3303.000000	92.492629 
3302.000000	92.497411 
3301.000000	92.502348 
3300.000000	92.506243 
3299.000000	92.508323 
3298.000000	92.508707 
3297.000000	92.508456 
3296.000000	92.509142 
3295.000000	92.512003 
3294.000000	92.517335 
3293.000000	92.524423 
3292.000000	92.531891 
3291.000000	92.538477 
3290.000000	92.543739 
3289.000000	92.548096 
3288.000000	92.552214 
3287.000000	92.556206 
3286.000000	92.559509 
3285.000000	92.561568 
3284.000000	92.562536 
3283.000000	92.563327 
3282.000000	92.565049 
3281.000000	92.568275 
3280.000000	92.572637 
3279.000000	92.577050 
3278.000000	92.580607 
3277.000000	92.583331 
3276.000000	92.585916 
3275.000000	92.588890 
3274.000000	92.592349 
3273.000000	92.596433 
3272.000000	92.601453 
3271.000000	92.607302 
3270.000000	92.613164 
3269.000000	92.618155 
3268.000000	92.622112 
3267.000000	92.625574 
3266.000000	92.629206 
3265.000000	92.633428 
3264.000000	92.638261 
3263.000000	92.643157 
3262.000000	92.647202 
3261.000000	92.649885 
3260.000000	92.651633 
3259.000000	92.653468 
3258.000000	92.656267 
3257.000000	92.660538 
3256.000000	92.666512 
3255.000000	92.673833 
3254.000000	92.681249 
3253.000000	92.687288 
3252.000000	92.691621 
3251.000000	92.695429 
3250.000000	92.700115 
3249.000000	92.705721 
3248.000000	92.710985 
3247.000000	92.714976 
3246.000000	92.718279 
3245.000000	92.722311 
3244.000000	92.727689 
3243.000000	92.733660 
3242.000000	92.739083 
3241.000000	92.743609 
3240.000000	92.747722 
3239.000000	92.752185 
3238.000000	92.757800 
3237.000000	92.765271 
3236.000000	92.774568 
3235.000000	92.784325 
3234.000000	92.792588 
3233.000000	92.798577 
3232.000000	92.803314 
3231.000000	92.808370 
3230.000000	92.814268 
3229.000000	92.820362 
3228.000000	92.825947 
3227.000000	92.831138 
3226.000000	92.836683 
3225.000000	92.843146 
3224.000000	92.850311 
3223.000000	92.857346 
3222.000000	92.863681 
3221.000000	92.869598 
3220.000000	92.875623 
3219.000000	92.881541 
3218.000000	92.886614 
3217.000000	92.890840 
3216.000000	92.895417 
3215.000000	92.901710 
3214.000000	92.910040 
3213.000000	92.919513 
3212.000000	92.928775 
3211.000000	92.936878 
3210.000000	92.943886 
3209.000000	92.951011 
3208.000000	92.959844 
3207.000000	92.970954 
3206.000000	92.983166 
3205.000000	92.994514 
3204.000000	93.004040 
3203.000000	93.012446 
3202.000000	93.020924 
3201.000000	93.029539 
3200.000000	93.037068 
3199.000000	93.042610 
3198.000000	93.047117 
3197.000000	93.052869 
3196.000000	93.061364 
3195.000000	93.072236 
3194.000000	93.084320 
3193.000000	93.097169 
3192.000000	93.110919 
3191.000000	93.124901 
3190.000000	93.137312 
3189.000000	93.146682 
3188.000000	93.153251 
3187.000000	93.158779 
3186.000000	93.165089 
3185.000000	93.172869 
3184.000000	93.181735 
3183.000000	93.191170 
3182.000000	93.201087 
3181.000000	93.211314 
3180.000000	93.220858 
3179.000000	93.228329 
3178.000000	93.233495 
3177.000000	93.238138 
3176.000000	93.244900 
3175.000000	93.255335 
3174.000000	93.269279 
3173.000000	93.285471 
3172.000000	93.302240 
3171.000000	93.317941 
3170.000000	93.331534 
3169.000000	93.343052 
3168.000000	93.353287 
3167.000000	93.362879 
3166.000000	93.371828 
3165.000000	93.379857 
3164.000000	93.386965 
3163.000000	93.393645 
3162.000000	93.400754 
3161.000000	93.409079 
3160.000000	93.418844 
3159.000000	93.429723 
3158.000000	93.441510 
3157.000000	93.454537 
3156.000000	93.469065 
3155.000000	93.484418 
3154.000000	93.499159 
3153.000000	93.512275 
3152.000000	93.523871 
3151.000000	93.534630 
3150.000000	93.544869 
3149.000000	93.554190 
3148.000000	93.562050 
3147.000000	93.568768 
3146.000000	93.575881 
3145.000000	93.584984 
3144.000000	93.595934 
3143.000000	93.606676 
3142.000000	93.615396 
3141.000000	93.622732 
3140.000000	93.631225 
3139.000000	93.642614 
3138.000000	93.656436 
3137.000000	93.670907 
3136.000000	93.684428 
3135.000000	93.696344 
3134.000000	93.706917 
3133.000000	93.716980 
3132.000000	93.727181 
3131.000000	93.737212 
3130.000000	93.746170 
3129.000000	93.753935 
3128.000000	93.761806 
3127.000000	93.771319 
3126.000000	93.782710 
3125.000000	93.794903 
3124.000000	93.806764 
3123.000000	93.818073 
3122.000000	93.829291 
3121.000000	93.840870 
3120.000000	93.852895 
3119.000000	93.865137 
3118.000000	93.877320 
3117.000000	93.889274 
3116.000000	93.900750 
3115.000000	93.911307 
3114.000000	93.920781 
3113.000000	93.929945 
3112.000000	93.940240 
3111.000000	93.952333 
3110.000000	93.965098 
3109.000000	93.976462 
3108.000000	93.985424 
3107.000000	93.992961 
3106.000000	94.000974 
3105.000000	94.010390 
3104.000000	94.020587 
3103.000000	94.030476 
3102.000000	94.039691 
3101.000000	94.048701 
3100.000000	94.058153 
3099.000000	94.068544 
3098.000000	94.080416 
3097.000000	94.094175 
3096.000000	94.109213 
3095.000000	94.123649 
3094.000000	94.135655 
3093.000000	94.144843 
3092.000000	94.152188 
3091.000000	94.158663 
3090.000000	94.164605 
3089.000000	94.170297 
3088.000000	94.176388 
3087.000000	94.183608 
3086.000000	94.192422 
3085.000000	94.202851 
3084.000000	94.214217 
3083.000000	94.225254 
3082.000000	94.235176 
3081.000000	94.244557 
3080.000000	94.254514 
3079.000000	94.265023 
3078.000000	94.274875 
3077.000000	94.283506 
3076.000000	94.291863 
3075.000000	94.300911 
3074.000000	94.310100 
3073.000000	94.318194 
3072.000000	94.325090 
3071.000000	94.331934 
3070.000000	94.339726 
3069.000000	94.348564 
3068.000000	94.358056 
3067.000000	94.367696 
3066.000000	94.376848 
3065.000000	94.385053 
3064.000000	94.392518 
3063.000000	94.399872 
3062.000000	94.407470 
3061.000000	94.415290 
3060.000000	94.423414 
3059.000000	94.432085 
3058.000000	94.441306 
3057.000000	94.450760 
3056.000000	94.460013 
3055.000000	94.468451 
3054.000000	94.475298 
3053.000000	94.480395 
3052.000000	94.485003 
3051.000000	94.491106 
3050.000000	94.499446 
3049.000000	94.508817 
3048.000000	94.517350 
3047.000000	94.524538 
3046.000000	94.531416 
3045.000000	94.539079 
3044.000000	94.547725 
3043.000000	94.557141 
3042.000000	94.567263 
3041.000000	94.577699 
3040.000000	94.587174 
3039.000000	94.594302 
3038.000000	94.598955 
3037.000000	94.602496 
3036.000000	94.606541 
3035.000000	94.611511 
3034.000000	94.616768 
3033.000000	94.621847 
3032.000000	94.627093 
3031.000000	94.633150 
3030.000000	94.640255 
3029.000000	94.648142 
3028.000000	94.656192 
3027.000000	94.663469 
3026.000000	94.669123 
3025.000000	94.673204 
3024.000000	94.676895 
3023.000000	94.681465 
3022.000000	94.687058 
3021.000000	94.692970 
3020.000000	94.698889 
3019.000000	94.705228 
3018.000000	94.712222 
3017.000000	94.719330 
3016.000000	94.725807 
3015.000000	94.731472 
3014.000000	94.736707 
3013.000000	94.742023 
3012.000000	94.747725 
3011.000000	94.753723 
3010.000000	94.759511 
3009.000000	94.764570 
3008.000000	94.768885 
3007.000000	94.772995 
3006.000000	94.777442 
3005.000000	94.782358 
3004.000000	94.787579 
3003.000000	94.792901 
3002.000000	94.798244 
3001.000000	94.803701 
3000.000000	94.809345 
2999.000000	94.814885 
2998.000000	94.819756 
2997.000000	94.823715 
2996.000000	94.827144 
2995.000000	94.830778 
2994.000000	94.835129 
2993.000000	94.840266 
2992.000000	94.845942 
2991.000000	94.851742 
2990.000000	94.857196 
2989.000000	94.862022 
2988.000000	94.866399 
2987.000000	94.870862 
2986.000000	94.875814 
2985.000000	94.881299 
2984.000000	94.887247 
2983.000000	94.893569 
2982.000000	94.899923 
2981.000000	94.905745 
2980.000000	94.910707 
2979.000000	94.914997 
2978.000000	94.919039 
2977.000000	94.923151 
2976.000000	94.927621 
2975.000000	94.932791 
2974.000000	94.938736 
2973.000000	94.945017 
2972.000000	94.951058 
2971.000000	94.956690 
2970.000000	94.962107 
2969.000000	94.967449 
2968.000000	94.972737 
2967.000000	94.978061 
2966.000000	94.983499 
2965.000000	94.988831 
2964.000000	94.993674 
2963.000000	94.997988 
2962.000000	95.002226 
2961.000000	95.006891 
2960.000000	95.012147 
2959.000000	95.017940 
2958.000000	95.024264 
2957.000000	95.031078 
2956.000000	95.038047 
2955.000000	95.044570 
2954.000000	95.050185 
2953.000000	95.054991 
2952.000000	95.059621 
2951.000000	95.064726 
2950.000000	95.070397 
2949.000000	95.076117 
2948.000000	95.081274 
2947.000000	95.085691 
2946.000000	95.089731 
2945.000000	95.093988 
2944.000000	95.098848 
2943.000000	95.104173 
2942.000000	95.109320 
2941.000000	95.113639 
2940.000000	95.117126 
2939.000000	95.120537 
2938.000000	95.124705 
2937.000000	95.129772 
2936.000000	95.135256 
2935.000000	95.140708 
2934.000000	95.146074 
2933.000000	95.151397 
2932.000000	95.156551 
2931.000000	95.161396 
2930.000000	95.166011 
2929.000000	95.170573 
2928.000000	95.175072 
2927.000000	95.179310 
2926.000000	95.183219 
2925.000000	95.187100 
2924.000000	95.191454 
2923.000000	95.196521 
2922.000000	95.202043 
2921.000000	95.207427 
2920.000000	95.212289 
2919.000000	95.216805 
2918.000000	95.221491 
2917.000000	95.226618 
2916.000000	95.231857 
2915.000000	95.236608 
2914.000000	95.240635 
2913.000000	95.244273 
2912.000000	95.248085 
2911.000000	95.252272 
2910.000000	95.256591 
2909.000000	95.260807 
2908.000000	95.265074 
2907.000000	95.269718 
2906.000000	95.274749 
2905.000000	95.279760 
2904.000000	95.284245 
2903.000000	95.288068 
2902.000000	95.291556 
2901.000000	95.295179 
2900.000000	95.299284 
2899.000000	95.303973 
2898.000000	95.309316 
2897.000000	95.315382 
2896.000000	95.321890 
2895.000000	95.327929 
2894.000000	95.332577 
2893.000000	95.336047 
2892.000000	95.339733 
2891.000000	95.344592 
2890.000000	95.349868 
2889.000000	95.354178 
2888.000000	95.357571 
2887.000000	95.361435 
2886.000000	95.366347 
2885.000000	95.371251 
2884.000000	95.375342 
2883.000000	95.379556 
2882.000000	95.385175 
2881.000000	95.391723 
2880.000000	95.397532 
2879.000000	95.402071 
2878.000000	95.406359 
2877.000000	95.411232 
2876.000000	95.416483 
2875.000000	95.421885 
2874.000000	95.427770 
2873.000000	95.433994 
2872.000000	95.439311 
2871.000000	95.442670 
2870.000000	95.444421 
2869.000000	95.445562 
2868.000000	95.446394 
2867.000000	95.446628 
2866.000000	95.446453 
2865.000000	95.446759 
2864.000000	95.448440 
2863.000000	95.452045 
2862.000000	95.457864 
2861.000000	95.465620 
2860.000000	95.473987 
2859.000000	95.481245 
2858.000000	95.486731 
2857.000000	95.491113 
2856.000000	95.495151 
2855.000000	95.498648 
2854.000000	95.500966 
2853.000000	95.502160 
2852.000000	95.503116 
2851.000000	95.504757 
2850.000000	95.507547 
2849.000000	95.511701 
2848.000000	95.517278 
2847.000000	95.523815 
2846.000000	95.530257 
2845.000000	95.535603 
2844.000000	95.539609 
2843.000000	95.542790 
2842.000000	95.545925 
2841.000000	95.549555 
2840.000000	95.553652 
2839.000000	95.557598 
2838.000000	95.560706 
2837.000000	95.563027 
2836.000000	95.565520 
2835.000000	95.569175 
2834.000000	95.574039 
2833.000000	95.579309 
2832.000000	95.584200 
2831.000000	95.588348 
2830.000000	95.591435 
2829.000000	95.592979 
2828.000000	95.592922 
2827.000000	95.592300 
2826.000000	95.592971 
2825.000000	95.596404 
2824.000000	95.602650 
2823.000000	95.610254 
2822.000000	95.617208 
2821.000000	95.622213 
2820.000000	95.624986 
2819.000000	95.625671 
2818.000000	95.624391 
2817.000000	95.621664 
2816.000000	95.618948 
2815.000000	95.618009 
2814.000000	95.619526 
2813.000000	95.622677 
2812.000000	95.626189 
2811.000000	95.629608 
2810.000000	95.633345 
2809.000000	95.637846 
2808.000000	95.643126 
2807.000000	95.648947 
2806.000000	95.654998 
2805.000000	95.660797 
2804.000000	95.665714 
2803.000000	95.669392 
2802.000000	95.672252 
2801.000000	95.675486 
2800.000000	95.680200 
2799.000000	95.686238 
2798.000000	95.691920 
2797.000000	95.695333 
2796.000000	95.696023 
2795.000000	95.695251 
2794.000000	95.694714 
2793.000000	95.695248 
2792.000000	95.696847 
2791.000000	95.699252 
2790.000000	95.702046 
2789.000000	95.704651 
2788.000000	95.706923 
2787.000000	95.709636 
2786.000000	95.713774 
2785.000000	95.719328 
2784.000000	95.725220 
2783.000000	95.730297 
2782.000000	95.733841 
2781.000000	95.735281 
2780.000000	95.734360 
2779.000000	95.732023 
2778.000000	95.730380 
2777.000000	95.730922 
2776.000000	95.733087 
2775.000000	95.735158 
2774.000000	95.736251 
2773.000000	95.736856 
2772.000000	95.737748 
2771.000000	95.739406 
2770.000000	95.742575 
2769.000000	95.748296 
2768.000000	95.756668 
2767.000000	95.765985 
2766.000000	95.773821 
2765.000000	95.779001 
2764.000000	95.782098 
2763.000000	95.784236 
2762.000000	95.785891 
2761.000000	95.786959 
2760.000000	95.787625 
2759.000000	95.788722 
2758.000000	95.791015 
2757.000000	95.794226 
2756.000000	95.797160 
2755.000000	95.799134 
2754.000000	95.801017 
2753.000000	95.804227 
2752.000000	95.808742 
2751.000000	95.812994 
2750.000000	95.816079 
2749.000000	95.818973 
2748.000000	95.822596 
2747.000000	95.825498 
2746.000000	95.825133 
2745.000000	95.821266 
2744.000000	95.816902 
2743.000000	95.815305 
2742.000000	95.816822 
2741.000000	95.819340 
2740.000000	95.820925 
2739.000000	95.821371 
2738.000000	95.821582 
2737.000000	95.822387 
2736.000000	95.824112 
2735.000000	95.826758 
2734.000000	95.830216 
2733.000000	95.834317 
2732.000000	95.838667 
2731.000000	95.842553 
2730.000000	95.845361 
2729.000000	95.847158 
2728.000000	95.848486 
2727.000000	95.849512 
2726.000000	95.849854 
2725.000000	95.849556 
2724.000000	95.849704 
2723.000000	95.851395 
2722.000000	95.854368 
2721.000000	95.857301 
2720.000000	95.859489 
2719.000000	95.861560 
2718.000000	95.864342 
2717.000000	95.867650 
2716.000000	95.870559 
2715.000000	95.872625 
2714.000000	95.874309 
2713.000000	95.876189 
2712.000000	95.878136 
2711.000000	95.879511 
2710.000000	95.880034 
2709.000000	95.880186 
2708.000000	95.880766 
2707.000000	95.882211 
2706.000000	95.884438 
2705.000000	95.887097 
2704.000000	95.889753 
2703.000000	95.891940 
2702.000000	95.893399 
2701.000000	95.894449 
2700.000000	95.895896 
2699.000000	95.898249 
2698.000000	95.901073 
2697.000000	95.903348 
2696.000000	95.904488 
2695.000000	95.904773 
2694.000000	95.904927 
2693.000000	95.905469 
2692.000000	95.906503 
2691.000000	95.907933 
2690.000000	95.909608 
2689.000000	95.911327 
2688.000000	95.912888 
2687.000000	95.914248 
2686.000000	95.915618 
2685.000000	95.917361 
2684.000000	95.919714 
2683.000000	95.922555 
2682.000000	95.925392 
2681.000000	95.927658 
2680.000000	95.929142 
2679.000000	95.930203 
2678.000000	95.931541 
2677.000000	95.933680 
2676.000000	95.936498 
2675.000000	95.939171 
2674.000000	95.940781 
2673.000000	95.941188 
2672.000000	95.941209 
2671.000000	95.941788 
2670.000000	95.943103 
2669.000000	95.944674 
2668.000000	95.946191 
2667.000000	95.947806 
2666.000000	95.949596 
2665.000000	95.951198 
2664.000000	95.952284 
2663.000000	95.953124 
2662.000000	95.954287 
2661.000000	95.955863 
2660.000000	95.957287 
2659.000000	95.958026 
2658.000000	95.958221 
2657.000000	95.958517 
2656.000000	95.959353 
2655.000000	95.960532 
2654.000000	95.961529 
2653.000000	95.962158 
2652.000000	95.962845 
2651.000000	95.964209 
2650.000000	95.966452 
2649.000000	95.969169 
2648.000000	95.971577 
2647.000000	95.972823 
2646.000000	95.972276 
2645.000000	95.969942 
2644.000000	95.966792 
2643.000000	95.964355 
2642.000000	95.963588 
2641.000000	95.964346 
2640.000000	95.965914 
2639.000000	95.967771 
2638.000000	95.969668 
2637.000000	95.971309 
2636.000000	95.972571 
2635.000000	95.973889 
2634.000000	95.975808 
2633.000000	95.978020 
2632.000000	95.979352 
2631.000000	95.979035 
2630.000000	95.977655 
2629.000000	95.976646 
2628.000000	95.976920 
2627.000000	95.978320 
2626.000000	95.980258 
2625.000000	95.982420 
2624.000000	95.984739 
2623.000000	95.986999 
2622.000000	95.988773 
2621.000000	95.989727 
2620.000000	95.989798 
2619.000000	95.989147 
2618.000000	95.988089 
2617.000000	95.987094 
2616.000000	95.986691 
2615.000000	95.987196 
2614.000000	95.988510 
2613.000000	95.990147 
2612.000000	95.991532 
2611.000000	95.992426 
2610.000000	95.993045 
2609.000000	95.993770 
2608.000000	95.994727 
2607.000000	95.995741 
2606.000000	95.996674 
2605.000000	95.997615 
2604.000000	95.998655 
2603.000000	95.999668 
2602.000000	96.000485 
2601.000000	96.001200 
2600.000000	96.002074 
2599.000000	96.003146 
2598.000000	96.004161 
2597.000000	96.004901 
2596.000000	96.005380 
2595.000000	96.005753 
2594.000000	96.006182 
2593.000000	96.006811 
2592.000000	96.007763 
2591.000000	96.008992 
2590.000000	96.010195 
2589.000000	96.011057 
2588.000000	96.011582 
2587.000000	96.012097 
2586.000000	96.012890 
2585.000000	96.013967 
2584.000000	96.015165 
2583.000000	96.016371 
2582.000000	96.017533 
2581.000000	96.018558 
2580.000000	96.019379 
2579.000000	96.020092 
2578.000000	96.020930 
2577.000000	96.022050 
2576.000000	96.023334 
2575.000000	96.024442 
2574.000000	96.025103 
2573.000000	96.025351 
2572.000000	96.025495 
2571.000000	96.025823 
2570.000000	96.026358 
2569.000000	96.026997 
2568.000000	96.027792 
2567.000000	96.028877 
2566.000000	96.030138 
2565.000000	96.031211 
2564.000000	96.031855 
2563.000000	96.032172 
2562.000000	96.032437 
2561.000000	96.032962 
2560.000000	96.034144 
2559.000000	96.036297 
2558.000000	96.039194 
2557.000000	96.041916 
2556.000000	96.043584 
2555.000000	96.044127 
2554.000000	96.044189 
2553.000000	96.044375 
2552.000000	96.044738 
2551.000000	96.045236 
2550.000000	96.046167 
2549.000000	96.047789 
2548.000000	96.049730 
2547.000000	96.051207 
2546.000000	96.051888 
2545.000000	96.052205 
2544.000000	96.052659 
2543.000000	96.053193 
2542.000000	96.053512 
2541.000000	96.053684 
2540.000000	96.054084 
2539.000000	96.054810 
2538.000000	96.055560 
2537.000000	96.056199 
2536.000000	96.057129 
2535.000000	96.058828 
2534.000000	96.061175 
2533.000000	96.063443 
2532.000000	96.064978 
2531.000000	96.065688 
2530.000000	96.065825 
2529.000000	96.065574 
2528.000000	96.065014 
2527.000000	96.064389 
2526.000000	96.064200 
2525.000000	96.064865 
2524.000000	96.066375 
2523.000000	96.068268 
2522.000000	96.069960 
2521.000000	96.071166 
2520.000000	96.071974 
2519.000000	96.072605 
2518.000000	96.073176 
2517.000000	96.073660 
2516.000000	96.074007 
2515.000000	96.074272 
2514.000000	96.074654 
2513.000000	96.075407 
2512.000000	96.076662 
2511.000000	96.078330 
2510.000000	96.080124 
2509.000000	96.081674 
2508.000000	96.082693 
2507.000000	96.083109 
2506.000000	96.083128 
2505.000000	96.083201 
2504.000000	96.083730 
2503.000000	96.084765 
2502.000000	96.086000 
2501.000000	96.087032 
2500.000000	96.087735 
2499.000000	96.088286 
2498.000000	96.088894 
2497.000000	96.089591 
2496.000000	96.090320 
2495.000000	96.091064 
2494.000000	96.091765 
2493.000000	96.092263 
2492.000000	96.092475 
2491.000000	96.092592 
2490.000000	96.092926 
2489.000000	96.093527 
2488.000000	96.094066 
2487.000000	96.094193 
2486.000000	96.093962 
2485.000000	96.093847 
2484.000000	96.094255 
2483.000000	96.095157 
2482.000000	96.096197 
2481.000000	96.097112 
2480.000000	96.097958 
2479.000000	96.098943 
2478.000000	96.100140 
2477.000000	96.101354 
2476.000000	96.102149 
2475.000000	96.102084 
2474.000000	96.101055 
2473.000000	96.099486 
2472.000000	96.098028 
2471.000000	96.096978 
2470.000000	96.096282 
2469.000000	96.096116 
2468.000000	96.096995 
2467.000000	96.098997 
2466.000000	96.101175 
2465.000000	96.102329 
2464.000000	96.102441 
2463.000000	96.102708 
2462.000000	96.103991 
2461.000000	96.105747 
2460.000000	96.106895 
2459.000000	96.107209 
2458.000000	96.107111 
2457.000000	96.106541 
2456.000000	96.104916 
2455.000000	96.102425 
2454.000000	96.100553 
2453.000000	96.100540 
2452.000000	96.101841 
2451.000000	96.102746 
2450.000000	96.102633 
2449.000000	96.102708 
2448.000000	96.104162 
2447.000000	96.106617 
2446.000000	96.108774 
2445.000000	96.109974 
2444.000000	96.110419 
2443.000000	96.110391 
2442.000000	96.110139 
2441.000000	96.110221 
2440.000000	96.111075 
2439.000000	96.112330 
2438.000000	96.113301 
2437.000000	96.114163 
2436.000000	96.115773 
2435.000000	96.118212 
2434.000000	96.120371 
2433.000000	96.121299 
2432.000000	96.121340 
2431.000000	96.121608 
2430.000000	96.122792 
2429.000000	96.124776 
2428.000000	96.126967 
2427.000000	96.128573 
2426.000000	96.128952 
2425.000000	96.128100 
2424.000000	96.126830 
2423.000000	96.125990 
2422.000000	96.125653 
2421.000000	96.125564 
2420.000000	96.125848 
2419.000000	96.126847 
2418.000000	96.128450 
2417.000000	96.130018 
2416.000000	96.131005 
2415.000000	96.131241 
2414.000000	96.130902 
2413.000000	96.130929 
2412.000000	96.132733 
2411.000000	96.136329 
2410.000000	96.139515 
2409.000000	96.140159 
2408.000000	96.138773 
2407.000000	96.137533 
2406.000000	96.137387 
2405.000000	96.137457 
2404.000000	96.136826 
2403.000000	96.135467 
2402.000000	96.133746 
2401.000000	96.132358 
2400.000000	96.132510 
2399.000000	96.134925 
2398.000000	96.138833 
2397.000000	96.142904 
2396.000000	96.146621 
2395.000000	96.149617 
2394.000000	96.150555 
2393.000000	96.148478 
2392.000000	96.144886 
2391.000000	96.142579 
2390.000000	96.142329 
2389.000000	96.142223 
2388.000000	96.140320 
2387.000000	96.136368 
2386.000000	96.130946 
2385.000000	96.124820 
2384.000000	96.119681 
2383.000000	96.118015 
2382.000000	96.121690 
2381.000000	96.131495 
2380.000000	96.147750 
2379.000000	96.169306 
2378.000000	96.191019 
2377.000000	96.204599 
2376.000000	96.204453 
2375.000000	96.191960 
2374.000000	96.173704 
2373.000000	96.155859 
2372.000000	96.141311 
2371.000000	96.131498 
2370.000000	96.127573 
2369.000000	96.128563 
2368.000000	96.130209 
2367.000000	96.127810 
2366.000000	96.120761 
2365.000000	96.113338 
2364.000000	96.110011 
2363.000000	96.110400 
2362.000000	96.110590 
2361.000000	96.108080 
2360.000000	96.102830 
2359.000000	96.095976 
2358.000000	96.089313 
2357.000000	96.085373 
2356.000000	96.085557 
2355.000000	96.088356 
2354.000000	96.092004 
2353.000000	96.093437 
2352.000000	96.090623 
2351.000000	96.083540 
2350.000000	96.073664 
2349.000000	96.064599 
2348.000000	96.060119 
2347.000000	96.060332 
2346.000000	96.056971 
2345.000000	96.043150 
2344.000000	96.024003 
2343.000000	96.009552 
2342.000000	96.007217 
2341.000000	96.016934 
2340.000000	96.033153 
2339.000000	96.047670 
2338.000000	96.055700 
2337.000000	96.057242 
2336.000000	96.054174 
2335.000000	96.049573 
2334.000000	96.046128 
2333.000000	96.043403 
2332.000000	96.036410 
2331.000000	96.022323 
2330.000000	96.001264 
2329.000000	95.977321 
2328.000000	95.951631 
2327.000000	95.928618 
2326.000000	95.911891 
2325.000000	95.904433 
2324.000000	95.905756 
2323.000000	95.913235 
2322.000000	95.922433 
2321.000000	95.927672 
2320.000000	95.927892 
2319.000000	95.928854 
2318.000000	95.935933 
2317.000000	95.948487 
2316.000000	95.959894 
2315.000000	95.966154 
2314.000000	95.965306 
2313.000000	95.958718 
2312.000000	95.948226 
2311.000000	95.939872 
2310.000000	95.937394 
2309.000000	95.940430 
2308.000000	95.944408 
2307.000000	95.948408 
2306.000000	95.953110 
2305.000000	95.957342 
2304.000000	95.957018 
2303.000000	95.952401 
2302.000000	95.948775 
2301.000000	95.951397 
2300.000000	95.958809 
2299.000000	95.965946 
2298.000000	95.968371 
2297.000000	95.966601 
2296.000000	95.963442 
2295.000000	95.963075 
2294.000000	95.967319 
2293.000000	95.975175 
2292.000000	95.983122 
2291.000000	95.989140 
2290.000000	95.993692 
2289.000000	95.998161 
2288.000000	96.002823 
2287.000000	96.007328 
2286.000000	96.011814 
2285.000000	96.016329 
2284.000000	96.020322 
2283.000000	96.022920 
2282.000000	96.024043 
2281.000000	96.024160 
2280.000000	96.023776 
2279.000000	96.023137 
2278.000000	96.022895 
2277.000000	96.024207 
2276.000000	96.028046 
2275.000000	96.034425 
2274.000000	96.042333 
2273.000000	96.050715 
2272.000000	96.058985 
2271.000000	96.066674 
2270.000000	96.072860 
2269.000000	96.076742 
2268.000000	96.078555 
2267.000000	96.079465 
2266.000000	96.080414 
2265.000000	96.081876 
2264.000000	96.084086 
2263.000000	96.086385 
2262.000000	96.086705 
2261.000000	96.083352 
2260.000000	96.077449 
2259.000000	96.072243 
2258.000000	96.069815 
2257.000000	96.069651 
2256.000000	96.070803 
2255.000000	96.073501 
2254.000000	96.077877 
2253.000000	96.082473 
2252.000000	96.085264 
2251.000000	96.085539 
2250.000000	96.083771 
2249.000000	96.080678 
2248.000000	96.077337 
2247.000000	96.075353 
2246.000000	96.075694 
2245.000000	96.077588 
2244.000000	96.079055 
2243.000000	96.078800 
2242.000000	96.077167 
2241.000000	96.075445 
2240.000000	96.074698 
2239.000000	96.075097 
2238.000000	96.076053 
2237.000000	96.076671 
2236.000000	96.076387 
2235.000000	96.075249 
2234.000000	96.073691 
2233.000000	96.072134 
2232.000000	96.070796 
2231.000000	96.069630 
2230.000000	96.068382 
2229.000000	96.066877 
2228.000000	96.065243 
2227.000000	96.063744 
2226.000000	96.062467 
2225.000000	96.061307 
2224.000000	96.060152 
2223.000000	96.058992 
2222.000000	96.057871 
2221.000000	96.056814 
2220.000000	96.055815 
2219.000000	96.054857 
2218.000000	96.053928 
2217.000000	96.053021 
2216.000000	96.052130 
2215.000000	96.051249 
2214.000000	96.050363 
2213.000000	96.049469 
2212.000000	96.048578 
2211.000000	96.047729 
2210.000000	96.046956 
2209.000000	96.046266 
2208.000000	96.045640 
2207.000000	96.045052 
2206.000000	96.044484 
2205.000000	96.043915 
2204.000000	96.043327 
2203.000000	96.042712 
2202.000000	96.042091 
2201.000000	96.041517 
2200.000000	96.041068 
2199.000000	96.040788 
2198.000000	96.040649 
2197.000000	96.040636 
2196.000000	96.040783 
2195.000000	96.041071 
2194.000000	96.041368 
2193.000000	96.041546 
2192.000000	96.041626 
2191.000000	96.041772 
2190.000000	96.042113 
2189.000000	96.042627 
2188.000000	96.043271 
2187.000000	96.044103 
2186.000000	96.045130 
2185.000000	96.046208 
2184.000000	96.047266 
2183.000000	96.048507 
2182.000000	96.050152 
2181.000000	96.052038 
2180.000000	96.053659 
2179.000000	96.054729 
2178.000000	96.055411 
2177.000000	96.056214 
2176.000000	96.057494 
2175.000000	96.059203 
2174.000000	96.060973 
2173.000000	96.062486 
2172.000000	96.063859 
2171.000000	96.065582 
2170.000000	96.067899 
2169.000000	96.070306 
2168.000000	96.072004 
2167.000000	96.072912 
2166.000000	96.073836 
2165.000000	96.075406 
2164.000000	96.077199 
2163.000000	96.078324 
2162.000000	96.078854 
2161.000000	96.080266 
2160.000000	96.084111 
2159.000000	96.090520 
2158.000000	96.097691 
2157.000000	96.103113 
2156.000000	96.105651 
2155.000000	96.105876 
2154.000000	96.105333 
2153.000000	96.105464 
2152.000000	96.106998 
2151.000000	96.109660 
2150.000000	96.112238 
2149.000000	96.113797 
2148.000000	96.115106 
2147.000000	96.117881 
2146.000000	96.122159 
2145.000000	96.125583 
2144.000000	96.126328 
2143.000000	96.125508 
2142.000000	96.125561 
2141.000000	96.127118 
2140.000000	96.129074 
2139.000000	96.131062 
2138.000000	96.134040 
2137.000000	96.138360 
2136.000000	96.142585 
2135.000000	96.144494 
2134.000000	96.142560 
2133.000000	96.137285 
2132.000000	96.131658 
2131.000000	96.129003 
2130.000000	96.129697 
2129.000000	96.130840 
2128.000000	96.129859 
2127.000000	96.127585 
2126.000000	96.126684 
2125.000000	96.127971 
2124.000000	96.129690 
2123.000000	96.129857 
2122.000000	96.127850 
2121.000000	96.124003 
2120.000000	96.118959 
2119.000000	96.113481 
2118.000000	96.108236 
2117.000000	96.103908 
2116.000000	96.101363 
2115.000000	96.100888 
2114.000000	96.101055 
2113.000000	96.099618 
2112.000000	96.096569 
2111.000000	96.094256 
2110.000000	96.093665 
2109.000000	96.092848 
2108.000000	96.090289 
2107.000000	96.087631 
2106.000000	96.087163 
2105.000000	96.088726 
2104.000000	96.091175 
2103.000000	96.094909 
2102.000000	96.100198 
2101.000000	96.104333 
2100.000000	96.103829 
2099.000000	96.098817 
2098.000000	96.093159 
2097.000000	96.090078 
2096.000000	96.089626 
2095.000000	96.090543 
2094.000000	96.091841 
2093.000000	96.092347 
2092.000000	96.091041 
2091.000000	96.088662 
2090.000000	96.087331 
2089.000000	96.087922 
2088.000000	96.088783 
2087.000000	96.087580 
2086.000000	96.083474 
2085.000000	96.077413 
2084.000000	96.071356 
2083.000000	96.067378 
2082.000000	96.066554 
2081.000000	96.068231 
2080.000000	96.070834 
2079.000000	96.073248 
2078.000000	96.074836 
2077.000000	96.074840 
2076.000000	96.073353 
2075.000000	96.072416 
2074.000000	96.073895 
2073.000000	96.076319 
2072.000000	96.075868 
2071.000000	96.070976 
2070.000000	96.064220 
2069.000000	96.059084 
2068.000000	96.056533 
2067.000000	96.055871 
2066.000000	96.057096 
2065.000000	96.060593 
2064.000000	96.065562 
2063.000000	96.070600 
2062.000000	96.075349 
2061.000000	96.080625 
2060.000000	96.087306 
2059.000000	96.095407 
2058.000000	96.103284 
2057.000000	96.107669 
2056.000000	96.106090 
2055.000000	96.099632 
2054.000000	96.093041 
2053.000000	96.090865 
2052.000000	96.093347 
2051.000000	96.096688 
2050.000000	96.096854 
2049.000000	96.093242 
2048.000000	96.089100 
2047.000000	96.088474 
2046.000000	96.092736 
2045.000000	96.099739 
2044.000000	96.105928 
2043.000000	96.109611 
2042.000000	96.112158 
2041.000000	96.116211 
2040.000000	96.122956 
2039.000000	96.131148 
2038.000000	96.138345 
2037.000000	96.142899 
2036.000000	96.145017 
2035.000000	96.146314 
2034.000000	96.148715 
2033.000000	96.153523 
2032.000000	96.160646 
2031.000000	96.167996 
2030.000000	96.172265 
2029.000000	96.171635 
2028.000000	96.167729 
2027.000000	96.164180 
2026.000000	96.163099 
2025.000000	96.164185 
2024.000000	96.166752 
2023.000000	96.170899 
2022.000000	96.176465 
2021.000000	96.181907 
2020.000000	96.185033 
2019.000000	96.184371 
2018.000000	96.179679 
2017.000000	96.172339 
2016.000000	96.165749 
2015.000000	96.163441 
2014.000000	96.166042 
2013.000000	96.170722 
2012.000000	96.174103 
2011.000000	96.175871 
2010.000000	96.177999 
2009.000000	96.181221 
2008.000000	96.183883 
2007.000000	96.184261 
2006.000000	96.182421 
2005.000000	96.179576 
2004.000000	96.177033 
2003.000000	96.175957 
2002.000000	96.177003 
2001.000000	96.179315 
2000.000000	96.180635 
1999.000000	96.178960 
1998.000000	96.173903 
1997.000000	96.166957 
1996.000000	96.160633 
1995.000000	96.156727 
1994.000000	96.155020 
1993.000000	96.153787 
1992.000000	96.151820 
1991.000000	96.149820 
1990.000000	96.149289 
1989.000000	96.150546 
1988.000000	96.152381 
1987.000000	96.153087 
1986.000000	96.151514 
1985.000000	96.147588 
1984.000000	96.142368 
1983.000000	96.137451 
1982.000000	96.133937 
1981.000000	96.132092 
1980.000000	96.132078 
1979.000000	96.134064 
1978.000000	96.137131 
1977.000000	96.139185 
1976.000000	96.138960 
1975.000000	96.137511 
1974.000000	96.136970 
1973.000000	96.138190 
1972.000000	96.140049 
1971.000000	96.140787 
1970.000000	96.139528 
1969.000000	96.136447 
1968.000000	96.132344 
1967.000000	96.128242 
1966.000000	96.125064 
1965.000000	96.123321 
1964.000000	96.122990 
1963.000000	96.123638 
1962.000000	96.124575 
1961.000000	96.125011 
1960.000000	96.124356 
1959.000000	96.122570 
1958.000000	96.120261 
1957.000000	96.118372 
1956.000000	96.117376 
1955.000000	96.116964 
1954.000000	96.116455 
1953.000000	96.115526 
1952.000000	96.114385 
1951.000000	96.113281 
1950.000000	96.112204 
1949.000000	96.111124 
1948.000000	96.110235 
1947.000000	96.109720 
1946.000000	96.109413 
1945.000000	96.108865 
1944.000000	96.107793 
1943.000000	96.106264 
1942.000000	96.104513 
1941.000000	96.102723 
1940.000000	96.101008 
1939.000000	96.099416 
1938.000000	96.097917 
1937.000000	96.096456 
1936.000000	96.095012 
1935.000000	96.093547 
1934.000000	96.091970 
1933.000000	96.090251 
1932.000000	96.088537 
1931.000000	96.086980 
1930.000000	96.085529 
1929.000000	96.083962 
1928.000000	96.082200 
1927.000000	96.080393 
1926.000000	96.078756 
1925.000000	96.077286 
1924.000000	96.075667 
1923.000000	96.073613 
1922.000000	96.071176 
1921.000000	96.068651 
1920.000000	96.066270 
1919.000000	96.064081 
1918.000000	96.061912 
1917.000000	96.059433 
1916.000000	96.056569 
1915.000000	96.053801 
1914.000000	96.051651 
1913.000000	96.050036 
1912.000000	96.048304 
1911.000000	96.045999 
1910.000000	96.043191 
1909.000000	96.040185 
1908.000000	96.037403 
1907.000000	96.035204 
1906.000000	96.033356 
1905.000000	96.030807 
1904.000000	96.026635 
1903.000000	96.021510 
1902.000000	96.017224 
1901.000000	96.014577 
1900.000000	96.012865 
1899.000000	96.011132 
1898.000000	96.009158 
1897.000000	96.006992 
1896.000000	96.004284 
1895.000000	96.000880 
1894.000000	95.997077 
1893.000000	95.992940 
1892.000000	95.988472 
1891.000000	95.984435 
1890.000000	95.981869 
1889.000000	95.980560 
1888.000000	95.979241 
1887.000000	95.977571 
1886.000000	95.975881 
1885.000000	95.973433 
1884.000000	95.969174 
1883.000000	95.964425 
1882.000000	95.962329 
1881.000000	95.964035 
1880.000000	95.967326 
1879.000000	95.968646 
1878.000000	95.966158 
1877.000000	95.961378 
1876.000000	95.957908 
1875.000000	95.958110 
1874.000000	95.961059 
1873.000000	95.963452 
1872.000000	95.963299 
1871.000000	95.961707 
1870.000000	95.960432 
1869.000000	95.959624 
1868.000000	95.959266 
1867.000000	95.961030 
1866.000000	95.965417 
1865.000000	95.969203 
1864.000000	95.969309 
1863.000000	95.967328 
1862.000000	95.967242 
1861.000000	95.969860 
1860.000000	95.972881 
1859.000000	95.975706 
1858.000000	95.980000 
1857.000000	95.985635 
1856.000000	95.990247 
1855.000000	95.992612 
1854.000000	95.993717 
1853.000000	95.994450 
1852.000000	95.995938 
1851.000000	95.999962 
1850.000000	96.006424 
1849.000000	96.012717 
1848.000000	96.016442 
1847.000000	96.018246 
1846.000000	96.020012 
1845.000000	96.021804 
1844.000000	96.022638 
1843.000000	96.023054 
1842.000000	96.024497 
1841.000000	96.027058 
1840.000000	96.030542 
1839.000000	96.035330 
1838.000000	96.041144 
1837.000000	96.045793 
1836.000000	96.047329 
1835.000000	96.047092 
1834.000000	96.047946 
1833.000000	96.050382 
1832.000000	96.052798 
1831.000000	96.053648 
1830.000000	96.052967 
1829.000000	96.052541 
1828.000000	96.053802 
1827.000000	96.056509 
1826.000000	96.059052 
1825.000000	96.060200 
1824.000000	96.060417 
1823.000000	96.061177 
1822.000000	96.063080 
1821.000000	96.064958 
1820.000000	96.065510 
1819.000000	96.065169 
1818.000000	96.065983 
1817.000000	96.068779 
1816.000000	96.071671 
1815.000000	96.073366 
1814.000000	96.074602 
1813.000000	96.076191 
1812.000000	96.077076 
1811.000000	96.075502 
1810.000000	96.072270 
1809.000000	96.069406 
1808.000000	96.067504 
1807.000000	96.066964 
1806.000000	96.068859 
1805.000000	96.073078 
1804.000000	96.077271 
1803.000000	96.079858 
1802.000000	96.081288 
1801.000000	96.082567 
1800.000000	96.083191 
1799.000000	96.082179 
1798.000000	96.080481 
1797.000000	96.078710 
1796.000000	96.076140 
1795.000000	96.073188 
1794.000000	96.070831 
1793.000000	96.068279 
1792.000000	96.063689 
1791.000000	96.058614 
1790.000000	96.057844 
1789.000000	96.062736 
1788.000000	96.070236 
1787.000000	96.076962 
1786.000000	96.082105 
1785.000000	96.086021 
1784.000000	96.088180 
1783.000000	96.089061 
1782.000000	96.088914 
1781.000000	96.087435 
1780.000000	96.085668 
1779.000000	96.085762 
1778.000000	96.089686 
1777.000000	96.095743 
1776.000000	96.100275 
1775.000000	96.101867 
1774.000000	96.101816 
1773.000000	96.102551 
1772.000000	96.104786 
1771.000000	96.105898 
1770.000000	96.105155 
1769.000000	96.104828 
1768.000000	96.106411 
1767.000000	96.109750 
1766.000000	96.113490 
1765.000000	96.116756 
1764.000000	96.119046 
1763.000000	96.119550 
1762.000000	96.117918 
1761.000000	96.116156 
1760.000000	96.115999 
1759.000000	96.116487 
1758.000000	96.115303 
1757.000000	96.111249 
1756.000000	96.108222 
1755.000000	96.109186 
1754.000000	96.111141 
1753.000000	96.109038 
1752.000000	96.102688 
1751.000000	96.098275 
1750.000000	96.100989 
1749.000000	96.107779 
1748.000000	96.112163 
1747.000000	96.113207 
1746.000000	96.112523 
1745.000000	96.111249 
1744.000000	96.109129 
1743.000000	96.104913 
1742.000000	96.099592 
1741.000000	96.096605 
1740.000000	96.097049 
1739.000000	96.098692 
1738.000000	96.099492 
1737.000000	96.098399 
1736.000000	96.092536 
1735.000000	96.077268 
1734.000000	96.055808 
1733.000000	96.039031 
1732.000000	96.035226 
1731.000000	96.043034 
1730.000000	96.054398 
1729.000000	96.059839 
1728.000000	96.055992 
1727.000000	96.046843 
1726.000000	96.036644 
1725.000000	96.027510 
1724.000000	96.018400 
1723.000000	96.008027 
1722.000000	95.999118 
1721.000000	95.992771 
1720.000000	95.985423 
1719.000000	95.971815 
1718.000000	95.953559 
1717.000000	95.937665 
1716.000000	95.923712 
1715.000000	95.910431 
1714.000000	95.900567 
1713.000000	95.892912 
1712.000000	95.882498 
1711.000000	95.870080 
1710.000000	95.860422 
1709.000000	95.853089 
1708.000000	95.843294 
1707.000000	95.828571 
1706.000000	95.810426 
1705.000000	95.789025 
1704.000000	95.761220 
1703.000000	95.729308 
1702.000000	95.699526 
1701.000000	95.676103 
1700.000000	95.657203 
1699.000000	95.635320 
1698.000000	95.617692 
1697.000000	95.603909 
1696.000000	95.582126 
1695.000000	95.553045 
1694.000000	95.529891 
1693.000000	95.515985 
1692.000000	95.502119 
1691.000000	95.481051 
1690.000000	95.452539 
1689.000000	95.418852 
1688.000000	95.384221 
1687.000000	95.352437 
1686.000000	95.325284 
1685.000000	95.301079 
1684.000000	95.273141 
1683.000000	95.241619 
1682.000000	95.215525 
1681.000000	95.193015 
1680.000000	95.170790 
1679.000000	95.150089 
1678.000000	95.130773 
1677.000000	95.108960 
1676.000000	95.081541 
1675.000000	95.050863 
1674.000000	95.018844 
1673.000000	94.988801 
1672.000000	94.962885 
1671.000000	94.938867 
1670.000000	94.911715 
1669.000000	94.876788 
1668.000000	94.840418 
1667.000000	94.812031 
1666.000000	94.790358 
1665.000000	94.770238 
1664.000000	94.748882 
1663.000000	94.726723 
1662.000000	94.701184 
1661.000000	94.668245 
1660.000000	94.633847 
1659.000000	94.605966 
1658.000000	94.584713 
1657.000000	94.564890 
1656.000000	94.542455 
1655.000000	94.514209 
1654.000000	94.475068 
1653.000000	94.432164 
1652.000000	94.394549 
1651.000000	94.379226 
1650.000000	94.379471 
1649.000000	94.378463 
1648.000000	94.365940 
1647.000000	94.343068 
1646.000000	94.317540 
1645.000000	94.297247 
1644.000000	94.285102 
1643.000000	94.279848 
1642.000000	94.279145 
1641.000000	94.278613 
1640.000000	94.276749 
1639.000000	94.273466 
1638.000000	94.270947 
1637.000000	94.270989 
1636.000000	94.274020 
1635.000000	94.278099 
1634.000000	94.283055 
1633.000000	94.292310 
1632.000000	94.303650 
1631.000000	94.317419 
1630.000000	94.336979 
1629.000000	94.361884 
1628.000000	94.387340 
1627.000000	94.411769 
1626.000000	94.437165 
1625.000000	94.466406 
1624.000000	94.502756 
1623.000000	94.546176 
1622.000000	94.589157 
1621.000000	94.624290 
1620.000000	94.654173 
1619.000000	94.685939 
1618.000000	94.724679 
1617.000000	94.767283 
1616.000000	94.805752 
1615.000000	94.840339 
1614.000000	94.875041 
1613.000000	94.907773 
1612.000000	94.935951 
1611.000000	94.962257 
1610.000000	94.989472 
1609.000000	95.018029 
1608.000000	95.049834 
1607.000000	95.086264 
1606.000000	95.121836 
1605.000000	95.150497 
1604.000000	95.175125 
1603.000000	95.200356 
1602.000000	95.225953 
1601.000000	95.250706 
1600.000000	95.276627 
1599.000000	95.305455 
1598.000000	95.334461 
1597.000000	95.360649 
1596.000000	95.384201 
1595.000000	95.406089 
1594.000000	95.425442 
1593.000000	95.441621 
1592.000000	95.456899 
1591.000000	95.473810 
1590.000000	95.491432 
1589.000000	95.507481 
1588.000000	95.523102 
1587.000000	95.540738 
1586.000000	95.559203 
1585.000000	95.573974 
1584.000000	95.586031 
1583.000000	95.600553 
1582.000000	95.617381 
1581.000000	95.632982 
1580.000000	95.647383 
1579.000000	95.662538 
1578.000000	95.678051 
1577.000000	95.693944 
1576.000000	95.711021 
1575.000000	95.728187 
1574.000000	95.744259 
1573.000000	95.759874 
1572.000000	95.777461 
1571.000000	95.798032 
1570.000000	95.815750 
1569.000000	95.821317 
1568.000000	95.820022 
1567.000000	95.823660 
1566.000000	95.833671 
1565.000000	95.844809 
1564.000000	95.854664 
1563.000000	95.861436 
1562.000000	95.864848 
1561.000000	95.865044 
1560.000000	95.873426 
1559.000000	95.892772 
1558.000000	95.901278 
1557.000000	95.901846 
1556.000000	95.908092 
1555.000000	95.918233 
1554.000000	95.927699 
1553.000000	95.936282 
1552.000000	95.945714 
1551.000000	95.953118 
1550.000000	95.957094 
1549.000000	95.960692 
1548.000000	95.967088 
1547.000000	95.975636 
1546.000000	95.982362 
1545.000000	95.985237 
1544.000000	95.987071 
1543.000000	95.991258 
1542.000000	95.999437 
1541.000000	96.010678 
1540.000000	96.017785 
1539.000000	96.016597 
1538.000000	96.013083 
1537.000000	96.012590 
1536.000000	96.014562 
1535.000000	96.018344 
1534.000000	96.023346 
1533.000000	96.027933 
1532.000000	96.030960 
1531.000000	96.033260 
1530.000000	96.036340 
1529.000000	96.040274 
1528.000000	96.043768 
1527.000000	96.046276 
1526.000000	96.048446 
1525.000000	96.051201 
1524.000000	96.055028 
1523.000000	96.059691 
1522.000000	96.064075 
1521.000000	96.066240 
1520.000000	96.065998 
1519.000000	96.065654 
1518.000000	96.066315 
1517.000000	96.067396 
1516.000000	96.068374 
1515.000000	96.070362 
1514.000000	96.074764 
1513.000000	96.081293 
1512.000000	96.087472 
1511.000000	96.090477 
1510.000000	96.090343 
1509.000000	96.089063 
1508.000000	96.088897 
1507.000000	96.090187 
1506.000000	96.091608 
1505.000000	96.092101 
1504.000000	96.093013 
1503.000000	96.093803 
1502.000000	96.093581 
1501.000000	96.093046 
1500.000000	96.093139 
1499.000000	96.092991 
1498.000000	96.091447 
1497.000000	96.090617 
1496.000000	96.091539 
1495.000000	96.093854 
1494.000000	96.099340 
1493.000000	96.109141 
1492.000000	96.120807 
1491.000000	96.129548 
1490.000000	96.132288 
1489.000000	96.130195 
1488.000000	96.124661 
1487.000000	96.117202 
1486.000000	96.111894 
1485.000000	96.108808 
1484.000000	96.106644 
1483.000000	96.106099 
1482.000000	96.107381 
1481.000000	96.109581 
1480.000000	96.110724 
1479.000000	96.110637 
1478.000000	96.110080 
1477.000000	96.108570 
1476.000000	96.103591 
1475.000000	96.095393 
1474.000000	96.088052 
1473.000000	96.084559 
1472.000000	96.083485 
1471.000000	96.081652 
1470.000000	96.079632 
1469.000000	96.078213 
1468.000000	96.075562 
1467.000000	96.070608 
1466.000000	96.065011 
1465.000000	96.060127 
1464.000000	96.055816 
1463.000000	96.050428 
1462.000000	96.044307 
1461.000000	96.039329 
1460.000000	96.036401 
1459.000000	96.033099 
1458.000000	96.023256 
1457.000000	96.005371 
1456.000000	95.988318 
1455.000000	95.979405 
1454.000000	95.974675 
1453.000000	95.969106 
1452.000000	95.963686 
1451.000000	95.961160 
1450.000000	95.961832 
1449.000000	95.963187 
1448.000000	95.960045 
1447.000000	95.950816 
1446.000000	95.938688 
1445.000000	95.927991 
1444.000000	95.921187 
1443.000000	95.915309 
1442.000000	95.908123 
1441.000000	95.901103 
1440.000000	95.895796 
1439.000000	95.889003 
1438.000000	95.876826 
1437.000000	95.861940 
1436.000000	95.851196 
1435.000000	95.845597 
1434.000000	95.842251 
1433.000000	95.839859 
1432.000000	95.838032 
1431.000000	95.835974 
1430.000000	95.832861 
1429.000000	95.830399 
1428.000000	95.829286 
1427.000000	95.829842 
1426.000000	95.832454 
1425.000000	95.837943 
1424.000000	95.847664 
1423.000000	95.856428 
1422.000000	95.858967 
1421.000000	95.857943 
1420.000000	95.858954 
1419.000000	95.859124 
1418.000000	95.853419 
1417.000000	95.849460 
1416.000000	95.855157 
1415.000000	95.866673 
1414.000000	95.875412 
1413.000000	95.878845 
1412.000000	95.881597 
1411.000000	95.885915 
1410.000000	95.890026 
1409.000000	95.895702 
1408.000000	95.906157 
1407.000000	95.920909 
1406.000000	95.935537 
1405.000000	95.947213 
1404.000000	95.958415 
1403.000000	95.969491 
1402.000000	95.979102 
1401.000000	95.989782 
1400.000000	96.005499 
1399.000000	96.024577 
1398.000000	96.040576 
1397.000000	96.052077 
1396.000000	96.062899 
1395.000000	96.075734 
1394.000000	96.088405 
1393.000000	96.099825 
1392.000000	96.113063 
1391.000000	96.127881 
1390.000000	96.140466 
1389.000000	96.148648 
1388.000000	96.153230 
1387.000000	96.156152 
1386.000000	96.159408 
1385.000000	96.165475 
1384.000000	96.176287 
1383.000000	96.189898 
1382.000000	96.202066 
1381.000000	96.210565 
1380.000000	96.215841 
1379.000000	96.219852 
1378.000000	96.224519 
1377.000000	96.230547 
1376.000000	96.236842 
1375.000000	96.241797 
1374.000000	96.245308 
1373.000000	96.250205 
1372.000000	96.258883 
1371.000000	96.270270 
1370.000000	96.280408 
1369.000000	96.286029 
1368.000000	96.288888 
1367.000000	96.292973 
1366.000000	96.299846 
1365.000000	96.308023 
1364.000000	96.314304 
1363.000000	96.316260 
1362.000000	96.315273 
1361.000000	96.315913 
1360.000000	96.321551 
1359.000000	96.332115 
1358.000000	96.344769 
1357.000000	96.355852 
1356.000000	96.362975 
1355.000000	96.366087 
1354.000000	96.367424 
1353.000000	96.370496 
1352.000000	96.376000 
1351.000000	96.382229 
1350.000000	96.387447 
1349.000000	96.390693 
1348.000000	96.392927 
1347.000000	96.395594 
1346.000000	96.399391 
1345.000000	96.403993 
1344.000000	96.408524 
1343.000000	96.412134 
1342.000000	96.414055 
1341.000000	96.413279 
1340.000000	96.409246 
1339.000000	96.403531 
1338.000000	96.399531 
1337.000000	96.399860 
1336.000000	96.404015 
1335.000000	96.408947 
1334.000000	96.412375 
1333.000000	96.414892 
1332.000000	96.418007 
1331.000000	96.421611 
1330.000000	96.424059 
1329.000000	96.424528 
1328.000000	96.423917 
1327.000000	96.423938 
1326.000000	96.424989 
1325.000000	96.425343 
1324.000000	96.423271 
1323.000000	96.418418 
1322.000000	96.412249 
1321.000000	96.407580 
1320.000000	96.406717 
1319.000000	96.409254 
1318.000000	96.412557 
1317.000000	96.414706 
1316.000000	96.415534 
1315.000000	96.415119 
1314.000000	96.413484 
1313.000000	96.412227 
1312.000000	96.413561 
1311.000000	96.416943 
1310.000000	96.418889 
1309.000000	96.417706 
1308.000000	96.415854 
1307.000000	96.416710 
1306.000000	96.420095 
1305.000000	96.422981 
1304.000000	96.423967 
1303.000000	96.423926 
1302.000000	96.423563 
1301.000000	96.422499 
1300.000000	96.420735 
1299.000000	96.419071 
1298.000000	96.417894 
1297.000000	96.416769 
1296.000000	96.415618 
1295.000000	96.415669 
1294.000000	96.418339 
1293.000000	96.423362 
1292.000000	96.428016 
1291.000000	96.428591 
1290.000000	96.423558 
1289.000000	96.415309 
1288.000000	96.407912 
1287.000000	96.403015 
1286.000000	96.399238 
1285.000000	96.395896 
1284.000000	96.395176 
1283.000000	96.398926 
1282.000000	96.404953 
1281.000000	96.408476 
1280.000000	96.407244 
1279.000000	96.403795 
1278.000000	96.402728 
1277.000000	96.406572 
1276.000000	96.413843 
1275.000000	96.420450 
1274.000000	96.423126 
1273.000000	96.422182 
1272.000000	96.420509 
1271.000000	96.419643 
1270.000000	96.418130 
1269.000000	96.414590 
1268.000000	96.410741 
1267.000000	96.409156 
1266.000000	96.409318 
1265.000000	96.408919 
1264.000000	96.408297 
1263.000000	96.410348 
1262.000000	96.415824 
1261.000000	96.421410 
1260.000000	96.424042 
1259.000000	96.424865 
1258.000000	96.426812 
1257.000000	96.429731 
1256.000000	96.430096 
1255.000000	96.425819 
1254.000000	96.419843 
1253.000000	96.417567 
1252.000000	96.420861 
1251.000000	96.425940 
1250.000000	96.427644 
1249.000000	96.424804 
1248.000000	96.420590 
1247.000000	96.418329 
1246.000000	96.418624 
1245.000000	96.420517 
1244.000000	96.423202 
1243.000000	96.425765 
1242.000000	96.427114 
1241.000000	96.427331 
1240.000000	96.427740 
1239.000000	96.428581 
1238.000000	96.428008 
1237.000000	96.424648 
1236.000000	96.419981 
1235.000000	96.416808 
1234.000000	96.416148 
1233.000000	96.416744 
1232.000000	96.416700 
1231.000000	96.414325 
1230.000000	96.408503 
1229.000000	96.399474 
1228.000000	96.388019 
1227.000000	96.372601 
1226.000000	96.348785 
1225.000000	96.313262 
1224.000000	96.267501 
1223.000000	96.215679 
1222.000000	96.159858 
1221.000000	96.099315 
1220.000000	96.034172 
1219.000000	95.967030 
1218.000000	95.900098 
1217.000000	95.832234 
1216.000000	95.759388 
1215.000000	95.677272 
1214.000000	95.584470 
1213.000000	95.484676 
1212.000000	95.384786 
1211.000000	95.288117 
1210.000000	95.190268 
1209.000000	95.084542 
1208.000000	94.970553 
1207.000000	94.853953 
1206.000000	94.738310 
1205.000000	94.621735 
1204.000000	94.502078 
1203.000000	94.380861 
1202.000000	94.260525 
1201.000000	94.140985 
1200.000000	94.020651 
1199.000000	93.898525 
1198.000000	93.774152 
1197.000000	93.647926 
1196.000000	93.521969 
1195.000000	93.398348 
1194.000000	93.276059 
1193.000000	93.151940 
1192.000000	93.024334 
1191.000000	92.893447 
1190.000000	92.759031 
1189.000000	92.620826 
1188.000000	92.480388 
1187.000000	92.339197 
1186.000000	92.196170 
1185.000000	92.050413 
1184.000000	91.904224 
1183.000000	91.759050 
1182.000000	91.611127 
1181.000000	91.456697 
1180.000000	91.298854 
1179.000000	91.142177 
1178.000000	90.982570 
1177.000000	90.810778 
1176.000000	90.625050 
1175.000000	90.431908 
1174.000000	90.234831 
1173.000000	90.031338 
1172.000000	89.821884 
1171.000000	89.611586 
1170.000000	89.401342 
1169.000000	89.187368 
1168.000000	88.972633 
1167.000000	88.769810 
1166.000000	88.590720 
1165.000000	88.443149 
1164.000000	88.340529 
1163.000000	88.301761 
1162.000000	88.333351 
1161.000000	88.417713 
1160.000000	88.522239 
1159.000000	88.613751 
1158.000000	88.664676 
1157.000000	88.657552 
1156.000000	88.590662 
1155.000000	88.475105 
1154.000000	88.323843 
1153.000000	88.147410 
1152.000000	87.958572 
1151.000000	87.770632 
1150.000000	87.587602 
1149.000000	87.404309 
1148.000000	87.218727 
1147.000000	87.035401 
1146.000000	86.854874 
1145.000000	86.670412 
1144.000000	86.478883 
1143.000000	86.285169 
1142.000000	86.092198 
1141.000000	85.896291 
1140.000000	85.695879 
1139.000000	85.495041 
1138.000000	85.295049 
1137.000000	85.092076 
1136.000000	84.885780 
1135.000000	84.679594 
1134.000000	84.470308 
1133.000000	84.249409 
1132.000000	84.017636 
1131.000000	83.785739 
1130.000000	83.557358 
1129.000000	83.324190 
1128.000000	83.082116 
1127.000000	82.838245 
1126.000000	82.596663 
1125.000000	82.350821 
1124.000000	82.096389 
1123.000000	81.839120 
1122.000000	81.583851 
1121.000000	81.327964 
1120.000000	81.071451 
1119.000000	80.821063 
1118.000000	80.579324 
1117.000000	80.342306 
1116.000000	80.112079 
1115.000000	79.897349 
1114.000000	79.698284 
1113.000000	79.505716 
1112.000000	79.318132 
1111.000000	79.142435 
1110.000000	78.974879 
1109.000000	78.799974 
1108.000000	78.612121 
1107.000000	78.420042 
1106.000000	78.226783 
1105.000000	78.024918 
1104.000000	77.815613 
1103.000000	77.611895 
1102.000000	77.416514 
1101.000000	77.216785 
1100.000000	77.006531 
1099.000000	76.794692 
1098.000000	76.587582 
1097.000000	76.381297 
1096.000000	76.176956 
1095.000000	75.982831 
1094.000000	75.796585 
1093.000000	75.605801 
1092.000000	75.410813 
1091.000000	75.226324 
1090.000000	75.056667 
1089.000000	74.891048 
1088.000000	74.726265 
1087.000000	74.570552 
1086.000000	74.421602 
1085.000000	74.265809 
1084.000000	74.103779 
1083.000000	73.951236 
1082.000000	73.809636 
1081.000000	73.661572 
1080.000000	73.500817 
1079.000000	73.340511 
1078.000000	73.185195 
1077.000000	73.020826 
1076.000000	72.839246 
1075.000000	72.646112 
1074.000000	72.438024 
1073.000000	72.198734 
1072.000000	71.925029 
1071.000000	71.629864 
1070.000000	71.313329 
1069.000000	70.957937 
1068.000000	70.560704 
1067.000000	70.142808 
1066.000000	69.719168 
1065.000000	69.285476 
1064.000000	68.843914 
1063.000000	68.411899 
1062.000000	67.993533 
1061.000000	67.569991 
1060.000000	67.129617 
1059.000000	66.681198 
1058.000000	66.228776 
1057.000000	65.761413 
1056.000000	65.277106 
1055.000000	64.787834 
1054.000000	64.290783 
1053.000000	63.763816 
1052.000000	63.201381 
1051.000000	62.624885 
1050.000000	62.044926 
1049.000000	61.447171 
1048.000000	60.827890 
1047.000000	60.205269 
1046.000000	59.584780 
1045.000000	58.951442 
1044.000000	58.305028 
1043.000000	57.666359 
1042.000000	57.040228 
1041.000000	56.408036 
1040.000000	55.766791 
1039.000000	55.139043 
1038.000000	54.534035 
1037.000000	53.936695 
1036.000000	53.345353 
1035.000000	52.781153 
1034.000000	52.249198 
1033.000000	51.730785 
1032.000000	51.225586 
1031.000000	50.760224 
1030.000000	50.342700 
1029.000000	49.949913 
1028.000000	49.572417 
1027.000000	49.228888 
1026.000000	48.922785 
1025.000000	48.627704 
1024.000000	48.329915 
1023.000000	48.043873 
1022.000000	47.772438 
1021.000000	47.494518 
1020.000000	47.205314 
1019.000000	46.926217 
1018.000000	46.661740 
1017.000000	46.389275 
1016.000000	46.103579 
1015.000000	45.827896 
1014.000000	45.568716 
1013.000000	45.303937 
1012.000000	45.028295 
1011.000000	44.765549 
1010.000000	44.522619 
1009.000000	44.277616 
1008.000000	44.027506 
1007.000000	43.802211 
1006.000000	43.616369 
1005.000000	43.451251 
1004.000000	43.297418 
1003.000000	43.170315 
1002.000000	43.070578 
1001.000000	42.975648 
1000.000000	42.885268 
999.000000	 42.828997 
998.000000	 42.813625 
997.000000	 42.808652 
996.000000	 42.798325 
995.000000	 42.802812 
994.000000	 42.833060 
993.000000	 42.870891 
992.000000	 42.909121 
991.000000	 42.965946 
990.000000	 43.043704 
989.000000	 43.118305 
988.000000	 43.185421 
987.000000	 43.273288 
986.000000	 43.394767 
985.000000	 43.531060 
984.000000	 43.676718 
983.000000	 43.855136 
982.000000	 44.073490 
981.000000	 44.307184 
980.000000	 44.545413 
979.000000	 44.809033 
978.000000	 45.107471 
977.000000	 45.421853 
976.000000	 45.746995 
975.000000	 46.106900 
974.000000	 46.510955 
973.000000	 46.935548 
972.000000	 47.365628 
971.000000	 47.815522 
970.000000	 48.292999 
969.000000	 48.781698 
968.000000	 49.274306 
967.000000	 49.785573 
966.000000	 50.317894 
965.000000	 50.850466 
964.000000	 51.375779 
963.000000	 51.911121 
962.000000	 52.461781 
961.000000	 53.008243 
960.000000	 53.541021 
959.000000	 54.072827 
958.000000	 54.605532 
957.000000	 55.120568 
956.000000	 55.613248 
955.000000	 56.102267 
954.000000	 56.594330 
953.000000	 57.072104 
952.000000	 57.526067 
951.000000	 57.964443 
950.000000	 58.383856 
949.000000	 58.765443 
948.000000	 59.109324 
947.000000	 59.438572 
946.000000	 59.759533 
945.000000	 60.052118 
944.000000	 60.308636 
943.000000	 60.547336 
942.000000	 60.777401 
941.000000	 60.985570 
940.000000	 61.170188 
939.000000	 61.354444 
938.000000	 61.551419 
937.000000	 61.746864 
936.000000	 61.929878 
935.000000	 62.110560 
934.000000	 62.295588 
933.000000	 62.476362 
932.000000	 62.652721 
931.000000	 62.838773 
930.000000	 63.034606 
929.000000	 63.221464 
928.000000	 63.393789 
927.000000	 63.565599 
926.000000	 63.736980 
925.000000	 63.886599 
924.000000	 64.007082 
923.000000	 64.115886 
922.000000	 64.221143 
921.000000	 64.308942 
920.000000	 64.375257 
919.000000	 64.438116 
918.000000	 64.505896 
917.000000	 64.565161 
916.000000	 64.613208 
915.000000	 64.673182 
914.000000	 64.764694 
913.000000	 64.888491 
912.000000	 65.050701 
911.000000	 65.271488 
910.000000	 65.557586 
909.000000	 65.894933 
908.000000	 66.278023 
907.000000	 66.717608 
906.000000	 67.212118 
905.000000	 67.742398 
904.000000	 68.301231 
903.000000	 68.896374 
902.000000	 69.518496 
901.000000	 70.138863 
900.000000	 70.745719 
899.000000	 71.352119 
898.000000	 71.962610 
897.000000	 72.563034 
896.000000	 73.147202 
895.000000	 73.722130 
894.000000	 74.282550 
893.000000	 74.811570 
892.000000	 75.311132 
891.000000	 75.801434 
890.000000	 76.285897 
889.000000	 76.746705 
888.000000	 77.178977 
887.000000	 77.598852 
886.000000	 78.013503 
885.000000	 78.413644 
884.000000	 78.800017 
883.000000	 79.186022 
882.000000	 79.569948 
881.000000	 79.937779 
880.000000	 80.298933 
879.000000	 80.684241 
878.000000	 81.099937 
877.000000	 81.517699 
876.000000	 81.919119 
875.000000	 82.316041 
874.000000	 82.719293 
873.000000	 83.122790 
872.000000	 83.528323 
871.000000	 83.952286 
870.000000	 84.396942 
869.000000	 84.844122 
868.000000	 85.284409 
867.000000	 85.723991 
866.000000	 86.158210 
865.000000	 86.569033 
864.000000	 86.955884 
863.000000	 87.340791 
862.000000	 87.734893 
861.000000	 88.125623 
860.000000	 88.503538 
859.000000	 88.874249 
858.000000	 89.236034 
857.000000	 89.572980 
856.000000	 89.880426 
855.000000	 90.172807 
854.000000	 90.456509 
853.000000	 90.718099 
852.000000	 90.949842 
851.000000	 91.164654 
850.000000	 91.374503 
849.000000	 91.573012 
848.000000	 91.748985 
847.000000	 91.899206 
846.000000	 92.020655 
845.000000	 92.108719 
844.000000	 92.169712 
843.000000	 92.216452 
842.000000	 92.245613 
841.000000	 92.238716 
840.000000	 92.190181 
839.000000	 92.113756 
838.000000	 92.017473 
837.000000	 91.896145 
836.000000	 91.756104 
835.000000	 91.623046 
834.000000	 91.513492 
833.000000	 91.419575 
832.000000	 91.333743 
831.000000	 91.267687 
830.000000	 91.234095 
829.000000	 91.229576 
828.000000	 91.249802 
827.000000	 91.303270 
826.000000	 91.396185 
825.000000	 91.520522 
824.000000	 91.666991 
823.000000	 91.830332 
822.000000	 91.995499 
821.000000	 92.142190 
820.000000	 92.267554 
819.000000	 92.381596 
818.000000	 92.478898 
817.000000	 92.537688 
816.000000	 92.548348 
815.000000	 92.519783 
814.000000	 92.452608 
813.000000	 92.326617 
812.000000	 92.120073 
811.000000	 91.821034 
810.000000	 91.414230 
809.000000	 90.879012 
808.000000	 90.210914 
807.000000	 89.429026 
806.000000	 88.555424 
805.000000	 87.606277 
804.000000	 86.611173 
803.000000	 85.619864 
802.000000	 84.679892 
801.000000	 83.828365 
800.000000	 83.110814 
799.000000	 82.576791 
798.000000	 82.243025 
797.000000	 82.086461 
796.000000	 82.080331 
795.000000	 82.206526 
794.000000	 82.428430 
793.000000	 82.690518 
792.000000	 82.957320 
791.000000	 83.221722 
790.000000	 83.468002 
789.000000	 83.660129 
788.000000	 83.774609 
787.000000	 83.812684 
786.000000	 83.771930 
785.000000	 83.637556 
784.000000	 83.411357 
783.000000	 83.119623 
782.000000	 82.785319 
781.000000	 82.425810 
780.000000	 82.087122 
779.000000	 81.842880 
778.000000	 81.741257 
777.000000	 81.780502 
776.000000	 81.943658 
775.000000	 82.219761 
774.000000	 82.578893 
773.000000	 82.966672 
772.000000	 83.344667 
771.000000	 83.708562 
770.000000	 84.055113 
769.000000	 84.363423 
768.000000	 84.621349 
767.000000	 84.838077 
766.000000	 85.016376 
765.000000	 85.143238 
764.000000	 85.222695 
763.000000	 85.287847 
762.000000	 85.364064 
761.000000	 85.447405 
760.000000	 85.532831 
759.000000	 85.633372 
758.000000	 85.755558 
757.000000	 85.886048 
756.000000	 86.019998 
755.000000	 86.174009 
754.000000	 86.352965 
753.000000	 86.531117 
752.000000	 86.684390 
751.000000	 86.818166 
750.000000	 86.948737 
749.000000	 87.082186 
748.000000	 87.225765 
747.000000	 87.393902 
746.000000	 87.586660 
745.000000	 87.786614 
744.000000	 87.992390 
743.000000	 88.229688 
742.000000	 88.512401 
741.000000	 88.818090 
740.000000	 89.118789 
739.000000	 89.411933 
738.000000	 89.704746 
737.000000	 89.992136 
736.000000	 90.267652 
735.000000	 90.535238 
734.000000	 90.793306 
733.000000	 91.025901 
732.000000	 91.223345 
731.000000	 91.393635 
730.000000	 91.541974 
729.000000	 91.658082 
728.000000	 91.739412 
727.000000	 91.806918 
726.000000	 91.882436 
725.000000	 91.970020 
724.000000	 92.068299 
723.000000	 92.179602 
722.000000	 92.299193 
721.000000	 92.418849 
720.000000	 92.549678 
719.000000	 92.714117 
718.000000	 92.907622 
717.000000	 93.098482 
716.000000	 93.268079 
715.000000	 93.421489 
714.000000	 93.554823 
713.000000	 93.645190 
712.000000	 93.687947 
711.000000	 93.712233 
710.000000	 93.741321 
709.000000	 93.766325 
708.000000	 93.772348 
707.000000	 93.763804 
706.000000	 93.742096 
705.000000	 93.688447 
704.000000	 93.589947 
703.000000	 93.451696 
702.000000	 93.266357 
701.000000	 92.997559 
700.000000	 92.612244 
699.000000	 92.114873 
698.000000	 91.539807 
697.000000	 90.944827 
696.000000	 90.424812 
695.000000	 90.084473 
694.000000	 89.971963 
693.000000	 90.054347 
692.000000	 90.265739 
691.000000	 90.556242 
690.000000	 90.880801 
689.000000	 91.185638 
688.000000	 91.439753 
687.000000	 91.654441 
686.000000	 91.851501 
685.000000	 92.034522 
684.000000	 92.206480 
683.000000	 92.384896 
682.000000	 92.575264 
681.000000	 92.757744 
680.000000	 92.916547 
679.000000	 93.064011 
678.000000	 93.213033 
677.000000	 93.357286 
676.000000	 93.506990 
675.000000	 93.686149 
674.000000	 93.888482 
673.000000	 94.079975 
672.000000	 94.250704 
671.000000	 94.452440 
670.000000	 94.759465 
669.000000	 95.197977 
668.000000	 95.567784 
667.000000	 95.642021 
666.000000	 95.564716 
665.000000	 95.515835 
664.000000	 95.518877 
663.000000	 95.580471 
662.000000	 95.694294 
661.000000	 95.821874 
660.000000	 95.947074 
659.000000	 96.094209 
658.000000	 96.262153 
657.000000	 96.392094 
656.000000	 96.449240 
655.000000	 96.454941 
654.000000	 96.430917 
653.000000	 96.377695 
652.000000	 96.324872 
651.000000	 96.329928 
650.000000	 96.391219 

