4000.000000	96.539531 
3999.000000	96.538435 
3998.000000	96.537293 
3997.000000	96.535760 
3996.000000	96.534140 
3995.000000	96.533298 
3994.000000	96.533847 
3993.000000	96.535514 
3992.000000	96.537155 
3991.000000	96.537882 
3990.000000	96.537855 
3989.000000	96.537793 
3988.000000	96.537973 
3987.000000	96.538118 
3986.000000	96.538222 
3985.000000	96.538795 
3984.000000	96.540001 
3983.000000	96.541073 
3982.000000	96.541166 
3981.000000	96.540307 
3980.000000	96.539098 
3979.000000	96.537763 
3978.000000	96.536106 
3977.000000	96.534313 
3976.000000	96.533121 
3975.000000	96.532879 
3974.000000	96.533040 
3973.000000	96.532752 
3972.000000	96.531629 
3971.000000	96.529878 
3970.000000	96.528028 
3969.000000	96.526708 
3968.000000	96.526266 
3967.000000	96.526502 
3966.000000	96.526847 
3965.000000	96.526765 
3964.000000	96.525996 
3963.000000	96.524594 
3962.000000	96.522945 
3961.000000	96.521628 
3960.000000	96.520908 
3959.000000	96.520475 
3958.000000	96.519809 
3957.000000	96.518825 
3956.000000	96.517811 
3955.000000	96.516996 
3954.000000	96.516420 
3953.000000	96.516003 
3952.000000	96.515594 
3951.000000	96.514936 
3950.000000	96.513846 
3949.000000	96.512392 
3948.000000	96.510847 
3947.000000	96.509548 
3946.000000	96.508619 
3945.000000	96.507781 
3944.000000	96.506538 
3943.000000	96.504769 
3942.000000	96.503018 
3941.000000	96.501938 
3940.000000	96.501558 
3939.000000	96.501338 
3938.000000	96.500836 
3937.000000	96.500338 
3936.000000	96.500208 
3935.000000	96.499945 
3934.000000	96.498642 
3933.000000	96.496282 
3932.000000	96.494130 
3931.000000	96.493149 
3930.000000	96.493148 
3929.000000	96.493734 
3928.000000	96.494874 
3927.000000	96.496182 
3926.000000	96.496398 
3925.000000	96.494974 
3924.000000	96.493237 
3923.000000	96.492587 
3922.000000	96.492521 
3921.000000	96.491790 
3920.000000	96.490466 
3919.000000	96.489708 
3918.000000	96.489664 
3917.000000	96.489436 
3916.000000	96.488834 
3915.000000	96.488704 
3914.000000	96.489268 
3913.000000	96.489838 
3912.000000	96.489858 
3911.000000	96.489634 
3910.000000	96.489410 
3909.000000	96.489161 
3908.000000	96.488766 
3907.000000	96.488121 
3906.000000	96.486830 
3905.000000	96.484447 
3904.000000	96.481367 
3903.000000	96.478719 
3902.000000	96.477241 
3901.000000	96.476777 
3900.000000	96.476764 
3899.000000	96.476881 
3898.000000	96.477002 
3897.000000	96.476931 
3896.000000	96.476570 
3895.000000	96.476090 
3894.000000	96.475629 
3893.000000	96.475140 
3892.000000	96.474476 
3891.000000	96.473685 
3890.000000	96.472911 
3889.000000	96.472206 
3888.000000	96.471530 
3887.000000	96.470869 
3886.000000	96.470223 
3885.000000	96.469598 
3884.000000	96.468998 
3883.000000	96.468413 
3882.000000	96.467830 
3881.000000	96.467247 
3880.000000	96.466671 
3879.000000	96.466111 
3878.000000	96.465565 
3877.000000	96.465024 
3876.000000	96.464482 
3875.000000	96.463942 
3874.000000	96.463414 
3873.000000	96.462908 
3872.000000	96.462423 
3871.000000	96.461952 
3870.000000	96.461502 
3869.000000	96.461093 
3868.000000	96.460738 
3867.000000	96.460425 
3866.000000	96.460135 
3865.000000	96.459869 
3864.000000	96.459639 
3863.000000	96.459444 
3862.000000	96.459266 
3861.000000	96.459092 
3860.000000	96.458919 
3859.000000	96.458749 
3858.000000	96.458579 
3857.000000	96.458415 
3856.000000	96.458272 
3855.000000	96.458159 
3854.000000	96.458080 
3853.000000	96.458044 
3852.000000	96.458056 
3851.000000	96.458121 
3850.000000	96.458237 
3849.000000	96.458398 
3848.000000	96.458590 
3847.000000	96.458787 
3846.000000	96.458960 
3845.000000	96.459086 
3844.000000	96.459160 
3843.000000	96.459191 
3842.000000	96.459197 
3841.000000	96.459203 
3840.000000	96.459235 
3839.000000	96.459313 
3838.000000	96.459446 
3837.000000	96.459618 
3836.000000	96.459813 
3835.000000	96.460029 
3834.000000	96.460274 
3833.000000	96.460543 
3832.000000	96.460818 
3831.000000	96.461091 
3830.000000	96.461362 
3829.000000	96.461636 
3828.000000	96.461906 
3827.000000	96.462154 
3826.000000	96.462370 
3825.000000	96.462582 
3824.000000	96.462808 
3823.000000	96.463038 
3822.000000	96.463261 
3821.000000	96.463497 
3820.000000	96.463773 
3819.000000	96.464092 
3818.000000	96.464439 
3817.000000	96.464790 
3816.000000	96.465138 
3815.000000	96.465492 
3814.000000	96.465846 
3813.000000	96.466171 
3812.000000	96.466448 
3811.000000	96.466685 
3810.000000	96.466928 
3809.000000	96.467208 
3808.000000	96.467463 
3807.000000	96.467568 
3806.000000	96.467486 
3805.000000	96.467374 
3804.000000	96.467351 
3803.000000	96.467333 
3802.000000	96.467259 
3801.000000	96.467507 
3800.000000	96.468315 
3799.000000	96.469245 
3798.000000	96.469770 
3797.000000	96.469928 
3796.000000	96.470299 
3795.000000	96.471252 
3794.000000	96.472389 
3793.000000	96.472942 
3792.000000	96.472793 
3791.000000	96.472634 
3790.000000	96.472844 
3789.000000	96.472971 
3788.000000	96.472620 
3787.000000	96.472078 
3786.000000	96.471626 
3785.000000	96.470977 
3784.000000	96.470038 
3783.000000	96.469421 
3782.000000	96.469289 
3781.000000	96.468962 
3780.000000	96.468148 
3779.000000	96.467923 
3778.000000	96.469068 
3777.000000	96.470534 
3776.000000	96.470225 
3775.000000	96.467452 
3774.000000	96.463943 
3773.000000	96.461989 
3772.000000	96.461404 
3771.000000	96.460160 
3770.000000	96.457957 
3769.000000	96.456768 
3768.000000	96.457355 
3767.000000	96.457999 
3766.000000	96.456695 
3765.000000	96.453782 
3764.000000	96.451700 
3763.000000	96.451613 
3762.000000	96.451717 
3761.000000	96.450126 
3760.000000	96.447653 
3759.000000	96.445922 
3758.000000	96.443554 
3757.000000	96.438876 
3756.000000	96.433083 
3755.000000	96.428105 
3754.000000	96.423976 
3753.000000	96.420090 
3752.000000	96.418273 
3751.000000	96.419695 
3750.000000	96.420561 
3749.000000	96.418019 
3748.000000	96.415505 
3747.000000	96.416807 
3746.000000	96.419750 
3745.000000	96.419376 
3744.000000	96.417470 
3743.000000	96.417931 
3742.000000	96.419027 
3741.000000	96.417720 
3740.000000	96.414688 
3739.000000	96.413587 
3738.000000	96.415065 
3737.000000	96.415268 
3736.000000	96.412480 
3735.000000	96.410510 
3734.000000	96.412470 
3733.000000	96.415811 
3732.000000	96.416872 
3731.000000	96.415792 
3730.000000	96.414677 
3729.000000	96.414143 
3728.000000	96.412814 
3727.000000	96.409884 
3726.000000	96.406942 
3725.000000	96.405556 
3724.000000	96.405228 
3723.000000	96.405105 
3722.000000	96.405495 
3721.000000	96.406446 
3720.000000	96.406715 
3719.000000	96.405454 
3718.000000	96.402490 
3717.000000	96.398611 
3716.000000	96.395147 
3715.000000	96.392044 
3714.000000	96.388086 
3713.000000	96.383437 
3712.000000	96.380721 
3711.000000	96.381558 
3710.000000	96.383846 
3709.000000	96.384748 
3708.000000	96.382756 
3707.000000	96.377690 
3706.000000	96.370993 
3705.000000	96.364965 
3704.000000	96.361109 
3703.000000	96.359104 
3702.000000	96.356980 
3701.000000	96.352669 
3700.000000	96.346078 
3699.000000	96.338951 
3698.000000	96.331764 
3697.000000	96.323715 
3696.000000	96.316166 
3695.000000	96.310750 
3694.000000	96.305664 
3693.000000	96.298661 
3692.000000	96.291830 
3691.000000	96.289943 
3690.000000	96.293145 
3689.000000	96.296325 
3688.000000	96.295777 
3687.000000	96.292597 
3686.000000	96.288284 
3685.000000	96.281277 
3684.000000	96.271312 
3683.000000	96.262916 
3682.000000	96.259289 
3681.000000	96.254934 
3680.000000	96.243087 
3679.000000	96.226585 
3678.000000	96.214283 
3677.000000	96.205007 
3676.000000	96.191348 
3675.000000	96.176269 
3674.000000	96.166184 
3673.000000	96.160606 
3672.000000	96.153753 
3671.000000	96.142414 
3670.000000	96.133639 
3669.000000	96.133343 
3668.000000	96.134327 
3667.000000	96.129180 
3666.000000	96.120229 
3665.000000	96.113123 
3664.000000	96.109450 
3663.000000	96.105920 
3662.000000	96.097609 
3661.000000	96.082544 
3660.000000	96.064137 
3659.000000	96.046915 
3658.000000	96.031640 
3657.000000	96.013798 
3656.000000	95.991813 
3655.000000	95.970588 
3654.000000	95.954763 
3653.000000	95.942752 
3652.000000	95.927591 
3651.000000	95.905742 
3650.000000	95.883576 
3649.000000	95.867320 
3648.000000	95.854566 
3647.000000	95.843473 
3646.000000	95.836584 
3645.000000	95.834733 
3644.000000	95.834688 
3643.000000	95.833185 
3642.000000	95.829828 
3641.000000	95.826212 
3640.000000	95.821564 
3639.000000	95.812438 
3638.000000	95.798392 
3637.000000	95.783027 
3636.000000	95.768466 
3635.000000	95.751615 
3634.000000	95.731043 
3633.000000	95.712119 
3632.000000	95.699855 
3631.000000	95.688589 
3630.000000	95.666584 
3629.000000	95.637940 
3628.000000	95.619781 
3627.000000	95.616385 
3626.000000	95.619637 
3625.000000	95.623748 
3624.000000	95.629088 
3623.000000	95.637347 
3622.000000	95.644944 
3621.000000	95.643875 
3620.000000	95.631251 
3619.000000	95.613619 
3618.000000	95.598754 
3617.000000	95.590558 
3616.000000	95.591126 
3615.000000	95.599505 
3614.000000	95.612186 
3613.000000	95.626288 
3612.000000	95.639750 
3611.000000	95.649226 
3610.000000	95.651472 
3609.000000	95.647826 
3608.000000	95.644681 
3607.000000	95.647090 
3606.000000	95.654350 
3605.000000	95.664225 
3604.000000	95.676577 
3603.000000	95.691345 
3602.000000	95.705871 
3601.000000	95.715407 
3600.000000	95.718158 
3599.000000	95.715794 
3598.000000	95.711123 
3597.000000	95.707226 
3596.000000	95.707185 
3595.000000	95.710193 
3594.000000	95.712538 
3593.000000	95.711468 
3592.000000	95.707621 
3591.000000	95.703598 
3590.000000	95.699834 
3589.000000	95.694401 
3588.000000	95.687692 
3587.000000	95.683614 
3586.000000	95.684473 
3585.000000	95.689431 
3584.000000	95.697021 
3583.000000	95.705547 
3582.000000	95.712774 
3581.000000	95.716056 
3580.000000	95.714204 
3579.000000	95.708235 
3578.000000	95.700637 
3577.000000	95.693954 
3576.000000	95.689487 
3575.000000	95.686797 
3574.000000	95.684281 
3573.000000	95.681201 
3572.000000	95.678232 
3571.000000	95.676480 
3570.000000	95.674837 
3569.000000	95.669334 
3568.000000	95.657916 
3567.000000	95.644798 
3566.000000	95.635748 
3565.000000	95.631937 
3564.000000	95.631249 
3563.000000	95.631727 
3562.000000	95.632850 
3561.000000	95.634879 
3560.000000	95.637560 
3559.000000	95.640012 
3558.000000	95.641260 
3557.000000	95.640901 
3556.000000	95.639081 
3555.000000	95.636242 
3554.000000	95.632887 
3553.000000	95.629741 
3552.000000	95.627540 
3551.000000	95.626362 
3550.000000	95.625783 
3549.000000	95.625661 
3548.000000	95.626118 
3547.000000	95.626379 
3546.000000	95.624353 
3545.000000	95.618981 
3544.000000	95.612600 
3543.000000	95.609055 
3542.000000	95.609641 
3541.000000	95.612595 
3540.000000	95.615829 
3539.000000	95.618871 
3538.000000	95.622190 
3537.000000	95.625953 
3536.000000	95.629883 
3535.000000	95.632999 
3534.000000	95.633984 
3533.000000	95.632337 
3532.000000	95.629652 
3531.000000	95.628554 
3530.000000	95.629792 
3529.000000	95.631218 
3528.000000	95.630291 
3527.000000	95.627009 
3526.000000	95.623541 
3525.000000	95.621917 
3524.000000	95.622921 
3523.000000	95.626551 
3522.000000	95.632168 
3521.000000	95.638519 
3520.000000	95.644303 
3519.000000	95.648701 
3518.000000	95.651455 
3517.000000	95.652466 
3516.000000	95.651763 
3515.000000	95.649924 
3514.000000	95.648436 
3513.000000	95.648728 
3512.000000	95.650639 
3511.000000	95.652363 
3510.000000	95.652256 
3509.000000	95.650494 
3508.000000	95.648847 
3507.000000	95.648853 
3506.000000	95.650304 
3505.000000	95.651520 
3504.000000	95.651031 
3503.000000	95.648894 
3502.000000	95.646522 
3501.000000	95.645330 
3500.000000	95.645559 
3499.000000	95.646230 
3498.000000	95.646164 
3497.000000	95.645276 
3496.000000	95.644692 
3495.000000	95.645526 
3494.000000	95.647805 
3493.000000	95.650527 
3492.000000	95.652365 
3491.000000	95.652410 
3490.000000	95.650891 
3489.000000	95.649197 
3488.000000	95.648654 
3487.000000	95.649160 
3486.000000	95.649443 
3485.000000	95.648832 
3484.000000	95.648127 
3483.000000	95.648403 
3482.000000	95.649664 
3481.000000	95.651080 
3480.000000	95.652051 
3479.000000	95.652413 
3478.000000	95.651931 
3477.000000	95.650328 
3476.000000	95.647837 
3475.000000	95.645357 
3474.000000	95.644004 
3473.000000	95.644690 
3472.000000	95.647679 
3471.000000	95.652107 
3470.000000	95.656302 
3469.000000	95.658931 
3468.000000	95.659656 
3467.000000	95.658927 
3466.000000	95.657590 
3465.000000	95.656557 
3464.000000	95.656148 
3463.000000	95.655418 
3462.000000	95.652774 
3461.000000	95.647709 
3460.000000	95.641592 
3459.000000	95.636252 
3458.000000	95.632178 
3457.000000	95.628578 
3456.000000	95.624798 
3455.000000	95.620969 
3454.000000	95.617528 
3453.000000	95.614727 
3452.000000	95.613143 
3451.000000	95.613717 
3450.000000	95.616417 
3449.000000	95.619147 
3448.000000	95.618894 
3447.000000	95.614389 
3446.000000	95.607140 
3445.000000	95.600001 
3444.000000	95.594838 
3443.000000	95.591667 
3442.000000	95.589428 
3441.000000	95.587099 
3440.000000	95.584231 
3439.000000	95.580747 
3438.000000	95.576582 
3437.000000	95.571630 
3436.000000	95.566215 
3435.000000	95.561361 
3434.000000	95.558219 
3433.000000	95.556989 
3432.000000	95.556869 
3431.000000	95.556944 
3430.000000	95.556797 
3429.000000	95.556416 
3428.000000	95.555617 
3427.000000	95.553888 
3426.000000	95.550992 
3425.000000	95.547741 
3424.000000	95.545436 
3423.000000	95.543995 
3422.000000	95.541363 
3421.000000	95.535764 
3420.000000	95.528134 
3419.000000	95.521171 
3418.000000	95.516241 
3417.000000	95.512490 
3416.000000	95.508862 
3415.000000	95.505314 
3414.000000	95.501629 
3413.000000	95.496582 
3412.000000	95.489419 
3411.000000	95.481400 
3410.000000	95.474885 
3409.000000	95.471281 
3408.000000	95.470461 
3407.000000	95.471611 
3406.000000	95.474135 
3405.000000	95.478042 
3404.000000	95.483565 
3403.000000	95.490003 
3402.000000	95.495251 
3401.000000	95.497306 
3400.000000	95.496528 
3399.000000	95.495520 
3398.000000	95.496481 
3397.000000	95.499296 
3396.000000	95.502399 
3395.000000	95.504780 
3394.000000	95.506463 
3393.000000	95.507576 
3392.000000	95.507930 
3391.000000	95.507659 
3390.000000	95.507639 
3389.000000	95.508835 
3388.000000	95.511406 
3387.000000	95.514534 
3386.000000	95.516885 
3385.000000	95.517172 
3384.000000	95.514780 
3383.000000	95.510532 
3382.000000	95.506897 
3381.000000	95.506433 
3380.000000	95.509502 
3379.000000	95.513864 
3378.000000	95.517078 
3377.000000	95.519104 
3376.000000	95.521576 
3375.000000	95.524956 
3374.000000	95.527720 
3373.000000	95.528605 
3372.000000	95.528539 
3371.000000	95.529644 
3370.000000	95.532821 
3369.000000	95.537031 
3368.000000	95.540620 
3367.000000	95.542844 
3366.000000	95.544021 
3365.000000	95.544755 
3364.000000	95.545332 
3363.000000	95.545697 
3362.000000	95.545755 
3361.000000	95.545645 
3360.000000	95.545812 
3359.000000	95.546808 
3358.000000	95.548907 
3357.000000	95.551827 
3356.000000	95.554832 
3355.000000	95.557250 
3354.000000	95.559002 
3353.000000	95.560607 
3352.000000	95.562614 
3351.000000	95.565032 
3350.000000	95.567380 
3349.000000	95.569226 
3348.000000	95.570628 
3347.000000	95.572086 
3346.000000	95.574130 
3345.000000	95.576877 
3344.000000	95.579881 
3343.000000	95.582473 
3342.000000	95.584401 
3341.000000	95.586072 
3340.000000	95.587978 
3339.000000	95.589934 
3338.000000	95.591219 
3337.000000	95.591484 
3336.000000	95.591267 
3335.000000	95.591581 
3334.000000	95.593069 
3333.000000	95.595618 
3332.000000	95.598631 
3331.000000	95.601516 
3330.000000	95.603985 
3329.000000	95.606049 
3328.000000	95.607824 
3327.000000	95.609330 
3326.000000	95.610465 
3325.000000	95.611098 
3324.000000	95.611207 
3323.000000	95.611004 
3322.000000	95.610963 
3321.000000	95.611643 
3320.000000	95.613256 
3319.000000	95.615415 
3318.000000	95.617471 
3317.000000	95.619136 
3316.000000	95.620601 
3315.000000	95.622042 
3314.000000	95.623264 
3313.000000	95.623977 
3312.000000	95.624287 
3311.000000	95.624767 
3310.000000	95.626060 
3309.000000	95.628400 
3308.000000	95.631327 
3307.000000	95.633802 
3306.000000	95.634891 
3305.000000	95.634524 
3304.000000	95.633601 
3303.000000	95.633271 
3302.000000	95.633986 
3301.000000	95.635270 
3300.000000	95.636169 
3299.000000	95.635912 
3298.000000	95.634444 
3297.000000	95.632680 
3296.000000	95.632092 
3295.000000	95.633696 
3294.000000	95.637365 
3293.000000	95.641997 
3292.000000	95.646290 
3291.000000	95.649461 
3290.000000	95.651434 
3289.000000	95.652649 
3288.000000	95.653682 
3287.000000	95.654755 
3286.000000	95.655523 
3285.000000	95.655440 
3284.000000	95.654415 
3283.000000	95.653151 
3282.000000	95.652818 
3281.000000	95.654232 
3280.000000	95.657223 
3279.000000	95.660716 
3278.000000	95.663636 
3277.000000	95.665740 
3276.000000	95.667455 
3275.000000	95.669076 
3274.000000	95.670423 
3273.000000	95.671331 
3272.000000	95.672166 
3271.000000	95.673686 
3270.000000	95.676451 
3269.000000	95.680327 
3268.000000	95.684386 
3267.000000	95.687437 
3266.000000	95.689030 
3265.000000	95.689979 
3264.000000	95.691521 
3263.000000	95.693866 
3262.000000	95.696044 
3261.000000	95.697166 
3260.000000	95.697082 
3259.000000	95.695928 
3258.000000	95.693949 
3257.000000	95.692241 
3256.000000	95.692595 
3255.000000	95.695542 
3254.000000	95.699220 
3253.000000	95.701305 
3252.000000	95.701829 
3251.000000	95.702745 
3250.000000	95.704937 
3249.000000	95.707151 
3248.000000	95.708076 
3247.000000	95.708243 
3246.000000	95.709148 
3245.000000	95.711433 
3244.000000	95.714644 
3243.000000	95.718219 
3242.000000	95.722069 
3241.000000	95.726334 
3240.000000	95.730806 
3239.000000	95.734512 
3238.000000	95.735994 
3237.000000	95.734483 
3236.000000	95.730959 
3235.000000	95.727571 
3234.000000	95.725653 
3233.000000	95.724806 
3232.000000	95.724235 
3231.000000	95.724190 
3230.000000	95.725532 
3229.000000	95.728427 
3228.000000	95.732476 
3227.000000	95.737977 
3226.000000	95.745911 
3225.000000	95.756213 
3224.000000	95.766821 
3223.000000	95.775242 
3222.000000	95.780842 
3221.000000	95.784869 
3220.000000	95.788354 
3219.000000	95.790771 
3218.000000	95.791060 
3217.000000	95.789256 
3216.000000	95.786592 
3215.000000	95.784459 
3214.000000	95.783537 
3213.000000	95.783463 
3212.000000	95.782957 
3211.000000	95.780679 
3210.000000	95.776604 
3209.000000	95.772523 
3208.000000	95.770660 
3207.000000	95.771848 
3206.000000	95.775391 
3205.000000	95.780497 
3204.000000	95.787206 
3203.000000	95.795556 
3202.000000	95.804190 
3201.000000	95.810510 
3200.000000	95.812634 
3199.000000	95.811238 
3198.000000	95.809302 
3197.000000	95.809531 
3196.000000	95.811916 
3195.000000	95.814233 
3194.000000	95.814839 
3193.000000	95.814403 
3192.000000	95.814748 
3191.000000	95.816509 
3190.000000	95.818435 
3189.000000	95.818744 
3188.000000	95.816835 
3187.000000	95.813922 
3186.000000	95.812311 
3185.000000	95.813772 
3184.000000	95.818304 
3183.000000	95.824521 
3182.000000	95.831232 
3181.000000	95.838216 
3180.000000	95.845312 
3179.000000	95.851567 
3178.000000	95.855966 
3177.000000	95.858553 
3176.000000	95.860243 
3175.000000	95.861804 
3174.000000	95.863508 
3173.000000	95.865421 
3172.000000	95.867365 
3171.000000	95.868823 
3170.000000	95.869513 
3169.000000	95.869849 
3168.000000	95.870389 
3167.000000	95.871117 
3166.000000	95.871779 
3165.000000	95.872519 
3164.000000	95.873511 
3163.000000	95.874482 
3162.000000	95.875391 
3161.000000	95.877210 
3160.000000	95.881146 
3159.000000	95.887227 
3158.000000	95.894357 
3157.000000	95.901520 
3156.000000	95.908099 
3155.000000	95.913219 
3154.000000	95.915976 
3153.000000	95.916586 
3152.000000	95.916351 
3151.000000	95.916098 
3150.000000	95.915363 
3149.000000	95.913332 
3148.000000	95.909979 
3147.000000	95.906121 
3146.000000	95.903043 
3145.000000	95.902190 
3144.000000	95.904451 
3143.000000	95.909274 
3142.000000	95.914756 
3141.000000	95.919158 
3140.000000	95.922250 
3139.000000	95.924995 
3138.000000	95.928300 
3137.000000	95.932152 
3136.000000	95.935529 
3135.000000	95.937193 
3134.000000	95.936974 
3133.000000	95.936304 
3132.000000	95.937065 
3131.000000	95.939779 
3130.000000	95.943316 
3129.000000	95.946288 
3128.000000	95.948420 
3127.000000	95.950508 
3126.000000	95.953436 
3125.000000	95.957400 
3124.000000	95.961765 
3123.000000	95.965429 
3122.000000	95.967568 
3121.000000	95.968287 
3120.000000	95.968500 
3119.000000	95.969183 
3118.000000	95.970765 
3117.000000	95.973179 
3116.000000	95.976103 
3115.000000	95.979092 
3114.000000	95.981801 
3113.000000	95.984277 
3112.000000	95.986914 
3111.000000	95.989969 
3110.000000	95.993142 
3109.000000	95.995743 
3108.000000	95.997302 
3107.000000	95.998011 
3106.000000	95.998590 
3105.000000	95.999689 
3104.000000	96.001460 
3103.000000	96.003687 
3102.000000	96.006098 
3101.000000	96.008459 
3100.000000	96.010496 
3099.000000	96.012034 
3098.000000	96.013404 
3097.000000	96.015370 
3096.000000	96.018263 
3095.000000	96.021429 
3094.000000	96.024032 
3093.000000	96.026215 
3092.000000	96.028878 
3091.000000	96.032336 
3090.000000	96.035803 
3089.000000	96.038325 
3088.000000	96.039712 
3087.000000	96.040372 
3086.000000	96.040732 
3085.000000	96.040994 
3084.000000	96.041040 
3083.000000	96.040598 
3082.000000	96.039959 
3081.000000	96.040374 
3080.000000	96.042949 
3079.000000	96.047148 
3078.000000	96.050922 
3077.000000	96.052824 
3076.000000	96.053279 
3075.000000	96.053654 
3074.000000	96.054661 
3073.000000	96.056099 
3072.000000	96.057611 
3071.000000	96.058935 
3070.000000	96.059729 
3069.000000	96.059864 
3068.000000	96.059756 
3067.000000	96.059884 
3066.000000	96.060079 
3065.000000	96.059826 
3064.000000	96.059120 
3063.000000	96.058498 
3062.000000	96.058266 
3061.000000	96.058173 
3060.000000	96.057929 
3059.000000	96.057747 
3058.000000	96.058242 
3057.000000	96.059923 
3056.000000	96.062679 
3055.000000	96.065566 
3054.000000	96.067342 
3053.000000	96.067551 
3052.000000	96.067026 
3051.000000	96.067139 
3050.000000	96.068445 
3049.000000	96.070292 
3048.000000	96.071612 
3047.000000	96.071814 
3046.000000	96.070879 
3045.000000	96.069174 
3044.000000	96.067498 
3043.000000	96.066956 
3042.000000	96.068279 
3041.000000	96.071075 
3040.000000	96.073809 
3039.000000	96.075074 
3038.000000	96.074928 
3037.000000	96.074810 
3036.000000	96.075953 
3035.000000	96.077925 
3034.000000	96.079161 
3033.000000	96.078818 
3032.000000	96.077522 
3031.000000	96.076356 
3030.000000	96.075646 
3029.000000	96.075031 
3028.000000	96.074172 
3027.000000	96.072925 
3026.000000	96.071231 
3025.000000	96.069367 
3024.000000	96.068035 
3023.000000	96.067624 
3022.000000	96.067573 
3021.000000	96.067120 
3020.000000	96.066535 
3019.000000	96.066862 
3018.000000	96.068373 
3017.000000	96.069974 
3016.000000	96.070420 
3015.000000	96.069612 
3014.000000	96.068500 
3013.000000	96.068047 
3012.000000	96.068260 
3011.000000	96.067999 
3010.000000	96.065864 
3009.000000	96.061532 
3008.000000	96.056071 
3007.000000	96.050782 
3006.000000	96.045991 
3005.000000	96.041499 
3004.000000	96.037830 
3003.000000	96.036177 
3002.000000	96.037107 
3001.000000	96.039896 
3000.000000	96.043122 
2999.000000	96.045463 
2998.000000	96.046054 
2997.000000	96.044674 
2996.000000	96.041805 
2995.000000	96.038321 
2994.000000	96.035102 
2993.000000	96.032908 
2992.000000	96.032100 
2991.000000	96.032199 
2990.000000	96.032055 
2989.000000	96.030887 
2988.000000	96.029021 
2987.000000	96.027346 
2986.000000	96.026497 
2985.000000	96.026880 
2984.000000	96.028856 
2983.000000	96.032299 
2982.000000	96.036271 
2981.000000	96.039676 
2980.000000	96.041994 
2979.000000	96.043020 
2978.000000	96.042511 
2977.000000	96.040850 
2976.000000	96.039638 
2975.000000	96.040624 
2974.000000	96.043993 
2973.000000	96.048300 
2972.000000	96.051982 
2971.000000	96.054448 
2970.000000	96.055806 
2969.000000	96.056380 
2968.000000	96.056742 
2967.000000	96.057540 
2966.000000	96.058868 
2965.000000	96.060114 
2964.000000	96.060708 
2963.000000	96.060793 
2962.000000	96.061045 
2961.000000	96.062111 
2960.000000	96.064412 
2959.000000	96.068198 
2958.000000	96.073365 
2957.000000	96.079154 
2956.000000	96.084146 
2955.000000	96.086909 
2954.000000	96.086944 
2953.000000	96.085149 
2952.000000	96.083449 
2951.000000	96.083465 
2950.000000	96.085391 
2949.000000	96.088264 
2948.000000	96.091041 
2947.000000	96.093296 
2946.000000	96.095012 
2945.000000	96.096138 
2944.000000	96.096611 
2943.000000	96.096576 
2942.000000	96.096293 
2941.000000	96.095872 
2940.000000	96.095350 
2939.000000	96.095037 
2938.000000	96.095553 
2937.000000	96.097376 
2936.000000	96.100370 
2935.000000	96.103775 
2934.000000	96.106668 
2933.000000	96.108471 
2932.000000	96.109125 
2931.000000	96.108942 
2930.000000	96.108301 
2929.000000	96.107432 
2928.000000	96.106400 
2927.000000	96.105313 
2926.000000	96.104560 
2925.000000	96.104841 
2924.000000	96.106795 
2923.000000	96.110452 
2922.000000	96.114963 
2921.000000	96.118966 
2920.000000	96.121428 
2919.000000	96.122167 
2918.000000	96.121656 
2917.000000	96.120414 
2916.000000	96.118672 
2915.000000	96.116707 
2914.000000	96.115319 
2913.000000	96.115589 
2912.000000	96.117920 
2911.000000	96.121325 
2910.000000	96.123963 
2909.000000	96.124657 
2908.000000	96.123700 
2907.000000	96.122208 
2906.000000	96.120797 
2905.000000	96.119133 
2904.000000	96.116740 
2903.000000	96.114161 
2902.000000	96.112985 
2901.000000	96.114513 
2900.000000	96.118661 
2899.000000	96.123928 
2898.000000	96.128702 
2897.000000	96.132417 
2896.000000	96.135204 
2895.000000	96.136880 
2894.000000	96.136982 
2893.000000	96.135860 
2892.000000	96.134972 
2891.000000	96.135506 
2890.000000	96.137185 
2889.000000	96.139049 
2888.000000	96.140922 
2887.000000	96.143223 
2886.000000	96.145494 
2885.000000	96.146350 
2884.000000	96.145376 
2883.000000	96.144137 
2882.000000	96.144479 
2881.000000	96.146342 
2880.000000	96.148186 
2879.000000	96.149320 
2878.000000	96.150740 
2877.000000	96.153480 
2876.000000	96.157166 
2875.000000	96.160676 
2874.000000	96.163480 
2873.000000	96.165787 
2872.000000	96.167815 
2871.000000	96.169523 
2870.000000	96.170855 
2869.000000	96.171668 
2868.000000	96.171541 
2867.000000	96.170240 
2866.000000	96.168432 
2865.000000	96.167439 
2864.000000	96.168199 
2863.000000	96.170766 
2862.000000	96.174727 
2861.000000	96.179635 
2860.000000	96.184903 
2859.000000	96.189871 
2858.000000	96.194376 
2857.000000	96.198881 
2856.000000	96.203615 
2855.000000	96.207810 
2854.000000	96.210313 
2853.000000	96.210897 
2852.000000	96.210557 
2851.000000	96.210634 
2850.000000	96.211869 
2849.000000	96.214236 
2848.000000	96.217258 
2847.000000	96.220230 
2846.000000	96.222479 
2845.000000	96.223777 
2844.000000	96.224557 
2843.000000	96.225514 
2842.000000	96.226935 
2841.000000	96.228490 
2840.000000	96.229690 
2839.000000	96.230460 
2838.000000	96.231258 
2837.000000	96.232735 
2836.000000	96.235302 
2835.000000	96.238907 
2834.000000	96.243025 
2833.000000	96.246816 
2832.000000	96.249520 
2831.000000	96.250866 
2830.000000	96.251146 
2829.000000	96.250946 
2828.000000	96.250803 
2827.000000	96.251112 
2826.000000	96.252208 
2825.000000	96.254270 
2824.000000	96.257107 
2823.000000	96.260121 
2822.000000	96.262604 
2821.000000	96.264141 
2820.000000	96.264695 
2819.000000	96.264504 
2818.000000	96.263997 
2817.000000	96.263752 
2816.000000	96.264319 
2815.000000	96.265950 
2814.000000	96.268417 
2813.000000	96.271058 
2812.000000	96.273171 
2811.000000	96.274453 
2810.000000	96.275148 
2809.000000	96.275741 
2808.000000	96.276402 
2807.000000	96.276813 
2806.000000	96.276595 
2805.000000	96.275792 
2804.000000	96.274882 
2803.000000	96.274409 
2802.000000	96.274762 
2801.000000	96.276182 
2800.000000	96.278652 
2799.000000	96.281625 
2798.000000	96.284110 
2797.000000	96.285319 
2796.000000	96.285251 
2795.000000	96.284590 
2794.000000	96.284078 
2793.000000	96.284057 
2792.000000	96.284593 
2791.000000	96.285806 
2790.000000	96.287903 
2789.000000	96.290798 
2788.000000	96.293777 
2787.000000	96.295795 
2786.000000	96.296320 
2785.000000	96.295757 
2784.000000	96.294811 
2783.000000	96.293479 
2782.000000	96.291177 
2781.000000	96.287993 
2780.000000	96.285358 
2779.000000	96.285044 
2778.000000	96.287655 
2777.000000	96.292276 
2776.000000	96.297403 
2775.000000	96.301953 
2774.000000	96.305439 
2773.000000	96.307590 
2772.000000	96.308276 
2771.000000	96.307938 
2770.000000	96.307909 
2769.000000	96.309751 
2768.000000	96.313851 
2767.000000	96.318888 
2766.000000	96.323063 
2765.000000	96.325780 
2764.000000	96.327711 
2763.000000	96.329457 
2762.000000	96.330791 
2761.000000	96.331347 
2760.000000	96.331407 
2759.000000	96.331557 
2758.000000	96.331832 
2757.000000	96.331604 
2756.000000	96.330345 
2755.000000	96.328533 
2754.000000	96.327817 
2753.000000	96.329884 
2752.000000	96.334783 
2751.000000	96.340561 
2750.000000	96.345020 
2749.000000	96.347600 
2748.000000	96.348828 
2747.000000	96.348427 
2746.000000	96.345376 
2745.000000	96.340016 
2744.000000	96.334845 
2743.000000	96.332312 
2742.000000	96.332605 
2741.000000	96.334277 
2740.000000	96.336126 
2739.000000	96.337635 
2738.000000	96.338131 
2737.000000	96.336763 
2736.000000	96.333527 
2735.000000	96.329672 
2734.000000	96.326837 
2733.000000	96.326021 
2732.000000	96.327322 
2731.000000	96.330228 
2730.000000	96.334059 
2729.000000	96.338337 
2728.000000	96.342643 
2727.000000	96.346123 
2726.000000	96.347655 
2725.000000	96.346895 
2724.000000	96.344772 
2723.000000	96.342477 
2722.000000	96.340250 
2721.000000	96.337730 
2720.000000	96.335307 
2719.000000	96.334275 
2718.000000	96.335434 
2717.000000	96.338150 
2716.000000	96.340992 
2715.000000	96.343109 
2714.000000	96.344637 
2713.000000	96.345993 
2712.000000	96.347247 
2711.000000	96.348166 
2710.000000	96.348639 
2709.000000	96.348942 
2708.000000	96.349581 
2707.000000	96.350900 
2706.000000	96.352865 
2705.000000	96.355141 
2704.000000	96.357227 
2703.000000	96.358536 
2702.000000	96.358676 
2701.000000	96.357880 
2700.000000	96.357113 
2699.000000	96.357367 
2698.000000	96.358738 
2697.000000	96.360396 
2696.000000	96.361441 
2695.000000	96.361747 
2694.000000	96.361909 
2693.000000	96.362505 
2692.000000	96.363560 
2691.000000	96.364652 
2690.000000	96.365356 
2689.000000	96.365504 
2688.000000	96.365156 
2687.000000	96.364496 
2686.000000	96.363835 
2685.000000	96.363573 
2684.000000	96.363988 
2683.000000	96.364990 
2682.000000	96.366137 
2681.000000	96.366982 
2680.000000	96.367397 
2679.000000	96.367573 
2678.000000	96.367766 
2677.000000	96.368038 
2676.000000	96.368147 
2675.000000	96.367723 
2674.000000	96.366636 
2673.000000	96.365218 
2672.000000	96.364115 
2671.000000	96.363713 
2670.000000	96.363867 
2669.000000	96.364124 
2668.000000	96.364178 
2667.000000	96.364056 
2666.000000	96.363823 
2665.000000	96.363353 
2664.000000	96.362525 
2663.000000	96.361479 
2662.000000	96.360537 
2661.000000	96.359867 
2660.000000	96.359378 
2659.000000	96.358893 
2658.000000	96.358357 
2657.000000	96.357836 
2656.000000	96.357356 
2655.000000	96.356808 
2654.000000	96.356059 
2653.000000	96.355096 
2652.000000	96.354053 
2651.000000	96.353112 
2650.000000	96.352359 
2649.000000	96.351759 
2648.000000	96.351225 
2647.000000	96.350688 
2646.000000	96.350106 
2645.000000	96.349460 
2644.000000	96.348768 
2643.000000	96.348078 
2642.000000	96.347424 
2641.000000	96.346787 
2640.000000	96.346141 
2639.000000	96.345481 
2638.000000	96.344824 
2637.000000	96.344174 
2636.000000	96.343530 
2635.000000	96.342896 
2634.000000	96.342272 
2633.000000	96.341661 
2632.000000	96.341063 
2631.000000	96.340472 
2630.000000	96.339886 
2629.000000	96.339300 
2628.000000	96.338713 
2627.000000	96.338127 
2626.000000	96.337546 
2625.000000	96.336976 
2624.000000	96.336422 
2623.000000	96.335887 
2622.000000	96.335373 
2621.000000	96.334881 
2620.000000	96.334414 
2619.000000	96.333975 
2618.000000	96.333566 
2617.000000	96.333184 
2616.000000	96.332827 
2615.000000	96.332485 
2614.000000	96.332163 
2613.000000	96.331839 
2612.000000	96.331460 
2611.000000	96.330997 
2610.000000	96.330509 
2609.000000	96.330082 
2608.000000	96.329740 
2607.000000	96.329425 
2606.000000	96.329079 
2605.000000	96.328750 
2604.000000	96.328512 
2603.000000	96.328278 
2602.000000	96.327855 
2601.000000	96.327313 
2600.000000	96.327063 
2599.000000	96.327385 
2598.000000	96.327992 
2597.000000	96.328292 
2596.000000	96.328007 
2595.000000	96.327242 
2594.000000	96.326179 
2593.000000	96.325027 
2592.000000	96.324175 
2591.000000	96.323958 
2590.000000	96.324173 
2589.000000	96.324214 
2588.000000	96.323826 
2587.000000	96.323398 
2586.000000	96.323358 
2585.000000	96.323641 
2584.000000	96.323900 
2583.000000	96.323984 
2582.000000	96.324023 
2581.000000	96.324302 
2580.000000	96.325154 
2579.000000	96.326692 
2578.000000	96.328399 
2577.000000	96.329248 
2576.000000	96.328523 
2575.000000	96.326388 
2574.000000	96.323673 
2573.000000	96.321221 
2572.000000	96.319432 
2571.000000	96.318283 
2570.000000	96.317553 
2569.000000	96.317086 
2568.000000	96.317000 
2567.000000	96.317490 
2566.000000	96.318356 
2565.000000	96.318944 
2564.000000	96.318662 
2563.000000	96.317473 
2562.000000	96.315883 
2561.000000	96.314551 
2560.000000	96.313881 
2559.000000	96.313900 
2558.000000	96.314287 
2557.000000	96.314550 
2556.000000	96.314413 
2555.000000	96.314081 
2554.000000	96.313951 
2553.000000	96.314033 
2552.000000	96.313866 
2551.000000	96.313150 
2550.000000	96.312157 
2549.000000	96.311334 
2548.000000	96.310668 
2547.000000	96.309827 
2546.000000	96.308806 
2545.000000	96.308007 
2544.000000	96.307620 
2543.000000	96.307323 
2542.000000	96.306716 
2541.000000	96.305836 
2540.000000	96.305043 
2539.000000	96.304526 
2538.000000	96.304121 
2537.000000	96.303593 
2536.000000	96.302916 
2535.000000	96.302225 
2534.000000	96.301627 
2533.000000	96.301135 
2532.000000	96.300732 
2531.000000	96.300416 
2530.000000	96.300163 
2529.000000	96.299871 
2528.000000	96.299408 
2527.000000	96.298721 
2526.000000	96.297933 
2525.000000	96.297301 
2524.000000	96.296992 
2523.000000	96.296954 
2522.000000	96.297006 
2521.000000	96.297039 
2520.000000	96.297047 
2519.000000	96.297024 
2518.000000	96.296935 
2517.000000	96.296747 
2516.000000	96.296462 
2515.000000	96.296128 
2514.000000	96.295855 
2513.000000	96.295761 
2512.000000	96.295865 
2511.000000	96.296079 
2510.000000	96.296292 
2509.000000	96.296458 
2508.000000	96.296564 
2507.000000	96.296579 
2506.000000	96.296504 
2505.000000	96.296423 
2504.000000	96.296457 
2503.000000	96.296631 
2502.000000	96.296856 
2501.000000	96.297010 
2500.000000	96.297080 
2499.000000	96.297183 
2498.000000	96.297436 
2497.000000	96.297839 
2496.000000	96.298289 
2495.000000	96.298701 
2494.000000	96.299028 
2493.000000	96.299208 
2492.000000	96.299171 
2491.000000	96.298917 
2490.000000	96.298583 
2489.000000	96.298369 
2488.000000	96.298400 
2487.000000	96.298662 
2486.000000	96.299106 
2485.000000	96.299752 
2484.000000	96.300585 
2483.000000	96.301400 
2482.000000	96.301879 
2481.000000	96.301888 
2480.000000	96.301615 
2479.000000	96.301346 
2478.000000	96.301213 
2477.000000	96.301190 
2476.000000	96.301226 
2475.000000	96.301313 
2474.000000	96.301492 
2473.000000	96.301809 
2472.000000	96.302085 
2471.000000	96.301856 
2470.000000	96.300892 
2469.000000	96.299801 
2468.000000	96.299622 
2467.000000	96.300700 
2466.000000	96.302466 
2465.000000	96.304361 
2464.000000	96.306412 
2463.000000	96.308679 
2462.000000	96.310756 
2461.000000	96.312234 
2460.000000	96.313291 
2459.000000	96.314196 
2458.000000	96.314437 
2457.000000	96.313083 
2456.000000	96.309876 
2455.000000	96.305838 
2454.000000	96.302650 
2453.000000	96.301161 
2452.000000	96.300715 
2451.000000	96.300112 
2450.000000	96.299283 
2449.000000	96.299471 
2448.000000	96.301513 
2447.000000	96.304686 
2446.000000	96.307513 
2445.000000	96.309262 
2444.000000	96.310057 
2443.000000	96.310131 
2442.000000	96.309806 
2441.000000	96.309774 
2440.000000	96.310617 
2439.000000	96.312173 
2438.000000	96.313894 
2437.000000	96.315579 
2436.000000	96.317257 
2435.000000	96.318671 
2434.000000	96.319507 
2433.000000	96.319966 
2432.000000	96.320552 
2431.000000	96.321393 
2430.000000	96.322313 
2429.000000	96.323394 
2428.000000	96.324834 
2427.000000	96.326296 
2426.000000	96.327007 
2425.000000	96.326595 
2424.000000	96.325511 
2423.000000	96.324685 
2422.000000	96.324860 
2421.000000	96.326193 
2420.000000	96.328223 
2419.000000	96.329985 
2418.000000	96.330620 
2417.000000	96.330244 
2416.000000	96.329974 
2415.000000	96.330734 
2414.000000	96.332336 
2413.000000	96.334341 
2412.000000	96.336967 
2411.000000	96.340154 
2410.000000	96.342683 
2409.000000	96.343583 
2408.000000	96.343652 
2407.000000	96.344299 
2406.000000	96.345373 
2405.000000	96.345332 
2404.000000	96.343330 
2403.000000	96.340156 
2402.000000	96.337396 
2401.000000	96.336465 
2400.000000	96.338033 
2399.000000	96.341540 
2398.000000	96.345525 
2397.000000	96.349120 
2396.000000	96.352513 
2395.000000	96.355403 
2394.000000	96.356139 
2393.000000	96.353676 
2392.000000	96.349599 
2391.000000	96.346730 
2390.000000	96.345879 
2389.000000	96.345337 
2388.000000	96.343424 
2387.000000	96.340179 
2386.000000	96.336571 
2385.000000	96.333376 
2384.000000	96.331065 
2383.000000	96.329908 
2382.000000	96.330098 
2381.000000	96.332329 
2380.000000	96.338017 
2379.000000	96.347833 
2378.000000	96.359523 
2377.000000	96.368334 
2376.000000	96.370894 
2375.000000	96.367772 
2374.000000	96.361925 
2373.000000	96.355314 
2372.000000	96.348397 
2371.000000	96.342318 
2370.000000	96.339011 
2369.000000	96.338490 
2368.000000	96.337667 
2367.000000	96.333539 
2366.000000	96.327316 
2365.000000	96.323698 
2364.000000	96.325310 
2363.000000	96.329496 
2362.000000	96.331963 
2361.000000	96.331707 
2360.000000	96.329675 
2359.000000	96.326019 
2358.000000	96.321477 
2357.000000	96.319430 
2356.000000	96.322446 
2355.000000	96.327953 
2354.000000	96.331684 
2353.000000	96.331385 
2352.000000	96.328331 
2351.000000	96.324020 
2350.000000	96.318414 
2349.000000	96.312645 
2348.000000	96.309406 
2347.000000	96.309884 
2346.000000	96.309056 
2345.000000	96.301751 
2344.000000	96.291062 
2343.000000	96.284438 
2342.000000	96.287940 
2341.000000	96.301098 
2340.000000	96.317705 
2339.000000	96.329466 
2338.000000	96.332900 
2337.000000	96.330631 
2336.000000	96.326246 
2335.000000	96.320720 
2334.000000	96.313269 
2333.000000	96.304402 
2332.000000	96.295040 
2331.000000	96.285669 
2330.000000	96.273608 
2329.000000	96.258150 
2328.000000	96.240225 
2327.000000	96.225195 
2326.000000	96.215159 
2325.000000	96.209588 
2324.000000	96.207343 
2323.000000	96.209025 
2322.000000	96.213947 
2321.000000	96.217469 
2320.000000	96.216739 
2319.000000	96.215447 
2318.000000	96.218907 
2317.000000	96.228004 
2316.000000	96.237593 
2315.000000	96.243097 
2314.000000	96.241779 
2313.000000	96.235240 
2312.000000	96.226443 
2311.000000	96.220100 
2310.000000	96.217045 
2309.000000	96.215190 
2308.000000	96.211703 
2307.000000	96.208478 
2306.000000	96.208495 
2305.000000	96.211973 
2304.000000	96.215069 
2303.000000	96.215285 
2302.000000	96.213517 
2301.000000	96.213220 
2300.000000	96.216285 
2299.000000	96.222162 
2298.000000	96.227319 
2297.000000	96.229033 
2296.000000	96.227244 
2295.000000	96.225484 
2294.000000	96.226516 
2293.000000	96.230033 
2292.000000	96.233286 
2291.000000	96.235232 
2290.000000	96.237548 
2289.000000	96.242189 
2288.000000	96.248335 
2287.000000	96.253013 
2286.000000	96.254604 
2285.000000	96.254790 
2284.000000	96.256710 
2283.000000	96.261213 
2282.000000	96.266006 
2281.000000	96.268102 
2280.000000	96.266506 
2279.000000	96.262155 
2278.000000	96.256847 
2277.000000	96.252593 
2276.000000	96.250973 
2275.000000	96.252021 
2274.000000	96.254032 
2273.000000	96.255479 
2272.000000	96.256671 
2271.000000	96.258538 
2270.000000	96.260440 
2269.000000	96.260898 
2268.000000	96.260067 
2267.000000	96.259832 
2266.000000	96.261252 
2265.000000	96.263404 
2264.000000	96.264884 
2263.000000	96.265116 
2262.000000	96.263915 
2261.000000	96.261251 
2260.000000	96.257995 
2259.000000	96.255577 
2258.000000	96.254455 
2257.000000	96.254011 
2256.000000	96.254430 
2255.000000	96.257082 
2254.000000	96.262163 
2253.000000	96.267046 
2252.000000	96.268529 
2251.000000	96.265802 
2250.000000	96.260099 
2249.000000	96.253002 
2248.000000	96.246113 
2247.000000	96.241290 
2246.000000	96.239447 
2245.000000	96.239344 
2244.000000	96.238605 
2243.000000	96.236225 
2242.000000	96.233203 
2241.000000	96.230968 
2240.000000	96.230137 
2239.000000	96.230592 
2238.000000	96.231660 
2237.000000	96.232221 
2236.000000	96.231448 
2235.000000	96.229591 
2234.000000	96.227562 
2233.000000	96.225919 
2232.000000	96.224792 
2231.000000	96.224397 
2230.000000	96.224704 
2229.000000	96.224796 
2228.000000	96.223599 
2227.000000	96.221279 
2226.000000	96.219144 
2225.000000	96.218051 
2224.000000	96.217471 
2223.000000	96.216387 
2222.000000	96.214722 
2221.000000	96.213269 
2220.000000	96.212282 
2219.000000	96.211009 
2218.000000	96.208891 
2217.000000	96.206491 
2216.000000	96.204787 
2215.000000	96.203821 
2214.000000	96.202602 
2213.000000	96.200336 
2212.000000	96.197405 
2211.000000	96.194946 
2210.000000	96.193670 
2209.000000	96.193423 
2208.000000	96.193663 
2207.000000	96.194018 
2206.000000	96.194357 
2205.000000	96.194682 
2204.000000	96.195228 
2203.000000	96.196365 
2202.000000	96.197881 
2201.000000	96.198368 
2200.000000	96.196083 
2199.000000	96.190770 
2198.000000	96.184617 
2197.000000	96.180943 
2196.000000	96.181205 
2195.000000	96.183421 
2194.000000	96.183896 
2193.000000	96.181198 
2192.000000	96.177703 
2191.000000	96.176433 
2190.000000	96.177070 
2189.000000	96.176670 
2188.000000	96.173826 
2187.000000	96.169815 
2186.000000	96.165308 
2185.000000	96.158913 
2184.000000	96.150938 
2183.000000	96.146130 
2182.000000	96.149238 
2181.000000	96.159123 
2180.000000	96.169242 
2179.000000	96.174299 
2178.000000	96.174501 
2177.000000	96.173281 
2176.000000	96.173369 
2175.000000	96.175247 
2174.000000	96.177941 
2173.000000	96.180557 
2172.000000	96.183604 
2171.000000	96.188593 
2170.000000	96.195498 
2169.000000	96.201232 
2168.000000	96.202165 
2167.000000	96.197892 
2166.000000	96.191234 
2165.000000	96.184846 
2164.000000	96.179590 
2163.000000	96.176557 
2162.000000	96.178252 
2161.000000	96.186070 
2160.000000	96.197721 
2159.000000	96.208831 
2158.000000	96.217135 
2157.000000	96.223683 
2156.000000	96.230278 
2155.000000	96.237365 
2154.000000	96.244608 
2153.000000	96.252200 
2152.000000	96.260389 
2151.000000	96.267633 
2150.000000	96.270777 
2149.000000	96.268469 
2148.000000	96.263682 
2147.000000	96.261096 
2146.000000	96.261953 
2145.000000	96.263921 
2144.000000	96.266183 
2143.000000	96.271612 
2142.000000	96.282035 
2141.000000	96.293871 
2140.000000	96.301355 
2139.000000	96.303397 
2138.000000	96.304334 
2137.000000	96.307625 
2136.000000	96.311512 
2135.000000	96.311753 
2134.000000	96.306680 
2133.000000	96.298882 
2132.000000	96.293247 
2131.000000	96.293236 
2130.000000	96.298517 
2129.000000	96.305406 
2128.000000	96.309967 
2127.000000	96.311386 
2126.000000	96.311959 
2125.000000	96.314099 
2124.000000	96.317885 
2123.000000	96.321513 
2122.000000	96.323302 
2121.000000	96.322823 
2120.000000	96.320653 
2119.000000	96.317744 
2118.000000	96.315029 
2117.000000	96.313104 
2116.000000	96.311982 
2115.000000	96.311179 
2114.000000	96.310284 
2113.000000	96.309591 
2112.000000	96.309961 
2111.000000	96.311879 
2110.000000	96.314817 
2109.000000	96.317748 
2108.000000	96.320132 
2107.000000	96.322023 
2106.000000	96.323449 
2105.000000	96.324410 
2104.000000	96.325460 
2103.000000	96.327403 
2102.000000	96.329921 
2101.000000	96.331233 
2100.000000	96.329953 
2099.000000	96.327055 
2098.000000	96.325513 
2097.000000	96.327298 
2096.000000	96.331812 
2095.000000	96.336620 
2094.000000	96.339636 
2093.000000	96.340556 
2092.000000	96.340259 
2091.000000	96.339860 
2090.000000	96.340131 
2089.000000	96.341382 
2088.000000	96.343380 
2087.000000	96.345344 
2086.000000	96.346453 
2085.000000	96.346565 
2084.000000	96.346389 
2083.000000	96.346738 
2082.000000	96.347701 
2081.000000	96.348860 
2080.000000	96.350227 
2079.000000	96.352301 
2078.000000	96.354837 
2077.000000	96.356236 
2076.000000	96.355131 
2075.000000	96.352282 
2074.000000	96.350043 
2073.000000	96.349586 
2072.000000	96.349667 
2071.000000	96.348616 
2070.000000	96.346513 
2069.000000	96.344667 
2068.000000	96.343724 
2067.000000	96.342945 
2066.000000	96.341223 
2065.000000	96.338153 
2064.000000	96.334167 
2063.000000	96.330151 
2062.000000	96.327054 
2061.000000	96.325646 
2060.000000	96.326029 
2059.000000	96.327639 
2058.000000	96.329681 
2057.000000	96.331141 
2056.000000	96.331134 
2055.000000	96.329393 
2054.000000	96.326514 
2053.000000	96.323661 
2052.000000	96.321537 
2051.000000	96.319976 
2050.000000	96.318494 
2049.000000	96.316937 
2048.000000	96.315468 
2047.000000	96.314181 
2046.000000	96.313000 
2045.000000	96.311870 
2044.000000	96.310804 
2043.000000	96.309781 
2042.000000	96.308764 
2041.000000	96.307759 
2040.000000	96.306805 
2039.000000	96.305915 
2038.000000	96.305056 
2037.000000	96.304189 
2036.000000	96.303300 
2035.000000	96.302388 
2034.000000	96.301460 
2033.000000	96.300532 
2032.000000	96.299616 
2031.000000	96.298712 
2030.000000	96.297808 
2029.000000	96.296892 
2028.000000	96.295964 
2027.000000	96.295065 
2026.000000	96.294247 
2025.000000	96.293518 
2024.000000	96.292826 
2023.000000	96.292151 
2022.000000	96.291569 
2021.000000	96.291175 
2020.000000	96.290932 
2019.000000	96.290555 
2018.000000	96.289739 
2017.000000	96.288393 
2016.000000	96.286814 
2015.000000	96.285461 
2014.000000	96.284518 
2013.000000	96.283757 
2012.000000	96.282786 
2011.000000	96.281631 
2010.000000	96.280793 
2009.000000	96.280560 
2008.000000	96.280481 
2007.000000	96.279901 
2006.000000	96.278893 
2005.000000	96.278140 
2004.000000	96.278037 
2003.000000	96.278453 
2002.000000	96.279281 
2001.000000	96.280445 
2000.000000	96.281175 
1999.000000	96.280160 
1998.000000	96.276930 
1997.000000	96.272698 
1996.000000	96.269366 
1995.000000	96.267656 
1994.000000	96.266833 
1993.000000	96.265991 
1992.000000	96.265210 
1991.000000	96.265221 
1990.000000	96.266460 
1989.000000	96.268761 
1988.000000	96.271402 
1987.000000	96.273176 
1986.000000	96.273008 
1985.000000	96.270968 
1984.000000	96.268557 
1983.000000	96.267488 
1982.000000	96.268127 
1981.000000	96.269595 
1980.000000	96.271123 
1979.000000	96.272857 
1978.000000	96.275052 
1977.000000	96.277237 
1976.000000	96.278721 
1975.000000	96.279569 
1974.000000	96.280642 
1973.000000	96.282687 
1972.000000	96.285591 
1971.000000	96.288474 
1970.000000	96.290466 
1969.000000	96.291265 
1968.000000	96.291133 
1967.000000	96.290675 
1966.000000	96.290686 
1965.000000	96.291816 
1964.000000	96.294176 
1963.000000	96.297275 
1962.000000	96.300328 
1961.000000	96.302697 
1960.000000	96.304097 
1959.000000	96.304594 
1958.000000	96.304700 
1957.000000	96.305304 
1956.000000	96.307010 
1955.000000	96.309629 
1954.000000	96.312298 
1953.000000	96.314362 
1952.000000	96.315943 
1951.000000	96.317524 
1950.000000	96.319388 
1949.000000	96.321589 
1948.000000	96.324110 
1947.000000	96.326682 
1946.000000	96.328667 
1945.000000	96.329540 
1944.000000	96.329387 
1943.000000	96.328728 
1942.000000	96.328077 
1941.000000	96.327856 
1940.000000	96.328350 
1939.000000	96.329278 
1938.000000	96.329886 
1937.000000	96.330082 
1936.000000	96.330874 
1935.000000	96.332982 
1934.000000	96.335669 
1933.000000	96.337843 
1932.000000	96.339633 
1931.000000	96.341790 
1930.000000	96.344189 
1929.000000	96.345953 
1928.000000	96.347146 
1927.000000	96.348368 
1926.000000	96.349014 
1925.000000	96.347764 
1924.000000	96.344899 
1923.000000	96.342933 
1922.000000	96.343628 
1921.000000	96.345983 
1920.000000	96.348341 
1919.000000	96.350324 
1918.000000	96.351623 
1917.000000	96.350945 
1916.000000	96.348144 
1915.000000	96.345736 
1914.000000	96.345946 
1913.000000	96.347879 
1912.000000	96.348811 
1911.000000	96.347610 
1910.000000	96.345443 
1909.000000	96.343828 
1908.000000	96.343538 
1907.000000	96.344293 
1906.000000	96.344648 
1905.000000	96.342797 
1904.000000	96.338524 
1903.000000	96.334482 
1902.000000	96.333509 
1901.000000	96.335159 
1900.000000	96.336723 
1899.000000	96.336647 
1898.000000	96.335564 
1897.000000	96.334289 
1896.000000	96.332344 
1895.000000	96.329185 
1894.000000	96.325232 
1893.000000	96.321170 
1892.000000	96.317548 
1891.000000	96.315238 
1890.000000	96.315186 
1889.000000	96.317197 
1888.000000	96.319884 
1887.000000	96.322330 
1886.000000	96.324244 
1885.000000	96.324824 
1884.000000	96.323156 
1883.000000	96.319948 
1882.000000	96.317419 
1881.000000	96.316866 
1880.000000	96.317611 
1879.000000	96.318114 
1878.000000	96.317721 
1877.000000	96.317445 
1876.000000	96.318676 
1875.000000	96.321681 
1874.000000	96.325466 
1873.000000	96.328595 
1872.000000	96.330328 
1871.000000	96.330760 
1870.000000	96.330188 
1869.000000	96.329069 
1868.000000	96.328432 
1867.000000	96.329357 
1866.000000	96.331633 
1865.000000	96.333812 
1864.000000	96.335156 
1863.000000	96.336626 
1862.000000	96.339268 
1861.000000	96.342440 
1860.000000	96.344690 
1859.000000	96.345868 
1858.000000	96.347213 
1857.000000	96.349663 
1856.000000	96.353126 
1855.000000	96.356830 
1854.000000	96.359752 
1853.000000	96.361176 
1852.000000	96.361705 
1851.000000	96.362824 
1850.000000	96.364977 
1849.000000	96.367331 
1848.000000	96.369147 
1847.000000	96.370735 
1846.000000	96.372723 
1845.000000	96.375100 
1844.000000	96.377419 
1843.000000	96.379551 
1842.000000	96.381710 
1841.000000	96.383884 
1840.000000	96.386001 
1839.000000	96.388142 
1838.000000	96.390343 
1837.000000	96.392281 
1836.000000	96.393632 
1835.000000	96.394725 
1834.000000	96.396138 
1833.000000	96.397806 
1832.000000	96.399206 
1831.000000	96.399987 
1830.000000	96.400408 
1829.000000	96.401252 
1828.000000	96.402993 
1827.000000	96.405540 
1826.000000	96.408300 
1825.000000	96.410546 
1824.000000	96.411943 
1823.000000	96.412858 
1822.000000	96.413955 
1821.000000	96.415195 
1820.000000	96.415819 
1819.000000	96.415401 
1818.000000	96.414800 
1817.000000	96.415130 
1816.000000	96.416212 
1815.000000	96.417536 
1814.000000	96.419191 
1813.000000	96.421285 
1812.000000	96.422841 
1811.000000	96.422444 
1810.000000	96.420597 
1809.000000	96.419271 
1808.000000	96.419456 
1807.000000	96.420992 
1806.000000	96.423440 
1805.000000	96.425972 
1804.000000	96.427199 
1803.000000	96.426570 
1802.000000	96.424872 
1801.000000	96.423529 
1800.000000	96.422888 
1799.000000	96.422350 
1798.000000	96.422193 
1797.000000	96.422691 
1796.000000	96.423400 
1795.000000	96.424490 
1794.000000	96.426676 
1793.000000	96.429711 
1792.000000	96.431693 
1791.000000	96.431767 
1790.000000	96.432070 
1789.000000	96.434406 
1788.000000	96.438058 
1787.000000	96.441161 
1786.000000	96.442834 
1785.000000	96.443597 
1784.000000	96.444243 
1783.000000	96.445605 
1782.000000	96.447626 
1781.000000	96.449745 
1780.000000	96.451784 
1779.000000	96.453874 
1778.000000	96.456427 
1777.000000	96.459200 
1776.000000	96.461634 
1775.000000	96.463527 
1774.000000	96.465044 
1773.000000	96.466845 
1772.000000	96.469289 
1771.000000	96.471540 
1770.000000	96.473120 
1769.000000	96.474445 
1768.000000	96.475999 
1767.000000	96.478002 
1766.000000	96.480323 
1765.000000	96.482815 
1764.000000	96.485348 
1763.000000	96.487631 
1762.000000	96.489388 
1761.000000	96.490862 
1760.000000	96.492460 
1759.000000	96.494233 
1758.000000	96.495985 
1757.000000	96.497582 
1756.000000	96.499591 
1755.000000	96.502168 
1754.000000	96.504452 
1753.000000	96.505474 
1752.000000	96.505420 
1751.000000	96.505944 
1750.000000	96.508458 
1749.000000	96.512422 
1748.000000	96.516082 
1747.000000	96.518454 
1746.000000	96.519078 
1745.000000	96.518691 
1744.000000	96.518681 
1743.000000	96.519217 
1742.000000	96.519929 
1741.000000	96.521744 
1740.000000	96.525390 
1739.000000	96.529176 
1738.000000	96.530742 
1737.000000	96.530207 
1736.000000	96.528892 
1735.000000	96.527585 
1734.000000	96.527118 
1733.000000	96.526389 
1732.000000	96.525962 
1731.000000	96.528473 
1730.000000	96.533833 
1729.000000	96.538596 
1728.000000	96.540606 
1727.000000	96.540959 
1726.000000	96.541046 
1725.000000	96.541437 
1724.000000	96.541232 
1723.000000	96.539404 
1722.000000	96.537082 
1721.000000	96.535573 
1720.000000	96.534809 
1719.000000	96.533635 
1718.000000	96.532266 
1717.000000	96.531117 
1716.000000	96.527636 
1715.000000	96.521966 
1714.000000	96.517585 
1713.000000	96.515202 
1712.000000	96.512503 
1711.000000	96.509094 
1710.000000	96.506375 
1709.000000	96.504208 
1708.000000	96.501688 
1707.000000	96.499479 
1706.000000	96.499025 
1705.000000	96.498961 
1704.000000	96.495608 
1703.000000	96.488768 
1702.000000	96.481177 
1701.000000	96.476620 
1700.000000	96.475754 
1699.000000	96.473585 
1698.000000	96.470970 
1697.000000	96.469630 
1696.000000	96.467222 
1695.000000	96.462519 
1694.000000	96.457211 
1693.000000	96.453197 
1692.000000	96.450395 
1691.000000	96.447679 
1690.000000	96.444190 
1689.000000	96.439527 
1688.000000	96.434354 
1687.000000	96.429573 
1686.000000	96.425796 
1685.000000	96.423553 
1684.000000	96.421362 
1683.000000	96.417314 
1682.000000	96.412645 
1681.000000	96.408647 
1680.000000	96.405773 
1679.000000	96.403700 
1678.000000	96.401497 
1677.000000	96.398733 
1676.000000	96.396131 
1675.000000	96.394376 
1674.000000	96.392199 
1673.000000	96.388880 
1672.000000	96.385260 
1671.000000	96.382081 
1670.000000	96.379246 
1669.000000	96.376259 
1668.000000	96.373844 
1667.000000	96.372773 
1666.000000	96.372176 
1665.000000	96.371134 
1664.000000	96.369957 
1663.000000	96.369664 
1662.000000	96.368823 
1661.000000	96.364468 
1660.000000	96.358143 
1659.000000	96.353839 
1658.000000	96.352130 
1657.000000	96.350652 
1656.000000	96.348056 
1655.000000	96.344195 
1654.000000	96.340084 
1653.000000	96.338929 
1652.000000	96.332149 
1651.000000	96.321560 
1650.000000	96.313671 
1649.000000	96.310323 
1648.000000	96.309550 
1647.000000	96.310139 
1646.000000	96.311207 
1645.000000	96.311638 
1644.000000	96.311043 
1643.000000	96.310589 
1642.000000	96.311371 
1641.000000	96.312241 
1640.000000	96.312946 
1639.000000	96.312618 
1638.000000	96.310605 
1637.000000	96.306964 
1636.000000	96.303977 
1635.000000	96.302442 
1634.000000	96.299613 
1633.000000	96.295401 
1632.000000	96.289900 
1631.000000	96.284285 
1630.000000	96.279443 
1629.000000	96.274374 
1628.000000	96.267750 
1627.000000	96.260697 
1626.000000	96.253422 
1625.000000	96.245027 
1624.000000	96.237778 
1623.000000	96.235710 
1622.000000	96.237529 
1621.000000	96.238480 
1620.000000	96.239663 
1619.000000	96.245179 
1618.000000	96.256278 
1617.000000	96.268533 
1616.000000	96.276291 
1615.000000	96.280785 
1614.000000	96.285627 
1613.000000	96.290348 
1612.000000	96.294376 
1611.000000	96.300204 
1610.000000	96.308219 
1609.000000	96.316028 
1608.000000	96.324123 
1607.000000	96.334782 
1606.000000	96.345461 
1605.000000	96.352803 
1604.000000	96.359604 
1603.000000	96.368279 
1602.000000	96.375577 
1601.000000	96.378515 
1600.000000	96.380233 
1599.000000	96.385204 
1598.000000	96.392388 
1597.000000	96.398551 
1596.000000	96.404014 
1595.000000	96.411326 
1594.000000	96.420131 
1593.000000	96.427586 
1592.000000	96.433177 
1591.000000	96.438732 
1590.000000	96.444296 
1589.000000	96.448177 
1588.000000	96.451133 
1587.000000	96.455669 
1586.000000	96.461586 
1585.000000	96.465375 
1584.000000	96.467112 
1583.000000	96.470341 
1582.000000	96.475030 
1581.000000	96.478265 
1580.000000	96.480141 
1579.000000	96.483623 
1578.000000	96.490410 
1577.000000	96.500914 
1576.000000	96.512649 
1575.000000	96.519235 
1574.000000	96.517940 
1573.000000	96.512824 
1572.000000	96.509654 
1571.000000	96.512132 
1570.000000	96.518815 
1569.000000	96.522752 
1568.000000	96.523422 
1567.000000	96.525067 
1566.000000	96.527726 
1565.000000	96.528989 
1564.000000	96.529517 
1563.000000	96.528462 
1562.000000	96.523566 
1561.000000	96.510907 
1560.000000	96.502737 
1559.000000	96.509657 
1558.000000	96.513740 
1557.000000	96.508609 
1556.000000	96.503913 
1555.000000	96.502327 
1554.000000	96.501330 
1553.000000	96.499584 
1552.000000	96.497678 
1551.000000	96.493024 
1550.000000	96.484698 
1549.000000	96.476777 
1548.000000	96.473830 
1547.000000	96.475280 
1546.000000	96.475093 
1545.000000	96.468130 
1544.000000	96.455752 
1543.000000	96.442419 
1542.000000	96.432227 
1541.000000	96.427525 
1540.000000	96.423866 
1539.000000	96.416070 
1538.000000	96.404353 
1537.000000	96.391198 
1536.000000	96.378698 
1535.000000	96.369191 
1534.000000	96.363111 
1533.000000	96.357869 
1532.000000	96.350358 
1531.000000	96.340274 
1530.000000	96.329300 
1529.000000	96.318079 
1528.000000	96.305883 
1527.000000	96.293129 
1526.000000	96.281092 
1525.000000	96.270670 
1524.000000	96.262428 
1523.000000	96.256002 
1522.000000	96.248734 
1521.000000	96.236609 
1520.000000	96.219794 
1519.000000	96.202915 
1518.000000	96.188369 
1517.000000	96.175339 
1516.000000	96.163043 
1515.000000	96.152543 
1514.000000	96.144191 
1513.000000	96.136371 
1512.000000	96.126559 
1511.000000	96.113344 
1510.000000	96.098128 
1509.000000	96.082888 
1508.000000	96.069361 
1507.000000	96.058497 
1506.000000	96.050017 
1505.000000	96.040497 
1504.000000	96.028524 
1503.000000	96.015043 
1502.000000	96.001001 
1501.000000	95.987229 
1500.000000	95.974536 
1499.000000	95.962648 
1498.000000	95.950242 
1497.000000	95.937419 
1496.000000	95.925414 
1495.000000	95.915093 
1494.000000	95.906668 
1493.000000	95.899544 
1492.000000	95.892139 
1491.000000	95.882660 
1490.000000	95.870698 
1489.000000	95.858063 
1488.000000	95.845719 
1487.000000	95.833679 
1486.000000	95.823013 
1485.000000	95.811983 
1484.000000	95.799374 
1483.000000	95.786890 
1482.000000	95.775557 
1481.000000	95.764535 
1480.000000	95.752256 
1479.000000	95.739434 
1478.000000	95.727607 
1477.000000	95.716463 
1476.000000	95.703105 
1475.000000	95.686731 
1474.000000	95.670425 
1473.000000	95.657957 
1472.000000	95.650104 
1471.000000	95.643844 
1470.000000	95.637397 
1469.000000	95.630063 
1468.000000	95.619747 
1467.000000	95.605662 
1466.000000	95.591166 
1465.000000	95.580848 
1464.000000	95.575920 
1463.000000	95.571333 
1462.000000	95.563076 
1461.000000	95.552089 
1460.000000	95.540827 
1459.000000	95.528117 
1458.000000	95.508993 
1457.000000	95.487256 
1456.000000	95.474601 
1455.000000	95.470459 
1454.000000	95.465987 
1453.000000	95.458920 
1452.000000	95.452539 
1451.000000	95.450503 
1450.000000	95.454336 
1449.000000	95.462908 
1448.000000	95.469912 
1447.000000	95.469697 
1446.000000	95.463081 
1445.000000	95.456614 
1444.000000	95.455843 
1443.000000	95.457657 
1442.000000	95.456645 
1441.000000	95.452395 
1440.000000	95.448138 
1439.000000	95.443339 
1438.000000	95.435320 
1437.000000	95.427593 
1436.000000	95.427322 
1435.000000	95.432639 
1434.000000	95.438234 
1433.000000	95.444578 
1432.000000	95.453549 
1431.000000	95.463364 
1430.000000	95.469834 
1429.000000	95.473225 
1428.000000	95.476577 
1427.000000	95.482144 
1426.000000	95.489472 
1425.000000	95.497929 
1424.000000	95.509152 
1423.000000	95.520235 
1422.000000	95.526979 
1421.000000	95.530931 
1420.000000	95.537203 
1419.000000	95.543929 
1418.000000	95.545685 
1417.000000	95.548489 
1416.000000	95.561546 
1415.000000	95.582906 
1414.000000	95.602332 
1413.000000	95.613665 
1412.000000	95.620625 
1411.000000	95.628714 
1410.000000	95.638857 
1409.000000	95.651048 
1408.000000	95.665156 
1407.000000	95.679786 
1406.000000	95.692822 
1405.000000	95.705043 
1404.000000	95.720297 
1403.000000	95.736845 
1402.000000	95.749954 
1401.000000	95.761135 
1400.000000	95.776957 
1399.000000	95.799073 
1398.000000	95.820530 
1397.000000	95.836128 
1396.000000	95.848582 
1395.000000	95.863679 
1394.000000	95.882131 
1393.000000	95.901265 
1392.000000	95.921039 
1391.000000	95.941488 
1390.000000	95.960723 
1389.000000	95.976821 
1388.000000	95.989404 
1387.000000	95.999904 
1386.000000	96.010956 
1385.000000	96.025460 
1384.000000	96.044871 
1383.000000	96.066259 
1382.000000	96.084427 
1381.000000	96.097263 
1380.000000	96.106831 
1379.000000	96.116852 
1378.000000	96.129570 
1377.000000	96.144708 
1376.000000	96.160189 
1375.000000	96.173875 
1374.000000	96.185445 
1373.000000	96.197793 
1372.000000	96.213296 
1371.000000	96.230739 
1370.000000	96.246522 
1369.000000	96.258623 
1368.000000	96.269977 
1367.000000	96.283701 
1366.000000	96.298507 
1365.000000	96.311003 
1364.000000	96.318940 
1363.000000	96.322680 
1362.000000	96.325703 
1361.000000	96.332424 
1360.000000	96.344819 
1359.000000	96.361673 
1358.000000	96.379428 
1357.000000	96.394414 
1356.000000	96.405300 
1355.000000	96.413109 
1354.000000	96.419528 
1353.000000	96.426538 
1352.000000	96.434682 
1351.000000	96.444100 
1350.000000	96.454471 
1349.000000	96.463740 
1348.000000	96.470258 
1347.000000	96.474024 
1346.000000	96.476671 
1345.000000	96.480430 
1344.000000	96.487043 
1343.000000	96.496690 
1342.000000	96.507199 
1341.000000	96.514565 
1340.000000	96.515944 
1339.000000	96.513038 
1338.000000	96.510798 
1337.000000	96.512544 
1336.000000	96.517484 
1335.000000	96.522535 
1334.000000	96.525865 
1333.000000	96.528416 
1332.000000	96.531839 
1331.000000	96.536126 
1330.000000	96.539457 
1329.000000	96.540516 
1328.000000	96.540065 
1327.000000	96.540391 
1326.000000	96.542424 
1325.000000	96.544256 
1324.000000	96.543734 
1323.000000	96.540445 
1322.000000	96.535640 
1321.000000	96.531200 
1320.000000	96.528624 
1319.000000	96.528269 
1318.000000	96.529650 
1317.000000	96.532402 
1316.000000	96.535880 
1315.000000	96.538123 
1314.000000	96.537020 
1313.000000	96.533362 
1312.000000	96.530716 
1311.000000	96.531443 
1310.000000	96.534460 
1309.000000	96.538052 
1308.000000	96.542149 
1307.000000	96.546799 
1306.000000	96.549982 
1305.000000	96.549460 
1304.000000	96.546201 
1303.000000	96.542982 
1302.000000	96.540817 
1301.000000	96.538874 
1300.000000	96.537360 
1299.000000	96.537609 
1298.000000	96.539334 
1297.000000	96.540118 
1296.000000	96.538363 
1295.000000	96.535454 
1294.000000	96.534215 
1293.000000	96.536333 
1292.000000	96.541278 
1291.000000	96.546485 
1290.000000	96.548679 
1289.000000	96.546254 
1288.000000	96.540789 
1287.000000	96.535587 
1286.000000	96.532551 
1285.000000	96.531434 
1284.000000	96.531641 
1283.000000	96.532797 
1282.000000	96.533647 
1281.000000	96.532254 
1280.000000	96.528459 
1279.000000	96.525047 
1278.000000	96.525442 
1277.000000	96.530559 
1276.000000	96.538174 
1275.000000	96.545009 
1274.000000	96.548935 
1273.000000	96.549790 
1272.000000	96.548701 
1271.000000	96.546697 
1270.000000	96.544093 
1269.000000	96.541125 
1268.000000	96.538461 
1267.000000	96.536007 
1266.000000	96.532148 
1265.000000	96.526221 
1264.000000	96.521002 
1263.000000	96.520246 
1262.000000	96.523739 
1261.000000	96.527117 
1260.000000	96.527809 
1259.000000	96.528687 
1258.000000	96.533692 
1257.000000	96.541718 
1256.000000	96.547384 
1255.000000	96.547647 
1254.000000	96.545383 
1253.000000	96.545180 
1252.000000	96.547005 
1251.000000	96.546295 
1250.000000	96.540144 
1249.000000	96.531173 
1248.000000	96.524234 
1247.000000	96.520499 
1246.000000	96.516693 
1245.000000	96.509958 
1244.000000	96.501230 
1243.000000	96.493278 
1242.000000	96.487207 
1241.000000	96.481873 
1240.000000	96.475449 
1239.000000	96.466457 
1238.000000	96.454370 
1237.000000	96.440398 
1236.000000	96.427006 
1235.000000	96.415654 
1234.000000	96.405254 
1233.000000	96.393278 
1232.000000	96.377616 
1231.000000	96.357144 
1230.000000	96.332038 
1229.000000	96.304289 
1228.000000	96.276159 
1227.000000	96.246805 
1226.000000	96.211727 
1225.000000	96.167098 
1224.000000	96.113940 
1223.000000	96.056856 
1222.000000	95.999270 
1221.000000	95.940883 
1220.000000	95.878987 
1219.000000	95.810853 
1218.000000	95.735443 
1217.000000	95.654233 
1216.000000	95.569906 
1215.000000	95.483434 
1214.000000	95.393795 
1213.000000	95.301782 
1212.000000	95.211544 
1211.000000	95.125290 
1210.000000	95.038529 
1209.000000	94.944930 
1208.000000	94.845128 
1207.000000	94.746465 
1206.000000	94.653725 
1205.000000	94.564021 
1204.000000	94.471788 
1203.000000	94.375179 
1202.000000	94.276392 
1201.000000	94.178586 
1200.000000	94.083852 
1199.000000	93.992166 
1198.000000	93.901288 
1197.000000	93.809079 
1196.000000	93.715499 
1195.000000	93.620824 
1194.000000	93.523375 
1193.000000	93.421667 
1192.000000	93.317581 
1191.000000	93.214216 
1190.000000	93.111534 
1189.000000	93.007251 
1188.000000	92.900630 
1187.000000	92.791778 
1186.000000	92.678837 
1185.000000	92.560240 
1184.000000	92.438294 
1183.000000	92.315891 
1182.000000	92.191139 
1181.000000	92.060436 
1180.000000	91.925375 
1179.000000	91.790261 
1178.000000	91.653384 
1177.000000	91.507920 
1176.000000	91.352129 
1175.000000	91.192036 
1174.000000	91.032837 
1173.000000	90.874133 
1172.000000	90.715154 
1171.000000	90.557765 
1170.000000	90.402088 
1169.000000	90.245837 
1168.000000	90.090893 
1167.000000	89.945127 
1166.000000	89.816094 
1165.000000	89.709155 
1164.000000	89.632960 
1163.000000	89.598478 
1162.000000	89.608265 
1161.000000	89.650965 
1160.000000	89.707618 
1159.000000	89.758585 
1158.000000	89.785169 
1157.000000	89.773180 
1156.000000	89.718879 
1155.000000	89.628311 
1154.000000	89.510465 
1153.000000	89.374672 
1152.000000	89.232906 
1151.000000	89.096484 
1150.000000	88.968065 
1149.000000	88.842760 
1148.000000	88.718186 
1147.000000	88.596924 
1146.000000	88.478588 
1145.000000	88.357660 
1144.000000	88.231644 
1143.000000	88.104571 
1142.000000	87.980380 
1141.000000	87.859236 
1140.000000	87.741598 
1139.000000	87.628583 
1138.000000	87.516869 
1137.000000	87.400743 
1136.000000	87.280672 
1135.000000	87.162452 
1134.000000	87.046907 
1133.000000	86.928545 
1132.000000	86.805414 
1131.000000	86.681478 
1130.000000	86.557833 
1129.000000	86.430774 
1128.000000	86.300404 
1127.000000	86.171786 
1126.000000	86.045387 
1125.000000	85.915884 
1124.000000	85.782720 
1123.000000	85.652012 
1122.000000	85.525325 
1121.000000	85.396776 
1120.000000	85.264460 
1119.000000	85.134450 
1118.000000	85.010094 
1117.000000	84.888135 
1116.000000	84.768677 
1115.000000	84.657736 
1114.000000	84.555974 
1113.000000	84.455861 
1112.000000	84.353991 
1111.000000	84.255180 
1110.000000	84.160854 
1109.000000	84.065181 
1108.000000	83.965668 
1107.000000	83.866111 
1106.000000	83.766861 
1105.000000	83.663799 
1104.000000	83.558947 
1103.000000	83.459775 
1102.000000	83.365136 
1101.000000	83.265566 
1100.000000	83.159364 
1099.000000	83.056011 
1098.000000	82.961310 
1097.000000	82.871166 
1096.000000	82.783234 
1095.000000	82.700853 
1094.000000	82.622584 
1093.000000	82.541307 
1092.000000	82.457529 
1091.000000	82.381212 
1090.000000	82.317500 
1089.000000	82.262387 
1088.000000	82.213254 
1087.000000	82.170232 
1086.000000	82.126834 
1085.000000	82.074604 
1084.000000	82.018501 
1083.000000	81.972421 
1082.000000	81.937998 
1081.000000	81.903652 
1080.000000	81.865972 
1079.000000	81.834359 
1078.000000	81.811153 
1077.000000	81.784460 
1076.000000	81.745433 
1075.000000	81.696600 
1074.000000	81.638822 
1073.000000	81.565785 
1072.000000	81.475769 
1071.000000	81.373504 
1070.000000	81.255652 
1069.000000	81.109192 
1068.000000	80.929246 
1067.000000	80.725709 
1066.000000	80.509575 
1065.000000	80.286603 
1064.000000	80.066816 
1063.000000	79.862781 
1062.000000	79.672429 
1061.000000	79.479354 
1060.000000	79.275859 
1059.000000	79.071356 
1058.000000	78.874154 
1057.000000	78.680696 
1056.000000	78.487435 
1055.000000	78.297351 
1054.000000	78.109446 
1053.000000	77.917058 
1052.000000	77.721789 
1051.000000	77.533269 
1050.000000	77.350154 
1049.000000	77.159162 
1048.000000	76.957082 
1047.000000	76.754374 
1046.000000	76.554662 
1045.000000	76.350408 
1044.000000	76.140203 
1043.000000	75.931232 
1042.000000	75.723206 
1041.000000	75.508780 
1040.000000	75.292085 
1039.000000	75.087864 
1038.000000	74.899987 
1037.000000	74.719978 
1036.000000	74.547963 
1035.000000	74.394195 
1034.000000	74.258272 
1033.000000	74.129099 
1032.000000	74.007703 
1031.000000	73.907077 
1030.000000	73.826510 
1029.000000	73.749907 
1028.000000	73.673706 
1027.000000	73.612326 
1026.000000	73.570452 
1025.000000	73.533610 
1024.000000	73.492298 
1023.000000	73.452888 
1022.000000	73.418143 
1021.000000	73.379316 
1020.000000	73.334217 
1019.000000	73.292141 
1018.000000	73.254881 
1017.000000	73.213108 
1016.000000	73.166335 
1015.000000	73.125785 
1014.000000	73.093054 
1013.000000	73.057118 
1012.000000	73.016833 
1011.000000	72.985024 
1010.000000	72.965863 
1009.000000	72.949659 
1008.000000	72.934261 
1007.000000	72.929989 
1006.000000	72.939246 
1005.000000	72.953225 
1004.000000	72.972557 
1003.000000	73.008434 
1002.000000	73.058832 
1001.000000	73.106894 
1000.000000	73.148325 
999.000000	 73.197452 
998.000000	 73.260287 
997.000000	 73.324668 
996.000000	 73.383738 
995.000000	 73.447131 
994.000000	 73.521397 
993.000000	 73.600277 
992.000000	 73.681199 
991.000000	 73.771164 
990.000000	 73.869968 
989.000000	 73.967706 
988.000000	 74.064993 
987.000000	 74.175638 
986.000000	 74.303652 
985.000000	 74.437850 
984.000000	 74.574525 
983.000000	 74.724577 
982.000000	 74.891565 
981.000000	 75.063318 
980.000000	 75.232628 
979.000000	 75.407220 
978.000000	 75.592311 
977.000000	 75.782448 
976.000000	 75.977251 
975.000000	 76.186330 
974.000000	 76.411065 
973.000000	 76.639097 
972.000000	 76.864188 
971.000000	 77.095072 
970.000000	 77.337678 
969.000000	 77.584402 
968.000000	 77.827387 
967.000000	 78.067829 
966.000000	 78.306733 
965.000000	 78.540835 
964.000000	 78.772496 
963.000000	 79.009635 
962.000000	 79.251534 
961.000000	 79.487964 
960.000000	 79.715229 
959.000000	 79.939281 
958.000000	 80.161084 
957.000000	 80.373874 
956.000000	 80.577554 
955.000000	 80.780958 
954.000000	 80.986767 
953.000000	 81.188030 
952.000000	 81.381660 
951.000000	 81.570835 
950.000000	 81.752634 
949.000000	 81.918988 
948.000000	 82.072372 
947.000000	 82.225220 
946.000000	 82.380536 
945.000000	 82.527914 
944.000000	 82.661874 
943.000000	 82.789225 
942.000000	 82.915484 
941.000000	 83.039112 
940.000000	 83.162839 
939.000000	 83.294895 
938.000000	 83.433811 
937.000000	 83.566646 
936.000000	 83.688005 
935.000000	 83.807882 
934.000000	 83.935951 
933.000000	 84.070766 
932.000000	 84.209160 
931.000000	 84.352837 
930.000000	 84.499631 
929.000000	 84.640105 
928.000000	 84.769215 
927.000000	 84.892395 
926.000000	 85.015872 
925.000000	 85.139119 
924.000000	 85.259017 
923.000000	 85.372551 
922.000000	 85.474589 
921.000000	 85.563334 
920.000000	 85.649011 
919.000000	 85.746280 
918.000000	 85.856187 
917.000000	 85.965505 
916.000000	 86.064946 
915.000000	 86.158308 
914.000000	 86.253641 
913.000000	 86.356349 
912.000000	 86.471552 
911.000000	 86.602197 
910.000000	 86.743574 
909.000000	 86.889637 
908.000000	 87.044293 
907.000000	 87.216260 
906.000000	 87.405074 
905.000000	 87.603418 
904.000000	 87.810268 
903.000000	 88.028754 
902.000000	 88.253566 
901.000000	 88.474181 
900.000000	 88.688856 
899.000000	 88.902597 
898.000000	 89.114223 
897.000000	 89.318931 
896.000000	 89.519961 
895.000000	 89.722480 
894.000000	 89.918551 
893.000000	 90.094533 
892.000000	 90.252103 
891.000000	 90.405877 
890.000000	 90.559951 
889.000000	 90.702024 
888.000000	 90.821842 
887.000000	 90.920844 
886.000000	 91.003201 
885.000000	 91.071999 
884.000000	 91.135295 
883.000000	 91.201030 
882.000000	 91.264544 
881.000000	 91.316545 
880.000000	 91.364876 
879.000000	 91.431843 
878.000000	 91.527699 
877.000000	 91.643633 
876.000000	 91.772336 
875.000000	 91.916355 
874.000000	 92.073536 
873.000000	 92.235434 
872.000000	 92.405537 
871.000000	 92.598721 
870.000000	 92.815255 
869.000000	 93.032999 
868.000000	 93.232740 
867.000000	 93.415572 
866.000000	 93.589178 
865.000000	 93.753404 
864.000000	 93.908443 
863.000000	 94.063503 
862.000000	 94.225811 
861.000000	 94.389328 
860.000000	 94.543068 
859.000000	 94.684156 
858.000000	 94.817085 
857.000000	 94.946817 
856.000000	 95.076804 
855.000000	 95.206457 
854.000000	 95.326592 
853.000000	 95.424834 
852.000000	 95.499288 
851.000000	 95.560775 
850.000000	 95.620360 
849.000000	 95.682454 
848.000000	 95.750400 
847.000000	 95.827347 
846.000000	 95.908165 
845.000000	 95.981098 
844.000000	 96.041834 
843.000000	 96.097163 
842.000000	 96.151521 
841.000000	 96.198886 
840.000000	 96.231109 
839.000000	 96.245229 
838.000000	 96.240396 
837.000000	 96.218454 
836.000000	 96.191994 
835.000000	 96.181122 
834.000000	 96.194531 
833.000000	 96.220433 
832.000000	 96.241601 
831.000000	 96.252622 
830.000000	 96.258620 
829.000000	 96.265895 
828.000000	 96.280821 
827.000000	 96.311141 
826.000000	 96.360121 
825.000000	 96.422350 
824.000000	 96.488294 
823.000000	 96.547651 
822.000000	 96.588557 
821.000000	 96.603618 
820.000000	 96.598639 
819.000000	 96.586406 
818.000000	 96.569609 
817.000000	 96.536665 
816.000000	 96.475117 
815.000000	 96.381326 
814.000000	 96.254748 
813.000000	 96.089796 
812.000000	 95.876822 
811.000000	 95.605444 
810.000000	 95.264144 
809.000000	 94.842577 
808.000000	 94.338693 
807.000000	 93.761496 
806.000000	 93.127247 
805.000000	 92.458639 
804.000000	 91.786928 
803.000000	 91.144293 
802.000000	 90.551232 
801.000000	 90.021480 
800.000000	 89.579034 
799.000000	 89.253501 
798.000000	 89.054044 
797.000000	 88.963173 
796.000000	 88.958788 
795.000000	 89.024442 
794.000000	 89.135365 
793.000000	 89.256706 
792.000000	 89.365257 
791.000000	 89.458814 
790.000000	 89.538847 
789.000000	 89.597141 
788.000000	 89.621831 
787.000000	 89.601230 
786.000000	 89.518834 
785.000000	 89.361108 
784.000000	 89.136704 
783.000000	 88.875957 
782.000000	 88.608068 
781.000000	 88.351808 
780.000000	 88.129394 
779.000000	 87.969882 
778.000000	 87.891464 
777.000000	 87.895335 
776.000000	 87.980194 
775.000000	 88.144036 
774.000000	 88.366893 
773.000000	 88.611891 
772.000000	 88.852114 
771.000000	 89.082598 
770.000000	 89.303341 
769.000000	 89.508264 
768.000000	 89.694709 
767.000000	 89.865210 
766.000000	 90.014354 
765.000000	 90.132124 
764.000000	 90.226841 
763.000000	 90.326567 
762.000000	 90.448633 
761.000000	 90.582927 
760.000000	 90.713038 
759.000000	 90.837972 
758.000000	 90.964169 
757.000000	 91.092344 
756.000000	 91.223972 
755.000000	 91.367565 
754.000000	 91.525601 
753.000000	 91.683776 
752.000000	 91.822938 
751.000000	 91.935337 
750.000000	 92.024761 
749.000000	 92.100584 
748.000000	 92.176956 
747.000000	 92.267313 
746.000000	 92.372352 
745.000000	 92.480678 
744.000000	 92.585812 
743.000000	 92.694653 
742.000000	 92.815978 
741.000000	 92.950215 
740.000000	 93.093941 
739.000000	 93.244181 
738.000000	 93.393939 
737.000000	 93.532328 
736.000000	 93.653296 
735.000000	 93.757804 
734.000000	 93.846935 
733.000000	 93.921243 
732.000000	 93.986074 
731.000000	 94.047580 
730.000000	 94.103145 
729.000000	 94.145345 
728.000000	 94.177670 
727.000000	 94.215303 
726.000000	 94.268228 
725.000000	 94.335685 
724.000000	 94.415431 
723.000000	 94.503974 
722.000000	 94.588996 
721.000000	 94.658668 
720.000000	 94.720953 
719.000000	 94.795299 
718.000000	 94.882787 
717.000000	 94.965090 
716.000000	 95.033245 
715.000000	 95.097642 
714.000000	 95.166725 
713.000000	 95.234550 
712.000000	 95.297855 
711.000000	 95.366391 
710.000000	 95.445002 
709.000000	 95.522227 
708.000000	 95.585651 
707.000000	 95.636000 
706.000000	 95.673959 
705.000000	 95.687761 
704.000000	 95.665282 
703.000000	 95.603326 
702.000000	 95.496961 
701.000000	 95.332075 
700.000000	 95.098125 
699.000000	 94.802506 
698.000000	 94.465909 
697.000000	 94.120151 
696.000000	 93.817860 
695.000000	 93.620653 
694.000000	 93.563565 
693.000000	 93.634557 
692.000000	 93.791997 
691.000000	 93.995288 
690.000000	 94.212954 
689.000000	 94.420229 
688.000000	 94.604578 
687.000000	 94.766302 
686.000000	 94.908453 
685.000000	 95.031206 
684.000000	 95.137953 
683.000000	 95.236499 
682.000000	 95.327238 
681.000000	 95.402031 
680.000000	 95.457285 
679.000000	 95.500974 
678.000000	 95.539648 
677.000000	 95.574799 
676.000000	 95.621765 
675.000000	 95.695106 
674.000000	 95.778330 
673.000000	 95.839641 
672.000000	 95.877790 
671.000000	 95.940299 
670.000000	 96.084333 
669.000000	 96.324488 
668.000000	 96.523712 
667.000000	 96.534081 
666.000000	 96.450639 
665.000000	 96.389783 
664.000000	 96.359228 
663.000000	 96.356667 
662.000000	 96.388311 
661.000000	 96.443801 
660.000000	 96.506471 
659.000000	 96.568608 
658.000000	 96.621761 
657.000000	 96.646997 
656.000000	 96.641450 
655.000000	 96.619656 
654.000000	 96.587013 
653.000000	 96.538026 
652.000000	 96.485255 
651.000000	 96.460095 
650.000000	 96.472161 

