4000.000000	99.281006 
3999.000000	99.280028 
3998.000000	99.276640 
3997.000000	99.272299 
3996.000000	99.268837 
3995.000000	99.267075 
3994.000000	99.266738 
3993.000000	99.266990 
3992.000000	99.267277 
3991.000000	99.267710 
3990.000000	99.268574 
3989.000000	99.269708 
3988.000000	99.270562 
3987.000000	99.270919 
3986.000000	99.271244 
3985.000000	99.272040 
3984.000000	99.273071 
3983.000000	99.273669 
3982.000000	99.273792 
3981.000000	99.274216 
3980.000000	99.275377 
3979.000000	99.276532 
3978.000000	99.276652 
3977.000000	99.275806 
3976.000000	99.275072 
3975.000000	99.275113 
3974.000000	99.275337 
3973.000000	99.274648 
3972.000000	99.272620 
3971.000000	99.269812 
3970.000000	99.267293 
3969.000000	99.265941 
3968.000000	99.266049 
3967.000000	99.267301 
3966.000000	99.268978 
3965.000000	99.270285 
3964.000000	99.270651 
3963.000000	99.269952 
3962.000000	99.268600 
3961.000000	99.267272 
3960.000000	99.266343 
3959.000000	99.265793 
3958.000000	99.265547 
3957.000000	99.265582 
3956.000000	99.265601 
3955.000000	99.264931 
3954.000000	99.263116 
3953.000000	99.260488 
3952.000000	99.258006 
3951.000000	99.256539 
3950.000000	99.256313 
3949.000000	99.256972 
3948.000000	99.257859 
3947.000000	99.258291 
3946.000000	99.257867 
3945.000000	99.256760 
3944.000000	99.255692 
3943.000000	99.255392 
3942.000000	99.256048 
3941.000000	99.257290 
3940.000000	99.258523 
3939.000000	99.259369 
3938.000000	99.259765 
3937.000000	99.259692 
3936.000000	99.259084 
3935.000000	99.257998 
3934.000000	99.256881 
3933.000000	99.256271 
3932.000000	99.256157 
3931.000000	99.255961 
3930.000000	99.255295 
3929.000000	99.254539 
3928.000000	99.254335 
3927.000000	99.254704 
3926.000000	99.255240 
3925.000000	99.255706 
3924.000000	99.256111 
3923.000000	99.256332 
3922.000000	99.256141 
3921.000000	99.255765 
3920.000000	99.255701 
3919.000000	99.256067 
3918.000000	99.256528 
3917.000000	99.256786 
3916.000000	99.256833 
3915.000000	99.256780 
3914.000000	99.256689 
3913.000000	99.256624 
3912.000000	99.256611 
3911.000000	99.256634 
3910.000000	99.256670 
3909.000000	99.256711 
3908.000000	99.256745 
3907.000000	99.256769 
3906.000000	99.256788 
3905.000000	99.256813 
3904.000000	99.256852 
3903.000000	99.256908 
3902.000000	99.256979 
3901.000000	99.257063 
3900.000000	99.257157 
3899.000000	99.257255 
3898.000000	99.257346 
3897.000000	99.257422 
3896.000000	99.257477 
3895.000000	99.257506 
3894.000000	99.257506 
3893.000000	99.257479 
3892.000000	99.257429 
3891.000000	99.257361 
3890.000000	99.257280 
3889.000000	99.257193 
3888.000000	99.257103 
3887.000000	99.257017 
3886.000000	99.256943 
3885.000000	99.256879 
3884.000000	99.256819 
3883.000000	99.256751 
3882.000000	99.256678 
3881.000000	99.256615 
3880.000000	99.256583 
3879.000000	99.256586 
3878.000000	99.256611 
3877.000000	99.256638 
3876.000000	99.256661 
3875.000000	99.256683 
3874.000000	99.256712 
3873.000000	99.256746 
3872.000000	99.256782 
3871.000000	99.256819 
3870.000000	99.256868 
3869.000000	99.256938 
3868.000000	99.257038 
3867.000000	99.257177 
3866.000000	99.257322 
3865.000000	99.257455 
3864.000000	99.257650 
3863.000000	99.257956 
3862.000000	99.258270 
3861.000000	99.258502 
3860.000000	99.258722 
3859.000000	99.258911 
3858.000000	99.258793 
3857.000000	99.258127 
3856.000000	99.257291 
3855.000000	99.257134 
3854.000000	99.257335 
3853.000000	99.256580 
3852.000000	99.255811 
3851.000000	99.256366 
3850.000000	99.257675 
3849.000000	99.259155 
3848.000000	99.260797 
3847.000000	99.262509 
3846.000000	99.263888 
3845.000000	99.264643 
3844.000000	99.264939 
3843.000000	99.265241 
3842.000000	99.265703 
3841.000000	99.266145 
3840.000000	99.266548 
3839.000000	99.267011 
3838.000000	99.267479 
3837.000000	99.267821 
3836.000000	99.268109 
3835.000000	99.268419 
3834.000000	99.268683 
3833.000000	99.268917 
3832.000000	99.269283 
3831.000000	99.269855 
3830.000000	99.270500 
3829.000000	99.270998 
3828.000000	99.271316 
3827.000000	99.271707 
3826.000000	99.272375 
3825.000000	99.273146 
3824.000000	99.273605 
3823.000000	99.273590 
3822.000000	99.273311 
3821.000000	99.273123 
3820.000000	99.273227 
3819.000000	99.273419 
3818.000000	99.273487 
3817.000000	99.273503 
3816.000000	99.273611 
3815.000000	99.273826 
3814.000000	99.274078 
3813.000000	99.274311 
3812.000000	99.274524 
3811.000000	99.274723 
3810.000000	99.274906 
3809.000000	99.275054 
3808.000000	99.275147 
3807.000000	99.275187 
3806.000000	99.275189 
3805.000000	99.275167 
3804.000000	99.275126 
3803.000000	99.275074 
3802.000000	99.275026 
3801.000000	99.275002 
3800.000000	99.275010 
3799.000000	99.275045 
3798.000000	99.275096 
3797.000000	99.275157 
3796.000000	99.275232 
3795.000000	99.275319 
3794.000000	99.275414 
3793.000000	99.275512 
3792.000000	99.275609 
3791.000000	99.275703 
3790.000000	99.275791 
3789.000000	99.275866 
3788.000000	99.275921 
3787.000000	99.275958 
3786.000000	99.275989 
3785.000000	99.276028 
3784.000000	99.276087 
3783.000000	99.276166 
3782.000000	99.276260 
3781.000000	99.276360 
3780.000000	99.276468 
3779.000000	99.276594 
3778.000000	99.276751 
3777.000000	99.276935 
3776.000000	99.277119 
3775.000000	99.277284 
3774.000000	99.277440 
3773.000000	99.277596 
3772.000000	99.277724 
3771.000000	99.277804 
3770.000000	99.277847 
3769.000000	99.277883 
3768.000000	99.277912 
3767.000000	99.277897 
3766.000000	99.277844 
3765.000000	99.277850 
3764.000000	99.278029 
3763.000000	99.278369 
3762.000000	99.278671 
3761.000000	99.278778 
3760.000000	99.278731 
3759.000000	99.278662 
3758.000000	99.278624 
3757.000000	99.278559 
3756.000000	99.278367 
3755.000000	99.277949 
3754.000000	99.277358 
3753.000000	99.276975 
3752.000000	99.277093 
3751.000000	99.276994 
3750.000000	99.275776 
3749.000000	99.274267 
3748.000000	99.273405 
3747.000000	99.272368 
3746.000000	99.271096 
3745.000000	99.271315 
3744.000000	99.274058 
3743.000000	99.278706 
3742.000000	99.282183 
3741.000000	99.281393 
3740.000000	99.277455 
3739.000000	99.274475 
3738.000000	99.275191 
3737.000000	99.278523 
3736.000000	99.281745 
3735.000000	99.283199 
3734.000000	99.281994 
3733.000000	99.277778 
3732.000000	99.272443 
3731.000000	99.269436 
3730.000000	99.269598 
3729.000000	99.270251 
3728.000000	99.269577 
3727.000000	99.269101 
3726.000000	99.270703 
3725.000000	99.273238 
3724.000000	99.273854 
3723.000000	99.271643 
3722.000000	99.267635 
3721.000000	99.262748 
3720.000000	99.256816 
3719.000000	99.250071 
3718.000000	99.244844 
3717.000000	99.243455 
3716.000000	99.245487 
3715.000000	99.248711 
3714.000000	99.252488 
3713.000000	99.257980 
3712.000000	99.263484 
3711.000000	99.264139 
3710.000000	99.257871 
3709.000000	99.246565 
3708.000000	99.233367 
3707.000000	99.220913 
3706.000000	99.210428 
3705.000000	99.201792 
3704.000000	99.194169 
3703.000000	99.186738 
3702.000000	99.178950 
3701.000000	99.171048 
3700.000000	99.163726 
3699.000000	99.156409 
3698.000000	99.148540 
3697.000000	99.141688 
3696.000000	99.138039 
3695.000000	99.137822 
3694.000000	99.138767 
3693.000000	99.137980 
3692.000000	99.133315 
3691.000000	99.123422 
3690.000000	99.108687 
3689.000000	99.093383 
3688.000000	99.084342 
3687.000000	99.083685 
3686.000000	99.086497 
3685.000000	99.087659 
3684.000000	99.087505 
3683.000000	99.088995 
3682.000000	99.092309 
3681.000000	99.093956 
3680.000000	99.091337 
3679.000000	99.085096 
3678.000000	99.076642 
3677.000000	99.066726 
3676.000000	99.055624 
3675.000000	99.047072 
3674.000000	99.045716 
3673.000000	99.046689 
3672.000000	99.042045 
3671.000000	99.033309 
3670.000000	99.026678 
3669.000000	99.024466 
3668.000000	99.024604 
3667.000000	99.023539 
3666.000000	99.020581 
3665.000000	99.018144 
3664.000000	99.017584 
3663.000000	99.017718 
3662.000000	99.016952 
3661.000000	99.014925 
3660.000000	99.012447 
3659.000000	99.010424 
3658.000000	99.009633 
3657.000000	99.010877 
3656.000000	99.014663 
3655.000000	99.020973 
3654.000000	99.027216 
3653.000000	99.030052 
3652.000000	99.030628 
3651.000000	99.033030 
3650.000000	99.036384 
3649.000000	99.034923 
3648.000000	99.028925 
3647.000000	99.025239 
3646.000000	99.027350 
3645.000000	99.033258 
3644.000000	99.039995 
3643.000000	99.046912 
3642.000000	99.054424 
3641.000000	99.061329 
3640.000000	99.065428 
3639.000000	99.066161 
3638.000000	99.065515 
3637.000000	99.065651 
3636.000000	99.066548 
3635.000000	99.066932 
3634.000000	99.066112 
3633.000000	99.064155 
3632.000000	99.061317 
3631.000000	99.059568 
3630.000000	99.061967 
3629.000000	99.067404 
3628.000000	99.071919 
3627.000000	99.074383 
3626.000000	99.074392 
3625.000000	99.072710 
3624.000000	99.071577 
3623.000000	99.071407 
3622.000000	99.070429 
3621.000000	99.067590 
3620.000000	99.064184 
3619.000000	99.062338 
3618.000000	99.063372 
3617.000000	99.066883 
3616.000000	99.071578 
3615.000000	99.077352 
3614.000000	99.085002 
3613.000000	99.094098 
3612.000000	99.102437 
3611.000000	99.107806 
3610.000000	99.110103 
3609.000000	99.110967 
3608.000000	99.111376 
3607.000000	99.110995 
3606.000000	99.109613 
3605.000000	99.108338 
3604.000000	99.109093 
3603.000000	99.112664 
3602.000000	99.117555 
3601.000000	99.121068 
3600.000000	99.121661 
3599.000000	99.119909 
3598.000000	99.117950 
3597.000000	99.117910 
3596.000000	99.120370 
3595.000000	99.124146 
3594.000000	99.127325 
3593.000000	99.128831 
3592.000000	99.128616 
3591.000000	99.126968 
3590.000000	99.124579 
3589.000000	99.122797 
3588.000000	99.122818 
3587.000000	99.124743 
3586.000000	99.127545 
3585.000000	99.129910 
3584.000000	99.131380 
3583.000000	99.132484 
3582.000000	99.133744 
3581.000000	99.135008 
3580.000000	99.135781 
3579.000000	99.135910 
3578.000000	99.135688 
3577.000000	99.135489 
3576.000000	99.135384 
3575.000000	99.135216 
3574.000000	99.134868 
3573.000000	99.134349 
3572.000000	99.133705 
3571.000000	99.132917 
3570.000000	99.132071 
3569.000000	99.131545 
3568.000000	99.131762 
3567.000000	99.132709 
3566.000000	99.133885 
3565.000000	99.134669 
3564.000000	99.134758 
3563.000000	99.134309 
3562.000000	99.133755 
3561.000000	99.133475 
3560.000000	99.133519 
3559.000000	99.133669 
3558.000000	99.133693 
3557.000000	99.133542 
3556.000000	99.133336 
3555.000000	99.133196 
3554.000000	99.133145 
3553.000000	99.133124 
3552.000000	99.133056 
3551.000000	99.132872 
3550.000000	99.132543 
3549.000000	99.132141 
3548.000000	99.131815 
3547.000000	99.131648 
3546.000000	99.131566 
3545.000000	99.131437 
3544.000000	99.131238 
3543.000000	99.131042 
3542.000000	99.130897 
3541.000000	99.130772 
3540.000000	99.130621 
3539.000000	99.130432 
3538.000000	99.130224 
3537.000000	99.130025 
3536.000000	99.129842 
3535.000000	99.129661 
3534.000000	99.129464 
3533.000000	99.129255 
3532.000000	99.129074 
3531.000000	99.128958 
3530.000000	99.128895 
3529.000000	99.128806 
3528.000000	99.128614 
3527.000000	99.128291 
3526.000000	99.127897 
3525.000000	99.127566 
3524.000000	99.127426 
3523.000000	99.127519 
3522.000000	99.127763 
3521.000000	99.127985 
3520.000000	99.128074 
3519.000000	99.128030 
3518.000000	99.127893 
3517.000000	99.127656 
3516.000000	99.127285 
3515.000000	99.126834 
3514.000000	99.126453 
3513.000000	99.126248 
3512.000000	99.126189 
3511.000000	99.126137 
3510.000000	99.125974 
3509.000000	99.125708 
3508.000000	99.125430 
3507.000000	99.125198 
3506.000000	99.124992 
3505.000000	99.124769 
3504.000000	99.124532 
3503.000000	99.124323 
3502.000000	99.124168 
3501.000000	99.124046 
3500.000000	99.123914 
3499.000000	99.123744 
3498.000000	99.123535 
3497.000000	99.123286 
3496.000000	99.122980 
3495.000000	99.122601 
3494.000000	99.122178 
3493.000000	99.121787 
3492.000000	99.121494 
3491.000000	99.121290 
3490.000000	99.121116 
3489.000000	99.120926 
3488.000000	99.120699 
3487.000000	99.120375 
3486.000000	99.119875 
3485.000000	99.119246 
3484.000000	99.118713 
3483.000000	99.118458 
3482.000000	99.118460 
3481.000000	99.118542 
3480.000000	99.118573 
3479.000000	99.118529 
3478.000000	99.118340 
3477.000000	99.117828 
3476.000000	99.116896 
3475.000000	99.115692 
3474.000000	99.114599 
3473.000000	99.113945 
3472.000000	99.113753 
3471.000000	99.113734 
3470.000000	99.113569 
3469.000000	99.113215 
3468.000000	99.112921 
3467.000000	99.112948 
3466.000000	99.113291 
3465.000000	99.113661 
3464.000000	99.113649 
3463.000000	99.112951 
3462.000000	99.111558 
3461.000000	99.109853 
3460.000000	99.108388 
3459.000000	99.107409 
3458.000000	99.106688 
3457.000000	99.105878 
3456.000000	99.105016 
3455.000000	99.104520 
3454.000000	99.104736 
3453.000000	99.105683 
3452.000000	99.107114 
3451.000000	99.108608 
3450.000000	99.109615 
3449.000000	99.109692 
3448.000000	99.108785 
3447.000000	99.107245 
3446.000000	99.105503 
3445.000000	99.103866 
3444.000000	99.102610 
3443.000000	99.101938 
3442.000000	99.101695 
3441.000000	99.101392 
3440.000000	99.100709 
3439.000000	99.099760 
3438.000000	99.098767 
3437.000000	99.097746 
3436.000000	99.096769 
3435.000000	99.096258 
3434.000000	99.096623 
3433.000000	99.097693 
3432.000000	99.098786 
3431.000000	99.099433 
3430.000000	99.099728 
3429.000000	99.099942 
3428.000000	99.100011 
3427.000000	99.099621 
3426.000000	99.098769 
3425.000000	99.097931 
3424.000000	99.097563 
3423.000000	99.097589 
3422.000000	99.097554 
3421.000000	99.097216 
3420.000000	99.096768 
3419.000000	99.096488 
3418.000000	99.096390 
3417.000000	99.096332 
3416.000000	99.096247 
3415.000000	99.096137 
3414.000000	99.095953 
3413.000000	99.095622 
3412.000000	99.095173 
3411.000000	99.094739 
3410.000000	99.094438 
3409.000000	99.094276 
3408.000000	99.094180 
3407.000000	99.094070 
3406.000000	99.093908 
3405.000000	99.093708 
3404.000000	99.093500 
3403.000000	99.093304 
3402.000000	99.093125 
3401.000000	99.092958 
3400.000000	99.092797 
3399.000000	99.092642 
3398.000000	99.092494 
3397.000000	99.092353 
3396.000000	99.092220 
3395.000000	99.092095 
3394.000000	99.091980 
3393.000000	99.091877 
3392.000000	99.091786 
3391.000000	99.091710 
3390.000000	99.091652 
3389.000000	99.091620 
3388.000000	99.091618 
3387.000000	99.091648 
3386.000000	99.091707 
3385.000000	99.091789 
3384.000000	99.091888 
3383.000000	99.091999 
3382.000000	99.092116 
3381.000000	99.092249 
3380.000000	99.092425 
3379.000000	99.092649 
3378.000000	99.092877 
3377.000000	99.093070 
3376.000000	99.093253 
3375.000000	99.093490 
3374.000000	99.093762 
3373.000000	99.093940 
3372.000000	99.093933 
3371.000000	99.093836 
3370.000000	99.093887 
3369.000000	99.094250 
3368.000000	99.094881 
3367.000000	99.095539 
3366.000000	99.095965 
3365.000000	99.096044 
3364.000000	99.095870 
3363.000000	99.095666 
3362.000000	99.095613 
3361.000000	99.095739 
3360.000000	99.095960 
3359.000000	99.096199 
3358.000000	99.096433 
3357.000000	99.096686 
3356.000000	99.097006 
3355.000000	99.097466 
3354.000000	99.098170 
3353.000000	99.099248 
3352.000000	99.100741 
3351.000000	99.102436 
3350.000000	99.103856 
3349.000000	99.104571 
3348.000000	99.104605 
3347.000000	99.104467 
3346.000000	99.104677 
3345.000000	99.105257 
3344.000000	99.105678 
3343.000000	99.105323 
3342.000000	99.104059 
3341.000000	99.102432 
3340.000000	99.101208 
3339.000000	99.100664 
3338.000000	99.100510 
3337.000000	99.100387 
3336.000000	99.100271 
3335.000000	99.100343 
3334.000000	99.100577 
3333.000000	99.100703 
3332.000000	99.100544 
3331.000000	99.100227 
3330.000000	99.100015 
3329.000000	99.100022 
3328.000000	99.100193 
3327.000000	99.100478 
3326.000000	99.100880 
3325.000000	99.101325 
3324.000000	99.101589 
3323.000000	99.101475 
3322.000000	99.101041 
3321.000000	99.100569 
3320.000000	99.100327 
3319.000000	99.100368 
3318.000000	99.100577 
3317.000000	99.100812 
3316.000000	99.100975 
3315.000000	99.101022 
3314.000000	99.100961 
3313.000000	99.100855 
3312.000000	99.100778 
3311.000000	99.100764 
3310.000000	99.100799 
3309.000000	99.100852 
3308.000000	99.100897 
3307.000000	99.100918 
3306.000000	99.100921 
3305.000000	99.100925 
3304.000000	99.100950 
3303.000000	99.101010 
3302.000000	99.101108 
3301.000000	99.101241 
3300.000000	99.101386 
3299.000000	99.101512 
3298.000000	99.101583 
3297.000000	99.101592 
3296.000000	99.101583 
3295.000000	99.101625 
3294.000000	99.101760 
3293.000000	99.101978 
3292.000000	99.102262 
3291.000000	99.102611 
3290.000000	99.102986 
3289.000000	99.103281 
3288.000000	99.103402 
3287.000000	99.103363 
3286.000000	99.103262 
3285.000000	99.103158 
3284.000000	99.103035 
3283.000000	99.102901 
3282.000000	99.102839 
3281.000000	99.102916 
3280.000000	99.103066 
3279.000000	99.103133 
3278.000000	99.103076 
3277.000000	99.103051 
3276.000000	99.103213 
3275.000000	99.103501 
3274.000000	99.103698 
3273.000000	99.103718 
3272.000000	99.103726 
3271.000000	99.103948 
3270.000000	99.104418 
3269.000000	99.104935 
3268.000000	99.105232 
3267.000000	99.105204 
3266.000000	99.104984 
3265.000000	99.104848 
3264.000000	99.104978 
3263.000000	99.105317 
3262.000000	99.105639 
3261.000000	99.105769 
3260.000000	99.105681 
3259.000000	99.105410 
3258.000000	99.104975 
3257.000000	99.104462 
3256.000000	99.104119 
3255.000000	99.104149 
3254.000000	99.104461 
3253.000000	99.104765 
3252.000000	99.104930 
3251.000000	99.105121 
3250.000000	99.105513 
3249.000000	99.106003 
3248.000000	99.106294 
3247.000000	99.106239 
3246.000000	99.105972 
3245.000000	99.105755 
3244.000000	99.105720 
3243.000000	99.105808 
3242.000000	99.105909 
3241.000000	99.105971 
3240.000000	99.105982 
3239.000000	99.105940 
3238.000000	99.105913 
3237.000000	99.106071 
3236.000000	99.106554 
3235.000000	99.107290 
3234.000000	99.107964 
3233.000000	99.108238 
3232.000000	99.108013 
3231.000000	99.107493 
3230.000000	99.107020 
3229.000000	99.106755 
3228.000000	99.106651 
3227.000000	99.106675 
3226.000000	99.106975 
3225.000000	99.107707 
3224.000000	99.108731 
3223.000000	99.109648 
3222.000000	99.110202 
3221.000000	99.110508 
3220.000000	99.110828 
3219.000000	99.111203 
3218.000000	99.111429 
3217.000000	99.111333 
3216.000000	99.110967 
3215.000000	99.110568 
3214.000000	99.110431 
3213.000000	99.110733 
3212.000000	99.111361 
3211.000000	99.111941 
3210.000000	99.112147 
3209.000000	99.111976 
3208.000000	99.111671 
3207.000000	99.111410 
3206.000000	99.111182 
3205.000000	99.110983 
3204.000000	99.110999 
3203.000000	99.111484 
3202.000000	99.112508 
3201.000000	99.113801 
3200.000000	99.114881 
3199.000000	99.115422 
3198.000000	99.115491 
3197.000000	99.115407 
3196.000000	99.115355 
3195.000000	99.115270 
3194.000000	99.115145 
3193.000000	99.115280 
3192.000000	99.116001 
3191.000000	99.117228 
3190.000000	99.118425 
3189.000000	99.119030 
3188.000000	99.118906 
3187.000000	99.118439 
3186.000000	99.118261 
3185.000000	99.118736 
3184.000000	99.119683 
3183.000000	99.120667 
3182.000000	99.121576 
3181.000000	99.122645 
3180.000000	99.123899 
3179.000000	99.124910 
3178.000000	99.125311 
3177.000000	99.125284 
3176.000000	99.125372 
3175.000000	99.125923 
3174.000000	99.126943 
3173.000000	99.128280 
3172.000000	99.129655 
3171.000000	99.130639 
3170.000000	99.130947 
3169.000000	99.130769 
3168.000000	99.130628 
3167.000000	99.130840 
3166.000000	99.131308 
3165.000000	99.131784 
3164.000000	99.132105 
3163.000000	99.132199 
3162.000000	99.132091 
3161.000000	99.131936 
3160.000000	99.131898 
3159.000000	99.132019 
3158.000000	99.132282 
3157.000000	99.132723 
3156.000000	99.133338 
3155.000000	99.133933 
3154.000000	99.134284 
3153.000000	99.134413 
3152.000000	99.134560 
3151.000000	99.134870 
3150.000000	99.135238 
3149.000000	99.135487 
3148.000000	99.135590 
3147.000000	99.135664 
3146.000000	99.135845 
3145.000000	99.136215 
3144.000000	99.136756 
3143.000000	99.137320 
3142.000000	99.137677 
3141.000000	99.137710 
3140.000000	99.137546 
3139.000000	99.137486 
3138.000000	99.137738 
3137.000000	99.138245 
3136.000000	99.138732 
3135.000000	99.138925 
3134.000000	99.138753 
3133.000000	99.138415 
3132.000000	99.138241 
3131.000000	99.138396 
3130.000000	99.138796 
3129.000000	99.139327 
3128.000000	99.140029 
3127.000000	99.140957 
3126.000000	99.141982 
3125.000000	99.142855 
3124.000000	99.143406 
3123.000000	99.143573 
3122.000000	99.143341 
3121.000000	99.142827 
3120.000000	99.142365 
3119.000000	99.142317 
3118.000000	99.142771 
3117.000000	99.143544 
3116.000000	99.144444 
3115.000000	99.145375 
3114.000000	99.146229 
3113.000000	99.146902 
3112.000000	99.147468 
3111.000000	99.148135 
3110.000000	99.148910 
3109.000000	99.149484 
3108.000000	99.149622 
3107.000000	99.149534 
3106.000000	99.149673 
3105.000000	99.150136 
3104.000000	99.150422 
3103.000000	99.149900 
3102.000000	99.148476 
3101.000000	99.146736 
3100.000000	99.145376 
3099.000000	99.144688 
3098.000000	99.144750 
3097.000000	99.145804 
3096.000000	99.147954 
3095.000000	99.150478 
3094.000000	99.152138 
3093.000000	99.152369 
3092.000000	99.151821 
3091.000000	99.151464 
3090.000000	99.151458 
3089.000000	99.151274 
3088.000000	99.150488 
3087.000000	99.149230 
3086.000000	99.148118 
3085.000000	99.147836 
3084.000000	99.148443 
3083.000000	99.149056 
3082.000000	99.148748 
3081.000000	99.147845 
3080.000000	99.147658 
3079.000000	99.148617 
3078.000000	99.149680 
3077.000000	99.150102 
3076.000000	99.150597 
3075.000000	99.151739 
3074.000000	99.152437 
3073.000000	99.151485 
3072.000000	99.149704 
3071.000000	99.148905 
3070.000000	99.149304 
3069.000000	99.149698 
3068.000000	99.149806 
3067.000000	99.150579 
3066.000000	99.152112 
3065.000000	99.152974 
3064.000000	99.151981 
3063.000000	99.149335 
3062.000000	99.145808 
3061.000000	99.141956 
3060.000000	99.138349 
3059.000000	99.135613 
3058.000000	99.134208 
3057.000000	99.134677 
3056.000000	99.137360 
3055.000000	99.140622 
3054.000000	99.140445 
3053.000000	99.134156 
3052.000000	99.124589 
3051.000000	99.118427 
3050.000000	99.119415 
3049.000000	99.124757 
3048.000000	99.128720 
3047.000000	99.128026 
3046.000000	99.122833 
3045.000000	99.114773 
3044.000000	99.106298 
3043.000000	99.100798 
3042.000000	99.100653 
3041.000000	99.104317 
3040.000000	99.106668 
3039.000000	99.103283 
3038.000000	99.094100 
3037.000000	99.082807 
3036.000000	99.072993 
3035.000000	99.065199 
3034.000000	99.057567 
3033.000000	99.048553 
3032.000000	99.038359 
3031.000000	99.028147 
3030.000000	99.018893 
3029.000000	99.011092 
3028.000000	99.004393 
3027.000000	98.996838 
3026.000000	98.985597 
3025.000000	98.969799 
3024.000000	98.952085 
3023.000000	98.936069 
3022.000000	98.922656 
3021.000000	98.910315 
3020.000000	98.898292 
3019.000000	98.887292 
3018.000000	98.876705 
3017.000000	98.863449 
3016.000000	98.845059 
3015.000000	98.822890 
3014.000000	98.801250 
3013.000000	98.783848 
3012.000000	98.771315 
3011.000000	98.761084 
3010.000000	98.748934 
3009.000000	98.731736 
3008.000000	98.709728 
3007.000000	98.685951 
3006.000000	98.663107 
3005.000000	98.641636 
3004.000000	98.621112 
3003.000000	98.602252 
3002.000000	98.586420 
3001.000000	98.573687 
3000.000000	98.562258 
2999.000000	98.549689 
2998.000000	98.534416 
2997.000000	98.516720 
2996.000000	98.498597 
2995.000000	98.481789 
2994.000000	98.465120 
2993.000000	98.444515 
2992.000000	98.416973 
2991.000000	98.384648 
2990.000000	98.354383 
2989.000000	98.333154 
2988.000000	98.324180 
2987.000000	98.326377 
2986.000000	98.335911 
2985.000000	98.348143 
2984.000000	98.359228 
2983.000000	98.367079 
2982.000000	98.371323 
2981.000000	98.372542 
2980.000000	98.371478 
2979.000000	98.368510 
2978.000000	98.363637 
2977.000000	98.357135 
2976.000000	98.350312 
2975.000000	98.345183 
2974.000000	98.343129 
2973.000000	98.344200 
2972.000000	98.347811 
2971.000000	98.353627 
2970.000000	98.361519 
2969.000000	98.371240 
2968.000000	98.382558 
2967.000000	98.395196 
2966.000000	98.408292 
2965.000000	98.420570 
2964.000000	98.431637 
2963.000000	98.442451 
2962.000000	98.453828 
2961.000000	98.465072 
2960.000000	98.474988 
2959.000000	98.483905 
2958.000000	98.493702 
2957.000000	98.505731 
2956.000000	98.519253 
2955.000000	98.531938 
2954.000000	98.541750 
2953.000000	98.548800 
2952.000000	98.555744 
2951.000000	98.565601 
2950.000000	98.578244 
2949.000000	98.589566 
2948.000000	98.595189 
2947.000000	98.594614 
2946.000000	98.591084 
2945.000000	98.588052 
2944.000000	98.586953 
2943.000000	98.588039 
2942.000000	98.591202 
2941.000000	98.595167 
2940.000000	98.597622 
2939.000000	98.597488 
2938.000000	98.596203 
2937.000000	98.595754 
2936.000000	98.596084 
2935.000000	98.595334 
2934.000000	98.592094 
2933.000000	98.586535 
2932.000000	98.579863 
2931.000000	98.573720 
2930.000000	98.569856 
2929.000000	98.569171 
2928.000000	98.570640 
2927.000000	98.571699 
2926.000000	98.570184 
2925.000000	98.566082 
2924.000000	98.561501 
2923.000000	98.558923 
2922.000000	98.559088 
2921.000000	98.560371 
2920.000000	98.560615 
2919.000000	98.559624 
2918.000000	98.559014 
2917.000000	98.559134 
2916.000000	98.557298 
2915.000000	98.550587 
2914.000000	98.540146 
2913.000000	98.531045 
2912.000000	98.527234 
2911.000000	98.527708 
2910.000000	98.528304 
2909.000000	98.526426 
2908.000000	98.523041 
2907.000000	98.520354 
2906.000000	98.518528 
2905.000000	98.514969 
2904.000000	98.506829 
2903.000000	98.494728 
2902.000000	98.484258 
2901.000000	98.482665 
2900.000000	98.493173 
2899.000000	98.512327 
2898.000000	98.532703 
2897.000000	98.548480 
2896.000000	98.557990 
2895.000000	98.562160 
2894.000000	98.562982 
2893.000000	98.563710 
2892.000000	98.567972 
2891.000000	98.576710 
2890.000000	98.586780 
2889.000000	98.594117 
2888.000000	98.597870 
2887.000000	98.600118 
2886.000000	98.602327 
2885.000000	98.604323 
2884.000000	98.606961 
2883.000000	98.613200 
2882.000000	98.624826 
2881.000000	98.639560 
2880.000000	98.653326 
2879.000000	98.665004 
2878.000000	98.676868 
2877.000000	98.690365 
2876.000000	98.703508 
2875.000000	98.713365 
2874.000000	98.719691 
2873.000000	98.724795 
2872.000000	98.730633 
2871.000000	98.737304 
2870.000000	98.744146 
2869.000000	98.750956 
2868.000000	98.757921 
2867.000000	98.765243 
2866.000000	98.773193 
2865.000000	98.781976 
2864.000000	98.791441 
2863.000000	98.801552 
2862.000000	98.813119 
2861.000000	98.827017 
2860.000000	98.842334 
2859.000000	98.856394 
2858.000000	98.867571 
2857.000000	98.877409 
2856.000000	98.888841 
2855.000000	98.902510 
2854.000000	98.915972 
2853.000000	98.926521 
2852.000000	98.933705 
2851.000000	98.939026 
2850.000000	98.944264 
2849.000000	98.950493 
2848.000000	98.957920 
2847.000000	98.965883 
2846.000000	98.973248 
2845.000000	98.979410 
2844.000000	98.984967 
2843.000000	98.991220 
2842.000000	98.998951 
2841.000000	99.007541 
2840.000000	99.015117 
2839.000000	99.019898 
2838.000000	99.021850 
2837.000000	99.022970 
2836.000000	99.025563 
2835.000000	99.030187 
2834.000000	99.035799 
2833.000000	99.041754 
2832.000000	99.048620 
2831.000000	99.056583 
2830.000000	99.063915 
2829.000000	99.068127 
2828.000000	99.068578 
2827.000000	99.067366 
2826.000000	99.067559 
2825.000000	99.070669 
2824.000000	99.075713 
2823.000000	99.080269 
2822.000000	99.082455 
2821.000000	99.082288 
2820.000000	99.081348 
2819.000000	99.081105 
2818.000000	99.081660 
2817.000000	99.082291 
2816.000000	99.082876 
2815.000000	99.084136 
2814.000000	99.086389 
2813.000000	99.088568 
2812.000000	99.088989 
2811.000000	99.087079 
2810.000000	99.084184 
2809.000000	99.082628 
2808.000000	99.083968 
2807.000000	99.088083 
2806.000000	99.093570 
2805.000000	99.098696 
2804.000000	99.102110 
2803.000000	99.103211 
2802.000000	99.102465 
2801.000000	99.101426 
2800.000000	99.101822 
2799.000000	99.104076 
2798.000000	99.106870 
2797.000000	99.108425 
2796.000000	99.108244 
2795.000000	99.107397 
2794.000000	99.107306 
2793.000000	99.108467 
2792.000000	99.110364 
2791.000000	99.112219 
2790.000000	99.113585 
2789.000000	99.114428 
2788.000000	99.114977 
2787.000000	99.115581 
2786.000000	99.116482 
2785.000000	99.117660 
2784.000000	99.118903 
2783.000000	99.120035 
2782.000000	99.121033 
2781.000000	99.121972 
2780.000000	99.122917 
2779.000000	99.123874 
2778.000000	99.124831 
2777.000000	99.125771 
2776.000000	99.126684 
2775.000000	99.127568 
2774.000000	99.128433 
2773.000000	99.129296 
2772.000000	99.130165 
2771.000000	99.131032 
2770.000000	99.131903 
2769.000000	99.132822 
2768.000000	99.133830 
2767.000000	99.134902 
2766.000000	99.135931 
2765.000000	99.136825 
2764.000000	99.137593 
2763.000000	99.138307 
2762.000000	99.138991 
2761.000000	99.139613 
2760.000000	99.140179 
2759.000000	99.140788 
2758.000000	99.141543 
2757.000000	99.142409 
2756.000000	99.143198 
2755.000000	99.143768 
2754.000000	99.144189 
2753.000000	99.144674 
2752.000000	99.145325 
2751.000000	99.146047 
2750.000000	99.146742 
2749.000000	99.147455 
2748.000000	99.148216 
2747.000000	99.148828 
2746.000000	99.149067 
2745.000000	99.148977 
2744.000000	99.148891 
2743.000000	99.149098 
2742.000000	99.149592 
2741.000000	99.150179 
2740.000000	99.150707 
2739.000000	99.151185 
2738.000000	99.151645 
2737.000000	99.152059 
2736.000000	99.152410 
2735.000000	99.152751 
2734.000000	99.153161 
2733.000000	99.153661 
2732.000000	99.154211 
2731.000000	99.154761 
2730.000000	99.155281 
2729.000000	99.155762 
2728.000000	99.156201 
2727.000000	99.156585 
2726.000000	99.156909 
2725.000000	99.157197 
2724.000000	99.157494 
2723.000000	99.157819 
2722.000000	99.158161 
2721.000000	99.158506 
2720.000000	99.158854 
2719.000000	99.159209 
2718.000000	99.159571 
2717.000000	99.159937 
2716.000000	99.160302 
2715.000000	99.160662 
2714.000000	99.161018 
2713.000000	99.161375 
2712.000000	99.161733 
2711.000000	99.162091 
2710.000000	99.162445 
2709.000000	99.162797 
2708.000000	99.163150 
2707.000000	99.163510 
2706.000000	99.163878 
2705.000000	99.164253 
2704.000000	99.164632 
2703.000000	99.165012 
2702.000000	99.165392 
2701.000000	99.165771 
2700.000000	99.166148 
2699.000000	99.166522 
2698.000000	99.166888 
2697.000000	99.167239 
2696.000000	99.167570 
2695.000000	99.167877 
2694.000000	99.168165 
2693.000000	99.168436 
2692.000000	99.168693 
2691.000000	99.168935 
2690.000000	99.169164 
2689.000000	99.169387 
2688.000000	99.169610 
2687.000000	99.169840 
2686.000000	99.170077 
2685.000000	99.170320 
2684.000000	99.170565 
2683.000000	99.170807 
2682.000000	99.171041 
2681.000000	99.171264 
2680.000000	99.171477 
2679.000000	99.171683 
2678.000000	99.171883 
2677.000000	99.172082 
2676.000000	99.172283 
2675.000000	99.172483 
2674.000000	99.172671 
2673.000000	99.172832 
2672.000000	99.172969 
2671.000000	99.173101 
2670.000000	99.173228 
2669.000000	99.173335 
2668.000000	99.173426 
2667.000000	99.173539 
2666.000000	99.173684 
2665.000000	99.173812 
2664.000000	99.173876 
2663.000000	99.173933 
2662.000000	99.174106 
2661.000000	99.174439 
2660.000000	99.174816 
2659.000000	99.175054 
2658.000000	99.175079 
2657.000000	99.174987 
2656.000000	99.174943 
2655.000000	99.175003 
2654.000000	99.175051 
2653.000000	99.174942 
2652.000000	99.174715 
2651.000000	99.174611 
2650.000000	99.174850 
2649.000000	99.175413 
2648.000000	99.176075 
2647.000000	99.176610 
2646.000000	99.176891 
2645.000000	99.176842 
2644.000000	99.176424 
2643.000000	99.175755 
2642.000000	99.175141 
2641.000000	99.174853 
2640.000000	99.174927 
2639.000000	99.175226 
2638.000000	99.175635 
2637.000000	99.176103 
2636.000000	99.176572 
2635.000000	99.177044 
2634.000000	99.177653 
2633.000000	99.178464 
2632.000000	99.179184 
2631.000000	99.179352 
2630.000000	99.178844 
2629.000000	99.178020 
2628.000000	99.177335 
2627.000000	99.176919 
2626.000000	99.176701 
2625.000000	99.176715 
2624.000000	99.177081 
2623.000000	99.177765 
2622.000000	99.178524 
2621.000000	99.179065 
2620.000000	99.179156 
2619.000000	99.178682 
2618.000000	99.177782 
2617.000000	99.176900 
2616.000000	99.176475 
2615.000000	99.176559 
2614.000000	99.176853 
2613.000000	99.177071 
2612.000000	99.177165 
2611.000000	99.177240 
2610.000000	99.177427 
2609.000000	99.177827 
2608.000000	99.178397 
2607.000000	99.178921 
2606.000000	99.179262 
2605.000000	99.179568 
2604.000000	99.179974 
2603.000000	99.180217 
2602.000000	99.179934 
2601.000000	99.179304 
2600.000000	99.178925 
2599.000000	99.178908 
2598.000000	99.178649 
2597.000000	99.177707 
2596.000000	99.176465 
2595.000000	99.175677 
2594.000000	99.175610 
2593.000000	99.176013 
2592.000000	99.176717 
2591.000000	99.177693 
2590.000000	99.178550 
2589.000000	99.178658 
2588.000000	99.177990 
2587.000000	99.177347 
2586.000000	99.177459 
2585.000000	99.178262 
2584.000000	99.179198 
2583.000000	99.179786 
2582.000000	99.179749 
2581.000000	99.179090 
2580.000000	99.178327 
2579.000000	99.178279 
2578.000000	99.179261 
2577.000000	99.180651 
2576.000000	99.181450 
2575.000000	99.181196 
2574.000000	99.180186 
2573.000000	99.179007 
2572.000000	99.177932 
2571.000000	99.176723 
2570.000000	99.175067 
2569.000000	99.173254 
2568.000000	99.172188 
2567.000000	99.172402 
2566.000000	99.173270 
2565.000000	99.173651 
2564.000000	99.173276 
2563.000000	99.172940 
2562.000000	99.173329 
2561.000000	99.174329 
2560.000000	99.175716 
2559.000000	99.177792 
2558.000000	99.180694 
2557.000000	99.183535 
2556.000000	99.185136 
2555.000000	99.185458 
2554.000000	99.185493 
2553.000000	99.185657 
2552.000000	99.185221 
2551.000000	99.183777 
2550.000000	99.182198 
2549.000000	99.181322 
2548.000000	99.180466 
2547.000000	99.178471 
2546.000000	99.175834 
2545.000000	99.174464 
2544.000000	99.175141 
2543.000000	99.176512 
2542.000000	99.176841 
2541.000000	99.176202 
2540.000000	99.175962 
2539.000000	99.176684 
2538.000000	99.177529 
2537.000000	99.177655 
2536.000000	99.177347 
2535.000000	99.177403 
2534.000000	99.178022 
2533.000000	99.178718 
2532.000000	99.179053 
2531.000000	99.179012 
2530.000000	99.178724 
2529.000000	99.178175 
2528.000000	99.177325 
2527.000000	99.176380 
2526.000000	99.175807 
2525.000000	99.175956 
2524.000000	99.176742 
2523.000000	99.177700 
2522.000000	99.178380 
2521.000000	99.178687 
2520.000000	99.178813 
2519.000000	99.178952 
2518.000000	99.179149 
2517.000000	99.179319 
2516.000000	99.179315 
2515.000000	99.179045 
2514.000000	99.178603 
2513.000000	99.178296 
2512.000000	99.178410 
2511.000000	99.178989 
2510.000000	99.179872 
2509.000000	99.180846 
2508.000000	99.181697 
2507.000000	99.182217 
2506.000000	99.182360 
2505.000000	99.182431 
2504.000000	99.182903 
2503.000000	99.183895 
2502.000000	99.184978 
2501.000000	99.185618 
2500.000000	99.185718 
2499.000000	99.185528 
2498.000000	99.185297 
2497.000000	99.185122 
2496.000000	99.185109 
2495.000000	99.185352 
2494.000000	99.185714 
2493.000000	99.185888 
2492.000000	99.185803 
2491.000000	99.185814 
2490.000000	99.186346 
2489.000000	99.187388 
2488.000000	99.188410 
2487.000000	99.188842 
2486.000000	99.188635 
2485.000000	99.188334 
2484.000000	99.188538 
2483.000000	99.189324 
2482.000000	99.190297 
2481.000000	99.191113 
2480.000000	99.191743 
2479.000000	99.192225 
2478.000000	99.192538 
2477.000000	99.192789 
2476.000000	99.193152 
2475.000000	99.193419 
2474.000000	99.193011 
2473.000000	99.191693 
2472.000000	99.189972 
2471.000000	99.188530 
2470.000000	99.187602 
2469.000000	99.187208 
2468.000000	99.187445 
2467.000000	99.188145 
2466.000000	99.188664 
2465.000000	99.188546 
2464.000000	99.188217 
2463.000000	99.188583 
2462.000000	99.190052 
2461.000000	99.192329 
2460.000000	99.194900 
2459.000000	99.197308 
2458.000000	99.198900 
2457.000000	99.198888 
2456.000000	99.196903 
2455.000000	99.193438 
2454.000000	99.189762 
2453.000000	99.187154 
2452.000000	99.186053 
2451.000000	99.185975 
2450.000000	99.186248 
2449.000000	99.186717 
2448.000000	99.187541 
2447.000000	99.188550 
2446.000000	99.189269 
2445.000000	99.189540 
2444.000000	99.189637 
2443.000000	99.189776 
2442.000000	99.189916 
2441.000000	99.190039 
2440.000000	99.190219 
2439.000000	99.190470 
2438.000000	99.190923 
2437.000000	99.192060 
2436.000000	99.194172 
2435.000000	99.196583 
2434.000000	99.198004 
2433.000000	99.197871 
2432.000000	99.196917 
2431.000000	99.196382 
2430.000000	99.197037 
2429.000000	99.198984 
2428.000000	99.201693 
2427.000000	99.203986 
2426.000000	99.204592 
2425.000000	99.202994 
2424.000000	99.199822 
2423.000000	99.196260 
2422.000000	99.193143 
2421.000000	99.191306 
2420.000000	99.191840 
2419.000000	99.194851 
2418.000000	99.198805 
2417.000000	99.202123 
2416.000000	99.204724 
2415.000000	99.206988 
2414.000000	99.208337 
2413.000000	99.208375 
2412.000000	99.208298 
2411.000000	99.209364 
2410.000000	99.210848 
2409.000000	99.211252 
2408.000000	99.210782 
2407.000000	99.210767 
2406.000000	99.211143 
2405.000000	99.210348 
2404.000000	99.207626 
2403.000000	99.203984 
2402.000000	99.200971 
2401.000000	99.199784 
2400.000000	99.201261 
2399.000000	99.205284 
2398.000000	99.210316 
2397.000000	99.214679 
2396.000000	99.217977 
2395.000000	99.220332 
2394.000000	99.221019 
2393.000000	99.219546 
2392.000000	99.217591 
2391.000000	99.217983 
2390.000000	99.221573 
2389.000000	99.226551 
2388.000000	99.231097 
2387.000000	99.235341 
2386.000000	99.240366 
2385.000000	99.246345 
2384.000000	99.252171 
2383.000000	99.255895 
2382.000000	99.255075 
2381.000000	99.247940 
2380.000000	99.235063 
2379.000000	99.219297 
2378.000000	99.203480 
2377.000000	99.189136 
2376.000000	99.178289 
2375.000000	99.174548 
2374.000000	99.179908 
2373.000000	99.191416 
2372.000000	99.203220 
2371.000000	99.212265 
2370.000000	99.219317 
2369.000000	99.224505 
2368.000000	99.225616 
2367.000000	99.221788 
2366.000000	99.215762 
2365.000000	99.210821 
2364.000000	99.207593 
2363.000000	99.205591 
2362.000000	99.205531 
2361.000000	99.208123 
2360.000000	99.213198 
2359.000000	99.219083 
2358.000000	99.222848 
2357.000000	99.222160 
2356.000000	99.217104 
2355.000000	99.210145 
2354.000000	99.202344 
2353.000000	99.195433 
2352.000000	99.193548 
2351.000000	99.198482 
2350.000000	99.207286 
2349.000000	99.214312 
2348.000000	99.217017 
2347.000000	99.216351 
2346.000000	99.215581 
2345.000000	99.218035 
2344.000000	99.223372 
2343.000000	99.228764 
2342.000000	99.230925 
2341.000000	99.229739 
2340.000000	99.227754 
2339.000000	99.226747 
2338.000000	99.225868 
2337.000000	99.223721 
2336.000000	99.221804 
2335.000000	99.222537 
2334.000000	99.225051 
2333.000000	99.226666 
2332.000000	99.227903 
2331.000000	99.230989 
2330.000000	99.236493 
2329.000000	99.241962 
2328.000000	99.247516 
2327.000000	99.254219 
2326.000000	99.260985 
2325.000000	99.266245 
2324.000000	99.269812 
2323.000000	99.273724 
2322.000000	99.276179 
2321.000000	99.274417 
2320.000000	99.269313 
2319.000000	99.265492 
2318.000000	99.265376 
2317.000000	99.265716 
2316.000000	99.263355 
2315.000000	99.258960 
2314.000000	99.256690 
2313.000000	99.259014 
2312.000000	99.266338 
2311.000000	99.277056 
2310.000000	99.287853 
2309.000000	99.294734 
2308.000000	99.296210 
2307.000000	99.294895 
2306.000000	99.293937 
2305.000000	99.294619 
2304.000000	99.296418 
2303.000000	99.299254 
2302.000000	99.303270 
2301.000000	99.307609 
2300.000000	99.310221 
2299.000000	99.308675 
2298.000000	99.302047 
2297.000000	99.291024 
2296.000000	99.278307 
2295.000000	99.267294 
2294.000000	99.260104 
2293.000000	99.256558 
2292.000000	99.255192 
2291.000000	99.255014 
2290.000000	99.255311 
2289.000000	99.255451 
2288.000000	99.254485 
2287.000000	99.251721 
2286.000000	99.246850 
2285.000000	99.240833 
2284.000000	99.235667 
2283.000000	99.232987 
2282.000000	99.232338 
2281.000000	99.231721 
2280.000000	99.229546 
2279.000000	99.225569 
2278.000000	99.220274 
2277.000000	99.214625 
2276.000000	99.210529 
2275.000000	99.209734 
2274.000000	99.212192 
2273.000000	99.216224 
2272.000000	99.220323 
2271.000000	99.223670 
2270.000000	99.225310 
2269.000000	99.224570 
2268.000000	99.222292 
2267.000000	99.220181 
2266.000000	99.218839 
2265.000000	99.217614 
2264.000000	99.216094 
2263.000000	99.214354 
2262.000000	99.212036 
2261.000000	99.208702 
2260.000000	99.204940 
2259.000000	99.201980 
2258.000000	99.200158 
2257.000000	99.198880 
2256.000000	99.197918 
2255.000000	99.197692 
2254.000000	99.198191 
2253.000000	99.198385 
2252.000000	99.197231 
2251.000000	99.194707 
2250.000000	99.191465 
2249.000000	99.188142 
2248.000000	99.185274 
2247.000000	99.183300 
2246.000000	99.182204 
2245.000000	99.181446 
2244.000000	99.180386 
2243.000000	99.178905 
2242.000000	99.177301 
2241.000000	99.175856 
2240.000000	99.174612 
2239.000000	99.173450 
2238.000000	99.172254 
2237.000000	99.170987 
2236.000000	99.169679 
2235.000000	99.168360 
2234.000000	99.167035 
2233.000000	99.165700 
2232.000000	99.164353 
2231.000000	99.162995 
2230.000000	99.161631 
2229.000000	99.160268 
2228.000000	99.158916 
2227.000000	99.157587 
2226.000000	99.156284 
2225.000000	99.155001 
2224.000000	99.153725 
2223.000000	99.152462 
2222.000000	99.151230 
2221.000000	99.150049 
2220.000000	99.148916 
2219.000000	99.147815 
2218.000000	99.146729 
2217.000000	99.145659 
2216.000000	99.144612 
2215.000000	99.143590 
2214.000000	99.142588 
2213.000000	99.141606 
2212.000000	99.140658 
2211.000000	99.139776 
2210.000000	99.138992 
2209.000000	99.138317 
2208.000000	99.137736 
2207.000000	99.137216 
2206.000000	99.136727 
2205.000000	99.136245 
2204.000000	99.135749 
2203.000000	99.135230 
2202.000000	99.134685 
2201.000000	99.134120 
2200.000000	99.133541 
2199.000000	99.132950 
2198.000000	99.132355 
2197.000000	99.131775 
2196.000000	99.131235 
2195.000000	99.130753 
2194.000000	99.130333 
2193.000000	99.129969 
2192.000000	99.129650 
2191.000000	99.129361 
2190.000000	99.129086 
2189.000000	99.128818 
2188.000000	99.128558 
2187.000000	99.128314 
2186.000000	99.128089 
2185.000000	99.127881 
2184.000000	99.127701 
2183.000000	99.127573 
2182.000000	99.127532 
2181.000000	99.127607 
2180.000000	99.127769 
2179.000000	99.127929 
2178.000000	99.128007 
2177.000000	99.127993 
2176.000000	99.128004 
2175.000000	99.128160 
2174.000000	99.128492 
2173.000000	99.128971 
2172.000000	99.129644 
2171.000000	99.130643 
2170.000000	99.131944 
2169.000000	99.133190 
2168.000000	99.133938 
2167.000000	99.134021 
2166.000000	99.133618 
2165.000000	99.133036 
2164.000000	99.132515 
2163.000000	99.132255 
2162.000000	99.132448 
2161.000000	99.133192 
2160.000000	99.134409 
2159.000000	99.135871 
2158.000000	99.137357 
2157.000000	99.138851 
2156.000000	99.140502 
2155.000000	99.142312 
2154.000000	99.144083 
2153.000000	99.145720 
2152.000000	99.147287 
2151.000000	99.148588 
2150.000000	99.149071 
2149.000000	99.148650 
2148.000000	99.148363 
2147.000000	99.149428 
2146.000000	99.151766 
2145.000000	99.154121 
2144.000000	99.155788 
2143.000000	99.157392 
2142.000000	99.159521 
2141.000000	99.161582 
2140.000000	99.162704 
2139.000000	99.163231 
2138.000000	99.164479 
2137.000000	99.167115 
2136.000000	99.170341 
2135.000000	99.172581 
2134.000000	99.172976 
2133.000000	99.171971 
2132.000000	99.171072 
2131.000000	99.171551 
2130.000000	99.173379 
2129.000000	99.175498 
2128.000000	99.176963 
2127.000000	99.177810 
2126.000000	99.178629 
2125.000000	99.179702 
2124.000000	99.180840 
2123.000000	99.181815 
2122.000000	99.182506 
2121.000000	99.182746 
2120.000000	99.182389 
2119.000000	99.181556 
2118.000000	99.180670 
2117.000000	99.180233 
2116.000000	99.180483 
2115.000000	99.181186 
2114.000000	99.181721 
2113.000000	99.181627 
2112.000000	99.181135 
2111.000000	99.180960 
2110.000000	99.181487 
2109.000000	99.182399 
2108.000000	99.183123 
2107.000000	99.183419 
2106.000000	99.183406 
2105.000000	99.183308 
2104.000000	99.183370 
2103.000000	99.183743 
2102.000000	99.184169 
2101.000000	99.184012 
2100.000000	99.182926 
2099.000000	99.181381 
2098.000000	99.180387 
2097.000000	99.180478 
2096.000000	99.181385 
2095.000000	99.182407 
2094.000000	99.183053 
2093.000000	99.183235 
2092.000000	99.182998 
2091.000000	99.182454 
2090.000000	99.181818 
2089.000000	99.181292 
2088.000000	99.180889 
2087.000000	99.180398 
2086.000000	99.179524 
2085.000000	99.178164 
2084.000000	99.176591 
2083.000000	99.175307 
2082.000000	99.174620 
2081.000000	99.174438 
2080.000000	99.174465 
2079.000000	99.174484 
2078.000000	99.174315 
2077.000000	99.173717 
2076.000000	99.172632 
2075.000000	99.171413 
2074.000000	99.170452 
2073.000000	99.169562 
2072.000000	99.168172 
2071.000000	99.166111 
2070.000000	99.163832 
2069.000000	99.161919 
2068.000000	99.160641 
2067.000000	99.159941 
2066.000000	99.159515 
2065.000000	99.158829 
2064.000000	99.157443 
2063.000000	99.155478 
2062.000000	99.153652 
2061.000000	99.152672 
2060.000000	99.152650 
2059.000000	99.153180 
2058.000000	99.153601 
2057.000000	99.153363 
2056.000000	99.152279 
2055.000000	99.150472 
2054.000000	99.148365 
2053.000000	99.146502 
2052.000000	99.145180 
2051.000000	99.144223 
2050.000000	99.143121 
2049.000000	99.141558 
2048.000000	99.139813 
2047.000000	99.138443 
2046.000000	99.137599 
2045.000000	99.136940 
2044.000000	99.136196 
2043.000000	99.135525 
2042.000000	99.135170 
2041.000000	99.135055 
2040.000000	99.134945 
2039.000000	99.134850 
2038.000000	99.134941 
2037.000000	99.135097 
2036.000000	99.134896 
2035.000000	99.134129 
2034.000000	99.133134 
2033.000000	99.132529 
2032.000000	99.132585 
2031.000000	99.132933 
2030.000000	99.132824 
2029.000000	99.131788 
2028.000000	99.130009 
2027.000000	99.128161 
2026.000000	99.126759 
2025.000000	99.125908 
2024.000000	99.125641 
2023.000000	99.126182 
2022.000000	99.127610 
2021.000000	99.129316 
2020.000000	99.130175 
2019.000000	99.129469 
2018.000000	99.127293 
2017.000000	99.124480 
2016.000000	99.122088 
2015.000000	99.120699 
2014.000000	99.120107 
2013.000000	99.119446 
2012.000000	99.118115 
2011.000000	99.116660 
2010.000000	99.116177 
2009.000000	99.116851 
2008.000000	99.117626 
2007.000000	99.117550 
2006.000000	99.116907 
2005.000000	99.116586 
2004.000000	99.116866 
2003.000000	99.117405 
2002.000000	99.117979 
2001.000000	99.118481 
2000.000000	99.118329 
1999.000000	99.116642 
1998.000000	99.113263 
1997.000000	99.109175 
1996.000000	99.105769 
1995.000000	99.103818 
1994.000000	99.103261 
1993.000000	99.103468 
1992.000000	99.103585 
1991.000000	99.103143 
1990.000000	99.102472 
1989.000000	99.102307 
1988.000000	99.102824 
1987.000000	99.103208 
1986.000000	99.102457 
1985.000000	99.100519 
1984.000000	99.098370 
1983.000000	99.097050 
1982.000000	99.096722 
1981.000000	99.096819 
1980.000000	99.096769 
1979.000000	99.096453 
1978.000000	99.096017 
1977.000000	99.095531 
1976.000000	99.095010 
1975.000000	99.094639 
1974.000000	99.094771 
1973.000000	99.095589 
1972.000000	99.096836 
1971.000000	99.098005 
1970.000000	99.098735 
1969.000000	99.098982 
1968.000000	99.098911 
1967.000000	99.098783 
1966.000000	99.098877 
1965.000000	99.099345 
1964.000000	99.100142 
1963.000000	99.101090 
1962.000000	99.102016 
1961.000000	99.102831 
1960.000000	99.103527 
1959.000000	99.104164 
1958.000000	99.104839 
1957.000000	99.105626 
1956.000000	99.106538 
1955.000000	99.107542 
1954.000000	99.108573 
1953.000000	99.109576 
1952.000000	99.110540 
1951.000000	99.111484 
1950.000000	99.112430 
1949.000000	99.113409 
1948.000000	99.114453 
1947.000000	99.115570 
1946.000000	99.116707 
1945.000000	99.117786 
1944.000000	99.118776 
1943.000000	99.119718 
1942.000000	99.120701 
1941.000000	99.121761 
1940.000000	99.122887 
1939.000000	99.124048 
1938.000000	99.125214 
1937.000000	99.126395 
1936.000000	99.127621 
1935.000000	99.128886 
1934.000000	99.130121 
1933.000000	99.131286 
1932.000000	99.132452 
1931.000000	99.133734 
1930.000000	99.135135 
1929.000000	99.136497 
1928.000000	99.137708 
1927.000000	99.138841 
1926.000000	99.139982 
1925.000000	99.141043 
1924.000000	99.142000 
1923.000000	99.143093 
1922.000000	99.144435 
1921.000000	99.145683 
1920.000000	99.146504 
1919.000000	99.147049 
1918.000000	99.147599 
1917.000000	99.148068 
1916.000000	99.148342 
1915.000000	99.148732 
1914.000000	99.149609 
1913.000000	99.150838 
1912.000000	99.151935 
1911.000000	99.152750 
1910.000000	99.153519 
1909.000000	99.154460 
1908.000000	99.155570 
1907.000000	99.156653 
1906.000000	99.157391 
1905.000000	99.157540 
1904.000000	99.157299 
1903.000000	99.157248 
1902.000000	99.157736 
1901.000000	99.158588 
1900.000000	99.159456 
1899.000000	99.160172 
1898.000000	99.160759 
1897.000000	99.161272 
1896.000000	99.161752 
1895.000000	99.162228 
1894.000000	99.162699 
1893.000000	99.163158 
1892.000000	99.163621 
1891.000000	99.164110 
1890.000000	99.164620 
1889.000000	99.165135 
1888.000000	99.165650 
1887.000000	99.166173 
1886.000000	99.166708 
1885.000000	99.167255 
1884.000000	99.167814 
1883.000000	99.168389 
1882.000000	99.168994 
1881.000000	99.169641 
1880.000000	99.170332 
1879.000000	99.171061 
1878.000000	99.171815 
1877.000000	99.172592 
1876.000000	99.173396 
1875.000000	99.174234 
1874.000000	99.175105 
1873.000000	99.175990 
1872.000000	99.176868 
1871.000000	99.177728 
1870.000000	99.178575 
1869.000000	99.179420 
1868.000000	99.180277 
1867.000000	99.181160 
1866.000000	99.182068 
1865.000000	99.182996 
1864.000000	99.183944 
1863.000000	99.184921 
1862.000000	99.185937 
1861.000000	99.186986 
1860.000000	99.188054 
1859.000000	99.189129 
1858.000000	99.190206 
1857.000000	99.191283 
1856.000000	99.192357 
1855.000000	99.193433 
1854.000000	99.194516 
1853.000000	99.195609 
1852.000000	99.196712 
1851.000000	99.197827 
1850.000000	99.198949 
1849.000000	99.200070 
1848.000000	99.201180 
1847.000000	99.202279 
1846.000000	99.203370 
1845.000000	99.204454 
1844.000000	99.205533 
1843.000000	99.206606 
1842.000000	99.207671 
1841.000000	99.208722 
1840.000000	99.209751 
1839.000000	99.210752 
1838.000000	99.211718 
1837.000000	99.212643 
1836.000000	99.213527 
1835.000000	99.214383 
1834.000000	99.215221 
1833.000000	99.216037 
1832.000000	99.216823 
1831.000000	99.217580 
1830.000000	99.218320 
1829.000000	99.219058 
1828.000000	99.219800 
1827.000000	99.220542 
1826.000000	99.221274 
1825.000000	99.221987 
1824.000000	99.222674 
1823.000000	99.223323 
1822.000000	99.223934 
1821.000000	99.224509 
1820.000000	99.225039 
1819.000000	99.225525 
1818.000000	99.226009 
1817.000000	99.226528 
1816.000000	99.227055 
1815.000000	99.227558 
1814.000000	99.228091 
1813.000000	99.228715 
1812.000000	99.229334 
1811.000000	99.229803 
1810.000000	99.230132 
1809.000000	99.230437 
1808.000000	99.230793 
1807.000000	99.231234 
1806.000000	99.231766 
1805.000000	99.232286 
1804.000000	99.232671 
1803.000000	99.232978 
1802.000000	99.233366 
1801.000000	99.233805 
1800.000000	99.234039 
1799.000000	99.234043 
1798.000000	99.234138 
1797.000000	99.234421 
1796.000000	99.234643 
1795.000000	99.234705 
1794.000000	99.234927 
1793.000000	99.235573 
1792.000000	99.236446 
1791.000000	99.237362 
1790.000000	99.238267 
1789.000000	99.239007 
1788.000000	99.239549 
1787.000000	99.240061 
1786.000000	99.240710 
1785.000000	99.241409 
1784.000000	99.241955 
1783.000000	99.242361 
1782.000000	99.242802 
1781.000000	99.243471 
1780.000000	99.244358 
1779.000000	99.245293 
1778.000000	99.246163 
1777.000000	99.246973 
1776.000000	99.247756 
1775.000000	99.248481 
1774.000000	99.249111 
1773.000000	99.249694 
1772.000000	99.250331 
1771.000000	99.251079 
1770.000000	99.251913 
1769.000000	99.252774 
1768.000000	99.253614 
1767.000000	99.254395 
1766.000000	99.255117 
1765.000000	99.255814 
1764.000000	99.256522 
1763.000000	99.257251 
1762.000000	99.257999 
1761.000000	99.258764 
1760.000000	99.259544 
1759.000000	99.260332 
1758.000000	99.261124 
1757.000000	99.261915 
1756.000000	99.262703 
1755.000000	99.263468 
1754.000000	99.264185 
1753.000000	99.264855 
1752.000000	99.265512 
1751.000000	99.266191 
1750.000000	99.266886 
1749.000000	99.267548 
1748.000000	99.268135 
1747.000000	99.268639 
1746.000000	99.269082 
1745.000000	99.269564 
1744.000000	99.270172 
1743.000000	99.270838 
1742.000000	99.271375 
1741.000000	99.271692 
1740.000000	99.271927 
1739.000000	99.272370 
1738.000000	99.273119 
1737.000000	99.273936 
1736.000000	99.274600 
1735.000000	99.275174 
1734.000000	99.275503 
1733.000000	99.275428 
1732.000000	99.275269 
1731.000000	99.275392 
1730.000000	99.276053 
1729.000000	99.277070 
1728.000000	99.277771 
1727.000000	99.277731 
1726.000000	99.277176 
1725.000000	99.276726 
1724.000000	99.276657 
1723.000000	99.277025 
1722.000000	99.277917 
1721.000000	99.279080 
1720.000000	99.279924 
1719.000000	99.280222 
1718.000000	99.280237 
1717.000000	99.279558 
1716.000000	99.277791 
1715.000000	99.276046 
1714.000000	99.275409 
1713.000000	99.275333 
1712.000000	99.274762 
1711.000000	99.273773 
1710.000000	99.273211 
1709.000000	99.273085 
1708.000000	99.272473 
1707.000000	99.271076 
1706.000000	99.269834 
1705.000000	99.269248 
1704.000000	99.268601 
1703.000000	99.267266 
1702.000000	99.265783 
1701.000000	99.265019 
1700.000000	99.264200 
1699.000000	99.263064 
1698.000000	99.262298 
1697.000000	99.261506 
1696.000000	99.260494 
1695.000000	99.259713 
1694.000000	99.259207 
1693.000000	99.258369 
1692.000000	99.256917 
1691.000000	99.255200 
1690.000000	99.253605 
1689.000000	99.252223 
1688.000000	99.250936 
1687.000000	99.249578 
1686.000000	99.248266 
1685.000000	99.247018 
1684.000000	99.245487 
1683.000000	99.243879 
1682.000000	99.242393 
1681.000000	99.240928 
1680.000000	99.239624 
1679.000000	99.238445 
1678.000000	99.237168 
1677.000000	99.235749 
1676.000000	99.234320 
1675.000000	99.232891 
1674.000000	99.231337 
1673.000000	99.229654 
1672.000000	99.227936 
1671.000000	99.226322 
1670.000000	99.224816 
1669.000000	99.223378 
1668.000000	99.222155 
1667.000000	99.221098 
1666.000000	99.219949 
1665.000000	99.218601 
1664.000000	99.217186 
1663.000000	99.215889 
1662.000000	99.214628 
1661.000000	99.213245 
1660.000000	99.211801 
1659.000000	99.210397 
1658.000000	99.208976 
1657.000000	99.207477 
1656.000000	99.205973 
1655.000000	99.204558 
1654.000000	99.203157 
1653.000000	99.201155 
1652.000000	99.198942 
1651.000000	99.197347 
1650.000000	99.195904 
1649.000000	99.194273 
1648.000000	99.192812 
1647.000000	99.191731 
1646.000000	99.190911 
1645.000000	99.190050 
1644.000000	99.188959 
1643.000000	99.187752 
1642.000000	99.186657 
1641.000000	99.185799 
1640.000000	99.185174 
1639.000000	99.184597 
1638.000000	99.183738 
1637.000000	99.182366 
1636.000000	99.180445 
1635.000000	99.178446 
1634.000000	99.177164 
1633.000000	99.176449 
1632.000000	99.175731 
1631.000000	99.174975 
1630.000000	99.174068 
1629.000000	99.172777 
1628.000000	99.171448 
1627.000000	99.170702 
1626.000000	99.170262 
1625.000000	99.169396 
1624.000000	99.168299 
1623.000000	99.167875 
1622.000000	99.168228 
1621.000000	99.168617 
1620.000000	99.168669 
1619.000000	99.168506 
1618.000000	99.167897 
1617.000000	99.165653 
1616.000000	99.162561 
1615.000000	99.161128 
1614.000000	99.161109 
1613.000000	99.160743 
1612.000000	99.159745 
1611.000000	99.158565 
1610.000000	99.157092 
1609.000000	99.155914 
1608.000000	99.156936 
1607.000000	99.160289 
1606.000000	99.163273 
1605.000000	99.164223 
1604.000000	99.164517 
1603.000000	99.165431 
1602.000000	99.166397 
1601.000000	99.167039 
1600.000000	99.168271 
1599.000000	99.170261 
1598.000000	99.171564 
1597.000000	99.171336 
1596.000000	99.170652 
1595.000000	99.170905 
1594.000000	99.171972 
1593.000000	99.173093 
1592.000000	99.174342 
1591.000000	99.176009 
1590.000000	99.177618 
1589.000000	99.178884 
1588.000000	99.180489 
1587.000000	99.182850 
1586.000000	99.185021 
1585.000000	99.186102 
1584.000000	99.186991 
1583.000000	99.188608 
1582.000000	99.190142 
1581.000000	99.190960 
1580.000000	99.192135 
1579.000000	99.194414 
1578.000000	99.196998 
1577.000000	99.198865 
1576.000000	99.200193 
1575.000000	99.202396 
1574.000000	99.205371 
1573.000000	99.208058 
1572.000000	99.210626 
1571.000000	99.213479 
1570.000000	99.215013 
1569.000000	99.214618 
1568.000000	99.214838 
1567.000000	99.216036 
1566.000000	99.216365 
1565.000000	99.215640 
1564.000000	99.215733 
1563.000000	99.216631 
1562.000000	99.217199 
1561.000000	99.217209 
1560.000000	99.221297 
1559.000000	99.225479 
1558.000000	99.223895 
1557.000000	99.222226 
1556.000000	99.222972 
1555.000000	99.225069 
1554.000000	99.227348 
1553.000000	99.228333 
1552.000000	99.228117 
1551.000000	99.227390 
1550.000000	99.227045 
1549.000000	99.226958 
1548.000000	99.226708 
1547.000000	99.226466 
1546.000000	99.226316 
1545.000000	99.225942 
1544.000000	99.225136 
1543.000000	99.224126 
1542.000000	99.223223 
1541.000000	99.221187 
1540.000000	99.216041 
1539.000000	99.210690 
1538.000000	99.207928 
1537.000000	99.205531 
1536.000000	99.202051 
1535.000000	99.198909 
1534.000000	99.197535 
1533.000000	99.197424 
1532.000000	99.196879 
1531.000000	99.195060 
1530.000000	99.192249 
1529.000000	99.188936 
1528.000000	99.185647 
1527.000000	99.183159 
1526.000000	99.181544 
1525.000000	99.179611 
1524.000000	99.176498 
1523.000000	99.173045 
1522.000000	99.170632 
1521.000000	99.168789 
1520.000000	99.165609 
1519.000000	99.160355 
1518.000000	99.154225 
1517.000000	99.149193 
1516.000000	99.146116 
1515.000000	99.144288 
1514.000000	99.142768 
1513.000000	99.141074 
1512.000000	99.138414 
1511.000000	99.134156 
1510.000000	99.129034 
1509.000000	99.124397 
1508.000000	99.121464 
1507.000000	99.119662 
1506.000000	99.116831 
1505.000000	99.112010 
1504.000000	99.106010 
1503.000000	99.099660 
1502.000000	99.093767 
1501.000000	99.088894 
1500.000000	99.084777 
1499.000000	99.080804 
1498.000000	99.076998 
1497.000000	99.073533 
1496.000000	99.069926 
1495.000000	99.066622 
1494.000000	99.064537 
1493.000000	99.063615 
1492.000000	99.063206 
1491.000000	99.062819 
1490.000000	99.061974 
1489.000000	99.059470 
1488.000000	99.054322 
1487.000000	99.048001 
1486.000000	99.042452 
1485.000000	99.037236 
1484.000000	99.031622 
1483.000000	99.026297 
1482.000000	99.022584 
1481.000000	99.020249 
1480.000000	99.017507 
1479.000000	99.013782 
1478.000000	99.010421 
1477.000000	99.008281 
1476.000000	99.006388 
1475.000000	99.003895 
1474.000000	99.001301 
1473.000000	98.999508 
1472.000000	98.998367 
1471.000000	98.997010 
1470.000000	98.994715 
1469.000000	98.990977 
1468.000000	98.985781 
1467.000000	98.980250 
1466.000000	98.976443 
1465.000000	98.975533 
1464.000000	98.976264 
1463.000000	98.975884 
1462.000000	98.973042 
1461.000000	98.968288 
1460.000000	98.963128 
1459.000000	98.959014 
1458.000000	98.957199 
1457.000000	98.957237 
1456.000000	98.955949 
1455.000000	98.950567 
1454.000000	98.941876 
1453.000000	98.933187 
1452.000000	98.927204 
1451.000000	98.924761 
1450.000000	98.926076 
1449.000000	98.931045 
1448.000000	98.937284 
1447.000000	98.941319 
1446.000000	98.941856 
1445.000000	98.940958 
1444.000000	98.941001 
1443.000000	98.941844 
1442.000000	98.942105 
1441.000000	98.940677 
1440.000000	98.936798 
1439.000000	98.930792 
1438.000000	98.926813 
1437.000000	98.929667 
1436.000000	98.936334 
1435.000000	98.938597 
1434.000000	98.935254 
1433.000000	98.930849 
1432.000000	98.928397 
1431.000000	98.927290 
1430.000000	98.926533 
1429.000000	98.926440 
1428.000000	98.925564 
1427.000000	98.922321 
1426.000000	98.918111 
1425.000000	98.917247 
1424.000000	98.920382 
1423.000000	98.921148 
1422.000000	98.915468 
1421.000000	98.907417 
1420.000000	98.902786 
1419.000000	98.899562 
1418.000000	98.892450 
1417.000000	98.881604 
1416.000000	98.870007 
1415.000000	98.859135 
1414.000000	98.848336 
1413.000000	98.837179 
1412.000000	98.826708 
1411.000000	98.817674 
1410.000000	98.810174 
1409.000000	98.804163 
1408.000000	98.799573 
1407.000000	98.797386 
1406.000000	98.799272 
1405.000000	98.806847 
1404.000000	98.818906 
1403.000000	98.830366 
1402.000000	98.838385 
1401.000000	98.846048 
1400.000000	98.858032 
1399.000000	98.872741 
1398.000000	98.881587 
1397.000000	98.877757 
1396.000000	98.863068 
1395.000000	98.848127 
1394.000000	98.845140 
1393.000000	98.857988 
1392.000000	98.880483 
1391.000000	98.903202 
1390.000000	98.920125 
1389.000000	98.929865 
1388.000000	98.933286 
1387.000000	98.931570 
1386.000000	98.926596 
1385.000000	98.922041 
1384.000000	98.921718 
1383.000000	98.926375 
1382.000000	98.933634 
1381.000000	98.941059 
1380.000000	98.948705 
1379.000000	98.957835 
1378.000000	98.968368 
1377.000000	98.979060 
1376.000000	98.989298 
1375.000000	98.999430 
1374.000000	99.010048 
1373.000000	99.021841 
1372.000000	99.034969 
1371.000000	99.048846 
1370.000000	99.062271 
1369.000000	99.074368 
1368.000000	99.085231 
1367.000000	99.094926 
1366.000000	99.103503 
1365.000000	99.112103 
1364.000000	99.122321 
1363.000000	99.133911 
1362.000000	99.144197 
1361.000000	99.151358 
1360.000000	99.157147 
1359.000000	99.164518 
1358.000000	99.173971 
1357.000000	99.183934 
1356.000000	99.193408 
1355.000000	99.202386 
1354.000000	99.210639 
1353.000000	99.217809 
1352.000000	99.224276 
1351.000000	99.231439 
1350.000000	99.239702 
1349.000000	99.247647 
1348.000000	99.253805 
1347.000000	99.258255 
1346.000000	99.262351 
1345.000000	99.266623 
1344.000000	99.269804 
1343.000000	99.270595 
1342.000000	99.269929 
1341.000000	99.270641 
1340.000000	99.274472 
1339.000000	99.279713 
1338.000000	99.283145 
1337.000000	99.283808 
1336.000000	99.282839 
1335.000000	99.280957 
1334.000000	99.278281 
1333.000000	99.275684 
1332.000000	99.274395 
1331.000000	99.274601 
1330.000000	99.275670 
1329.000000	99.277411 
1328.000000	99.279830 
1327.000000	99.282038 
1326.000000	99.282713 
1325.000000	99.281607 
1324.000000	99.279333 
1323.000000	99.275883 
1322.000000	99.271230 
1321.000000	99.267011 
1320.000000	99.265685 
1319.000000	99.267794 
1318.000000	99.271489 
1317.000000	99.274804 
1316.000000	99.276761 
1315.000000	99.276483 
1314.000000	99.273632 
1313.000000	99.270222 
1312.000000	99.269625 
1311.000000	99.272626 
1310.000000	99.276215 
1309.000000	99.277282 
1308.000000	99.276128 
1307.000000	99.275397 
1306.000000	99.276569 
1305.000000	99.279061 
1304.000000	99.281843 
1303.000000	99.284012 
1302.000000	99.284338 
1301.000000	99.281973 
1300.000000	99.277967 
1299.000000	99.275024 
1298.000000	99.274884 
1297.000000	99.276302 
1296.000000	99.276286 
1295.000000	99.273361 
1294.000000	99.269104 
1293.000000	99.266271 
1292.000000	99.265845 
1291.000000	99.266601 
1290.000000	99.267272 
1289.000000	99.267801 
1288.000000	99.267970 
1287.000000	99.266316 
1286.000000	99.261951 
1285.000000	99.256669 
1284.000000	99.253574 
1283.000000	99.253454 
1282.000000	99.253655 
1281.000000	99.250961 
1280.000000	99.244860 
1279.000000	99.237624 
1278.000000	99.231922 
1277.000000	99.228776 
1276.000000	99.227059 
1275.000000	99.224474 
1274.000000	99.219487 
1273.000000	99.212697 
1272.000000	99.206000 
1271.000000	99.200250 
1270.000000	99.194247 
1269.000000	99.186319 
1268.000000	99.176302 
1267.000000	99.165454 
1266.000000	99.154979 
1265.000000	99.145367 
1264.000000	99.136899 
1263.000000	99.129871 
1262.000000	99.123919 
1261.000000	99.117862 
1260.000000	99.111117 
1259.000000	99.104849 
1258.000000	99.100600 
1257.000000	99.097661 
1256.000000	99.092989 
1255.000000	99.084732 
1254.000000	99.074957 
1253.000000	99.067304 
1252.000000	99.062419 
1251.000000	99.057731 
1250.000000	99.051987 
1249.000000	99.047820 
1248.000000	99.048429 
1247.000000	99.053066 
1246.000000	99.057108 
1245.000000	99.055882 
1244.000000	99.047861 
1243.000000	99.035897 
1242.000000	99.026595 
1241.000000	99.026306 
1240.000000	99.035278 
1239.000000	99.046114 
1238.000000	99.050077 
1237.000000	99.044592 
1236.000000	99.033224 
1235.000000	99.020181 
1234.000000	99.007229 
1233.000000	98.995147 
1232.000000	98.984839 
1231.000000	98.976138 
1230.000000	98.967871 
1229.000000	98.959961 
1228.000000	98.953639 
1227.000000	98.948907 
1226.000000	98.943499 
1225.000000	98.935241 
1224.000000	98.924211 
1223.000000	98.912036 
1222.000000	98.900149 
1221.000000	98.889137 
1220.000000	98.878773 
1219.000000	98.868377 
1218.000000	98.857832 
1217.000000	98.847847 
1216.000000	98.838005 
1215.000000	98.825352 
1214.000000	98.807282 
1213.000000	98.785825 
1212.000000	98.766512 
1211.000000	98.751861 
1210.000000	98.738010 
1209.000000	98.719367 
1208.000000	98.695062 
1207.000000	98.669475 
1206.000000	98.647309 
1205.000000	98.629112 
1204.000000	98.611386 
1203.000000	98.590339 
1202.000000	98.565628 
1201.000000	98.540589 
1200.000000	98.518491 
1199.000000	98.499135 
1198.000000	98.479997 
1197.000000	98.459933 
1196.000000	98.440031 
1195.000000	98.421268 
1194.000000	98.403306 
1193.000000	98.385625 
1192.000000	98.367924 
1191.000000	98.349143 
1190.000000	98.327863 
1189.000000	98.304106 
1188.000000	98.279250 
1187.000000	98.254129 
1186.000000	98.229010 
1185.000000	98.205262 
1184.000000	98.184418 
1183.000000	98.165159 
1182.000000	98.144037 
1181.000000	98.120240 
1180.000000	98.096784 
1179.000000	98.075505 
1178.000000	98.053656 
1177.000000	98.027562 
1176.000000	97.997142 
1175.000000	97.964583 
1174.000000	97.930876 
1173.000000	97.896380 
1172.000000	97.862794 
1171.000000	97.831275 
1170.000000	97.799761 
1169.000000	97.765241 
1168.000000	97.728065 
1167.000000	97.691510 
1166.000000	97.658245 
1165.000000	97.630309 
1164.000000	97.611662 
1163.000000	97.606716 
1162.000000	97.615218 
1161.000000	97.630842 
1160.000000	97.645584 
1159.000000	97.654155 
1158.000000	97.654466 
1157.000000	97.646294 
1156.000000	97.630204 
1155.000000	97.606687 
1154.000000	97.576274 
1153.000000	97.541093 
1152.000000	97.505210 
1151.000000	97.471882 
1150.000000	97.441133 
1149.000000	97.411503 
1148.000000	97.382913 
1147.000000	97.355539 
1146.000000	97.326823 
1145.000000	97.292642 
1144.000000	97.251777 
1143.000000	97.207304 
1142.000000	97.163336 
1141.000000	97.121749 
1140.000000	97.082033 
1139.000000	97.042771 
1138.000000	97.003147 
1137.000000	96.963916 
1136.000000	96.926331 
1135.000000	96.889350 
1134.000000	96.849508 
1133.000000	96.805163 
1132.000000	96.759087 
1131.000000	96.714569 
1130.000000	96.670616 
1129.000000	96.623945 
1128.000000	96.574322 
1127.000000	96.524414 
1126.000000	96.475117 
1125.000000	96.424672 
1124.000000	96.372377 
1123.000000	96.319831 
1122.000000	96.268154 
1121.000000	96.216760 
1120.000000	96.165139 
1119.000000	96.113286 
1118.000000	96.060369 
1117.000000	96.005716 
1116.000000	95.951114 
1115.000000	95.899453 
1114.000000	95.851056 
1113.000000	95.803835 
1112.000000	95.756866 
1111.000000	95.711022 
1110.000000	95.666343 
1109.000000	95.621685 
1108.000000	95.576394 
1107.000000	95.530201 
1106.000000	95.482215 
1105.000000	95.432228 
1104.000000	95.382347 
1103.000000	95.335088 
1102.000000	95.290539 
1101.000000	95.247553 
1100.000000	95.206302 
1099.000000	95.167698 
1098.000000	95.131391 
1097.000000	95.096588 
1096.000000	95.063284 
1095.000000	95.030176 
1094.000000	94.992967 
1093.000000	94.947930 
1092.000000	94.896681 
1091.000000	94.845053 
1090.000000	94.797639 
1089.000000	94.755229 
1088.000000	94.716191 
1087.000000	94.677593 
1086.000000	94.636098 
1085.000000	94.590946 
1084.000000	94.545667 
1083.000000	94.504227 
1082.000000	94.466282 
1081.000000	94.429120 
1080.000000	94.393183 
1079.000000	94.361858 
1078.000000	94.336244 
1077.000000	94.314193 
1076.000000	94.294451 
1075.000000	94.277658 
1074.000000	94.263247 
1073.000000	94.249428 
1072.000000	94.235332 
1071.000000	94.217645 
1070.000000	94.185761 
1069.000000	94.128209 
1068.000000	94.047226 
1067.000000	93.962870 
1066.000000	93.898477 
1065.000000	93.863373 
1064.000000	93.850379 
1063.000000	93.843568 
1062.000000	93.825532 
1061.000000	93.783437 
1060.000000	93.715673 
1059.000000	93.634177 
1058.000000	93.557048 
1057.000000	93.496494 
1056.000000	93.453038 
1055.000000	93.418764 
1054.000000	93.384764 
1053.000000	93.347280 
1052.000000	93.308268 
1051.000000	93.270366 
1050.000000	93.232694 
1049.000000	93.192688 
1048.000000	93.149554 
1047.000000	93.103509 
1046.000000	93.054407 
1045.000000	93.004089 
1044.000000	92.957332 
1043.000000	92.916901 
1042.000000	92.879592 
1041.000000	92.840584 
1040.000000	92.800044 
1039.000000	92.762601 
1038.000000	92.732921 
1037.000000	92.714842 
1036.000000	92.711264 
1035.000000	92.720487 
1034.000000	92.735467 
1033.000000	92.750220 
1032.000000	92.762782 
1031.000000	92.768800 
1030.000000	92.760297 
1029.000000	92.738776 
1028.000000	92.723179 
1027.000000	92.733988 
1026.000000	92.771435 
1025.000000	92.817220 
1024.000000	92.855449 
1023.000000	92.883356 
1022.000000	92.903856 
1021.000000	92.918764 
1020.000000	92.930607 
1019.000000	92.942836 
1018.000000	92.956354 
1017.000000	92.971007 
1016.000000	92.989693 
1015.000000	93.015128 
1014.000000	93.044034 
1013.000000	93.071098 
1012.000000	93.097176 
1011.000000	93.126825 
1010.000000	93.159815 
1009.000000	93.192671 
1008.000000	93.227040 
1007.000000	93.268520 
1006.000000	93.318082 
1005.000000	93.372086 
1004.000000	93.429603 
1003.000000	93.491674 
1002.000000	93.554083 
1001.000000	93.609638 
1000.000000	93.658587 
999.000000	 93.709272 
998.000000	 93.767148 
997.000000	 93.829498 
996.000000	 93.891797 
995.000000	 93.953394 
994.000000	 94.015985 
993.000000	 94.081415 
992.000000	 94.151033 
991.000000	 94.222633 
990.000000	 94.289387 
989.000000	 94.347548 
988.000000	 94.403882 
987.000000	 94.469183 
986.000000	 94.545707 
985.000000	 94.627471 
984.000000	 94.711103 
983.000000	 94.798355 
982.000000	 94.888423 
981.000000	 94.976203 
980.000000	 95.059629 
979.000000	 95.141762 
978.000000	 95.223980 
977.000000	 95.303686 
976.000000	 95.380612 
975.000000	 95.459160 
974.000000	 95.541888 
973.000000	 95.625833 
972.000000	 95.707949 
971.000000	 95.789877 
970.000000	 95.874533 
969.000000	 95.960899 
968.000000	 96.044347 
967.000000	 96.120430 
966.000000	 96.187975 
965.000000	 96.250702 
964.000000	 96.315635 
963.000000	 96.387039 
962.000000	 96.461783 
961.000000	 96.533048 
960.000000	 96.597712 
959.000000	 96.657275 
958.000000	 96.712849 
957.000000	 96.763229 
956.000000	 96.808116 
955.000000	 96.850065 
954.000000	 96.892586 
953.000000	 96.937839 
952.000000	 96.985383 
951.000000	 97.031263 
950.000000	 97.070144 
949.000000	 97.101220 
948.000000	 97.130364 
947.000000	 97.163323 
946.000000	 97.198342 
945.000000	 97.229042 
944.000000	 97.252770 
943.000000	 97.272227 
942.000000	 97.290505 
941.000000	 97.309199 
940.000000	 97.330716 
939.000000	 97.357319 
938.000000	 97.387178 
937.000000	 97.415317 
936.000000	 97.439298 
935.000000	 97.461052 
934.000000	 97.483013 
933.000000	 97.505574 
932.000000	 97.528597 
931.000000	 97.552443 
930.000000	 97.576876 
929.000000	 97.600962 
928.000000	 97.624386 
927.000000	 97.647419 
926.000000	 97.669806 
925.000000	 97.690706 
924.000000	 97.708819 
923.000000	 97.721979 
922.000000	 97.728810 
921.000000	 97.732278 
920.000000	 97.738630 
919.000000	 97.750442 
918.000000	 97.763143 
917.000000	 97.770855 
916.000000	 97.773635 
915.000000	 97.776730 
914.000000	 97.784977 
913.000000	 97.800207 
912.000000	 97.821609 
911.000000	 97.845888 
910.000000	 97.869280 
909.000000	 97.891960 
908.000000	 97.918034 
907.000000	 97.949348 
906.000000	 97.982738 
905.000000	 98.015539 
904.000000	 98.049497 
903.000000	 98.085892 
902.000000	 98.121127 
901.000000	 98.151493 
900.000000	 98.178983 
899.000000	 98.208403 
898.000000	 98.241187 
897.000000	 98.275637 
896.000000	 98.309785 
895.000000	 98.340213 
894.000000	 98.362026 
893.000000	 98.375111 
892.000000	 98.387729 
891.000000	 98.408640 
890.000000	 98.437307 
889.000000	 98.466347 
888.000000	 98.490901 
887.000000	 98.510677 
886.000000	 98.525875 
885.000000	 98.537037 
884.000000	 98.546693 
883.000000	 98.555280 
882.000000	 98.557995 
881.000000	 98.552858 
880.000000	 98.549925 
879.000000	 98.563321 
878.000000	 98.593911 
877.000000	 98.627665 
876.000000	 98.652405 
875.000000	 98.668840 
874.000000	 98.683039 
873.000000	 98.697712 
872.000000	 98.715044 
871.000000	 98.739588 
870.000000	 98.771970 
869.000000	 98.804851 
868.000000	 98.830446 
867.000000	 98.848602 
866.000000	 98.864150 
865.000000	 98.880576 
864.000000	 98.900077 
863.000000	 98.925654 
862.000000	 98.957977 
861.000000	 98.992258 
860.000000	 99.022497 
859.000000	 99.047741 
858.000000	 99.071455 
857.000000	 99.095963 
856.000000	 99.119715 
855.000000	 99.138786 
854.000000	 99.149424 
853.000000	 99.150777 
852.000000	 99.146960 
851.000000	 99.145292 
850.000000	 99.151263 
849.000000	 99.165822 
848.000000	 99.186573 
847.000000	 99.208873 
846.000000	 99.226739 
845.000000	 99.236777 
844.000000	 99.241626 
843.000000	 99.246506 
842.000000	 99.252635 
841.000000	 99.257308 
840.000000	 99.259350 
839.000000	 99.259833 
838.000000	 99.258055 
837.000000	 99.252292 
836.000000	 99.245036 
835.000000	 99.241990 
834.000000	 99.244130 
833.000000	 99.245735 
832.000000	 99.242292 
831.000000	 99.235705 
830.000000	 99.229555 
829.000000	 99.223820 
828.000000	 99.217771 
827.000000	 99.214619 
826.000000	 99.219420 
825.000000	 99.234149 
824.000000	 99.256570 
823.000000	 99.281067 
822.000000	 99.299686 
821.000000	 99.306706 
820.000000	 99.303834 
819.000000	 99.297751 
818.000000	 99.291251 
817.000000	 99.279273 
816.000000	 99.254889 
815.000000	 99.217337 
814.000000	 99.173232 
813.000000	 99.130873 
812.000000	 99.093175 
811.000000	 99.054087 
810.000000	 99.001352 
809.000000	 98.924508 
808.000000	 98.821249 
807.000000	 98.696839 
806.000000	 98.559697 
805.000000	 98.418958 
804.000000	 98.283463 
803.000000	 98.159111 
802.000000	 98.048200 
801.000000	 97.954625 
800.000000	 97.887486 
799.000000	 97.854459 
798.000000	 97.852757 
797.000000	 97.871434 
796.000000	 97.901085 
795.000000	 97.936503 
794.000000	 97.973061 
793.000000	 98.008020 
792.000000	 98.044083 
791.000000	 98.084502 
790.000000	 98.124894 
789.000000	 98.155531 
788.000000	 98.170627 
787.000000	 98.169928 
786.000000	 98.153380 
785.000000	 98.120558 
784.000000	 98.074014 
783.000000	 98.017760 
782.000000	 97.955042 
781.000000	 97.893857 
780.000000	 97.850517 
779.000000	 97.838138 
778.000000	 97.853274 
777.000000	 97.882873 
776.000000	 97.922770 
775.000000	 97.978672 
774.000000	 98.049814 
773.000000	 98.124342 
772.000000	 98.193141 
771.000000	 98.257525 
770.000000	 98.320378 
769.000000	 98.379426 
768.000000	 98.432194 
767.000000	 98.478408 
766.000000	 98.514649 
765.000000	 98.536103 
764.000000	 98.547555 
763.000000	 98.563817 
762.000000	 98.593942 
761.000000	 98.631840 
760.000000	 98.666542 
759.000000	 98.694229 
758.000000	 98.716045 
757.000000	 98.732572 
756.000000	 98.747549 
755.000000	 98.770761 
754.000000	 98.808580 
753.000000	 98.853393 
752.000000	 98.888194 
751.000000	 98.901757 
750.000000	 98.898039 
749.000000	 98.892977 
748.000000	 98.902433 
747.000000	 98.929370 
746.000000	 98.960946 
745.000000	 98.981192 
744.000000	 98.987538 
743.000000	 98.991623 
742.000000	 99.004355 
741.000000	 99.025386 
740.000000	 99.047858 
739.000000	 99.067185 
738.000000	 99.082700 
737.000000	 99.095371 
736.000000	 99.106876 
735.000000	 99.118273 
734.000000	 99.128637 
733.000000	 99.137538 
732.000000	 99.147534 
731.000000	 99.159806 
730.000000	 99.169123 
729.000000	 99.170117 
728.000000	 99.165287 
727.000000	 99.161630 
726.000000	 99.163751 
725.000000	 99.173706 
724.000000	 99.193660 
723.000000	 99.222238 
722.000000	 99.250456 
721.000000	 99.268324 
720.000000	 99.274888 
719.000000	 99.276364 
718.000000	 99.276039 
717.000000	 99.273467 
716.000000	 99.272492 
715.000000	 99.278862 
714.000000	 99.288705 
713.000000	 99.291347 
712.000000	 99.285561 
711.000000	 99.279346 
710.000000	 99.274442 
709.000000	 99.271533 
708.000000	 99.270128 
707.000000	 99.269046 
706.000000	 99.266766 
705.000000	 99.261366 
704.000000	 99.252788 
703.000000	 99.243611 
702.000000	 99.235443 
701.000000	 99.226830 
700.000000	 99.216000 
699.000000	 99.202827 
698.000000	 99.188695 
697.000000	 99.175681 
696.000000	 99.165993 
695.000000	 99.161755 
694.000000	 99.163334 
693.000000	 99.168973 
692.000000	 99.176742 
691.000000	 99.185052 
690.000000	 99.192330 
689.000000	 99.197260 
688.000000	 99.199585 
687.000000	 99.200263 
686.000000	 99.199951 
685.000000	 99.198842 
684.000000	 99.197904 
683.000000	 99.198069 
682.000000	 99.198682 
681.000000	 99.198386 
680.000000	 99.197386 
679.000000	 99.196926 
678.000000	 99.197173 
677.000000	 99.198035 
676.000000	 99.199788 
675.000000	 99.202695 
674.000000	 99.205689 
673.000000	 99.205736 
672.000000	 99.200315 
671.000000	 99.187995 
670.000000	 99.167502 
669.000000	 99.141419 
668.000000	 99.129102 
667.000000	 99.146137 
666.000000	 99.179465 
665.000000	 99.205624 
664.000000	 99.221412 
663.000000	 99.230503 
662.000000	 99.236663 
661.000000	 99.242588 
660.000000	 99.249039 
659.000000	 99.255511 
658.000000	 99.261395 
657.000000	 99.266874 
656.000000	 99.271312 
655.000000	 99.273299 
654.000000	 99.272527 
653.000000	 99.270385 
652.000000	 99.268757 
651.000000	 99.269347 
650.000000	 99.272975 

