4000.000000	97.142220 
3999.000000	97.141615 
3998.000000	97.139926 
3997.000000	97.137656 
3996.000000	97.135610 
3995.000000	97.134388 
3994.000000	97.134130 
3993.000000	97.134426 
3992.000000	97.134581 
3991.000000	97.134173 
3990.000000	97.133418 
3989.000000	97.132863 
3988.000000	97.132733 
3987.000000	97.132834 
3986.000000	97.133034 
3985.000000	97.133462 
3984.000000	97.134147 
3983.000000	97.134800 
3982.000000	97.135250 
3981.000000	97.135724 
3980.000000	97.136319 
3979.000000	97.136526 
3978.000000	97.135762 
3977.000000	97.134212 
3976.000000	97.132765 
3975.000000	97.131975 
3974.000000	97.131535 
3973.000000	97.130825 
3972.000000	97.129561 
3971.000000	97.127907 
3970.000000	97.126280 
3969.000000	97.125234 
3968.000000	97.125172 
3967.000000	97.126002 
3966.000000	97.127126 
3965.000000	97.127766 
3964.000000	97.127406 
3963.000000	97.126044 
3962.000000	97.124217 
3961.000000	97.122677 
3960.000000	97.121758 
3959.000000	97.121242 
3958.000000	97.120773 
3957.000000	97.120305 
3956.000000	97.119944 
3955.000000	97.119601 
3954.000000	97.119068 
3953.000000	97.118269 
3952.000000	97.117321 
3951.000000	97.116331 
3950.000000	97.115309 
3949.000000	97.114277 
3948.000000	97.113359 
3947.000000	97.112736 
3946.000000	97.112482 
3945.000000	97.112430 
3944.000000	97.112188 
3943.000000	97.111513 
3942.000000	97.110628 
3941.000000	97.109984 
3940.000000	97.109744 
3939.000000	97.109678 
3938.000000	97.109493 
3937.000000	97.109244 
3936.000000	97.109055 
3935.000000	97.108593 
3934.000000	97.107328 
3933.000000	97.105267 
3932.000000	97.103234 
3931.000000	97.101901 
3930.000000	97.101216 
3929.000000	97.101116 
3928.000000	97.101871 
3927.000000	97.103338 
3926.000000	97.104260 
3925.000000	97.103511 
3924.000000	97.101652 
3923.000000	97.099997 
3922.000000	97.098805 
3921.000000	97.097633 
3920.000000	97.096608 
3919.000000	97.096334 
3918.000000	97.096565 
3917.000000	97.096448 
3916.000000	97.095925 
3915.000000	97.095798 
3914.000000	97.096323 
3913.000000	97.096980 
3912.000000	97.097326 
3911.000000	97.097571 
3910.000000	97.097759 
3909.000000	97.097660 
3908.000000	97.097150 
3907.000000	97.096299 
3906.000000	97.094938 
3905.000000	97.092698 
3904.000000	97.089897 
3903.000000	97.087569 
3902.000000	97.086389 
3901.000000	97.086167 
3900.000000	97.086315 
3899.000000	97.086515 
3898.000000	97.086717 
3897.000000	97.086769 
3896.000000	97.086505 
3895.000000	97.086031 
3894.000000	97.085533 
3893.000000	97.085076 
3892.000000	97.084565 
3891.000000	97.083992 
3890.000000	97.083452 
3889.000000	97.082990 
3888.000000	97.082565 
3887.000000	97.082143 
3886.000000	97.081723 
3885.000000	97.081308 
3884.000000	97.080897 
3883.000000	97.080486 
3882.000000	97.080077 
3881.000000	97.079685 
3880.000000	97.079336 
3879.000000	97.079039 
3878.000000	97.078784 
3877.000000	97.078548 
3876.000000	97.078310 
3875.000000	97.078062 
3874.000000	97.077803 
3873.000000	97.077537 
3872.000000	97.077264 
3871.000000	97.076986 
3870.000000	97.076720 
3869.000000	97.076491 
3868.000000	97.076314 
3867.000000	97.076175 
3866.000000	97.076057 
3865.000000	97.075963 
3864.000000	97.075908 
3863.000000	97.075894 
3862.000000	97.075903 
3861.000000	97.075918 
3860.000000	97.075931 
3859.000000	97.075934 
3858.000000	97.075916 
3857.000000	97.075878 
3856.000000	97.075828 
3855.000000	97.075769 
3854.000000	97.075698 
3853.000000	97.075621 
3852.000000	97.075544 
3851.000000	97.075470 
3850.000000	97.075407 
3849.000000	97.075367 
3848.000000	97.075353 
3847.000000	97.075360 
3846.000000	97.075369 
3845.000000	97.075365 
3844.000000	97.075345 
3843.000000	97.075319 
3842.000000	97.075304 
3841.000000	97.075315 
3840.000000	97.075353 
3839.000000	97.075404 
3838.000000	97.075450 
3837.000000	97.075480 
3836.000000	97.075493 
3835.000000	97.075503 
3834.000000	97.075526 
3833.000000	97.075572 
3832.000000	97.075648 
3831.000000	97.075754 
3830.000000	97.075884 
3829.000000	97.076031 
3828.000000	97.076187 
3827.000000	97.076339 
3826.000000	97.076477 
3825.000000	97.076600 
3824.000000	97.076718 
3823.000000	97.076833 
3822.000000	97.076940 
3821.000000	97.077041 
3820.000000	97.077155 
3819.000000	97.077294 
3818.000000	97.077458 
3817.000000	97.077635 
3816.000000	97.077821 
3815.000000	97.078019 
3814.000000	97.078215 
3813.000000	97.078389 
3812.000000	97.078536 
3811.000000	97.078671 
3810.000000	97.078809 
3809.000000	97.078950 
3808.000000	97.079077 
3807.000000	97.079174 
3806.000000	97.079243 
3805.000000	97.079298 
3804.000000	97.079351 
3803.000000	97.079406 
3802.000000	97.079466 
3801.000000	97.079533 
3800.000000	97.079602 
3799.000000	97.079653 
3798.000000	97.079671 
3797.000000	97.079663 
3796.000000	97.079645 
3795.000000	97.079615 
3794.000000	97.079554 
3793.000000	97.079444 
3792.000000	97.079278 
3791.000000	97.079055 
3790.000000	97.078767 
3789.000000	97.078406 
3788.000000	97.077977 
3787.000000	97.077488 
3786.000000	97.076950 
3785.000000	97.076374 
3784.000000	97.075772 
3783.000000	97.075143 
3782.000000	97.074478 
3781.000000	97.073767 
3780.000000	97.073020 
3779.000000	97.072246 
3778.000000	97.071439 
3777.000000	97.070578 
3776.000000	97.069650 
3775.000000	97.068651 
3774.000000	97.067592 
3773.000000	97.066498 
3772.000000	97.065383 
3771.000000	97.064250 
3770.000000	97.063111 
3769.000000	97.061992 
3768.000000	97.060893 
3767.000000	97.059785 
3766.000000	97.058646 
3765.000000	97.057495 
3764.000000	97.056367 
3763.000000	97.055264 
3762.000000	97.054151 
3761.000000	97.052997 
3760.000000	97.051817 
3759.000000	97.050659 
3758.000000	97.049502 
3757.000000	97.048275 
3756.000000	97.046969 
3755.000000	97.045663 
3754.000000	97.044383 
3753.000000	97.043079 
3752.000000	97.041844 
3751.000000	97.040848 
3750.000000	97.039915 
3749.000000	97.038682 
3748.000000	97.037335 
3747.000000	97.036409 
3746.000000	97.035884 
3745.000000	97.035191 
3744.000000	97.034594 
3743.000000	97.034457 
3742.000000	97.033997 
3741.000000	97.032450 
3740.000000	97.030100 
3739.000000	97.028426 
3738.000000	97.028236 
3737.000000	97.028222 
3736.000000	97.026685 
3735.000000	97.024566 
3734.000000	97.023994 
3733.000000	97.024788 
3732.000000	97.025354 
3731.000000	97.025356 
3730.000000	97.025368 
3729.000000	97.025234 
3728.000000	97.023998 
3727.000000	97.021575 
3726.000000	97.019747 
3725.000000	97.019564 
3724.000000	97.019616 
3723.000000	97.018606 
3722.000000	97.017617 
3721.000000	97.018143 
3720.000000	97.019500 
3719.000000	97.020354 
3718.000000	97.019807 
3717.000000	97.018041 
3716.000000	97.015999 
3715.000000	97.013397 
3714.000000	97.009066 
3713.000000	97.003479 
3712.000000	96.999413 
3711.000000	96.998765 
3710.000000	96.999553 
3709.000000	96.998883 
3708.000000	96.995555 
3707.000000	96.989714 
3706.000000	96.982902 
3705.000000	96.977133 
3704.000000	96.973130 
3703.000000	96.969578 
3702.000000	96.964204 
3701.000000	96.956048 
3700.000000	96.946360 
3699.000000	96.937437 
3698.000000	96.930194 
3697.000000	96.923983 
3696.000000	96.919257 
3695.000000	96.916162 
3694.000000	96.912353 
3693.000000	96.906358 
3692.000000	96.900325 
3691.000000	96.896963 
3690.000000	96.894851 
3689.000000	96.891787 
3688.000000	96.888292 
3687.000000	96.884972 
3686.000000	96.880790 
3685.000000	96.873856 
3684.000000	96.864608 
3683.000000	96.857176 
3682.000000	96.853997 
3681.000000	96.850402 
3680.000000	96.840845 
3679.000000	96.827105 
3678.000000	96.815854 
3677.000000	96.806775 
3676.000000	96.794683 
3675.000000	96.782588 
3674.000000	96.774677 
3673.000000	96.768730 
3672.000000	96.760653 
3671.000000	96.749511 
3670.000000	96.740473 
3669.000000	96.737665 
3668.000000	96.735750 
3667.000000	96.728673 
3666.000000	96.718304 
3665.000000	96.709760 
3664.000000	96.704896 
3663.000000	96.701372 
3662.000000	96.695164 
3661.000000	96.684012 
3660.000000	96.669641 
3659.000000	96.655361 
3658.000000	96.643085 
3657.000000	96.631074 
3656.000000	96.618054 
3655.000000	96.605015 
3654.000000	96.592524 
3653.000000	96.580163 
3652.000000	96.566405 
3651.000000	96.550589 
3650.000000	96.535396 
3649.000000	96.523477 
3648.000000	96.513809 
3647.000000	96.506388 
3646.000000	96.503743 
3645.000000	96.505904 
3644.000000	96.508994 
3643.000000	96.509645 
3642.000000	96.507626 
3641.000000	96.504666 
3640.000000	96.500636 
3639.000000	96.493072 
3638.000000	96.481879 
3637.000000	96.470052 
3636.000000	96.459084 
3635.000000	96.445758 
3634.000000	96.427902 
3633.000000	96.409359 
3632.000000	96.395199 
3631.000000	96.383250 
3630.000000	96.365738 
3629.000000	96.345785 
3628.000000	96.335506 
3627.000000	96.333418 
3626.000000	96.330056 
3625.000000	96.324718 
3624.000000	96.323268 
3623.000000	96.329194 
3622.000000	96.338083 
3621.000000	96.340104 
3620.000000	96.329778 
3619.000000	96.312207 
3618.000000	96.296300 
3617.000000	96.286946 
3616.000000	96.285973 
3615.000000	96.291912 
3614.000000	96.300494 
3613.000000	96.308747 
3612.000000	96.316067 
3611.000000	96.321213 
3610.000000	96.322525 
3609.000000	96.320888 
3608.000000	96.320070 
3607.000000	96.322607 
3606.000000	96.327093 
3605.000000	96.332399 
3604.000000	96.340294 
3603.000000	96.352044 
3602.000000	96.365118 
3601.000000	96.374199 
3600.000000	96.376802 
3599.000000	96.374198 
3598.000000	96.368869 
3597.000000	96.363013 
3596.000000	96.359120 
3595.000000	96.357478 
3594.000000	96.356669 
3593.000000	96.355470 
3592.000000	96.353682 
3591.000000	96.351766 
3590.000000	96.349027 
3589.000000	96.343395 
3588.000000	96.335427 
3587.000000	96.330064 
3586.000000	96.330230 
3585.000000	96.333778 
3584.000000	96.338480 
3583.000000	96.344189 
3582.000000	96.351041 
3581.000000	96.357216 
3580.000000	96.360244 
3579.000000	96.359221 
3578.000000	96.355345 
3577.000000	96.350736 
3576.000000	96.346704 
3575.000000	96.343157 
3574.000000	96.338915 
3573.000000	96.333342 
3572.000000	96.326785 
3571.000000	96.320462 
3570.000000	96.314890 
3569.000000	96.308447 
3568.000000	96.299660 
3567.000000	96.291105 
3566.000000	96.286555 
3565.000000	96.285737 
3564.000000	96.285982 
3563.000000	96.285915 
3562.000000	96.285762 
3561.000000	96.286124 
3560.000000	96.287039 
3559.000000	96.288142 
3558.000000	96.288970 
3557.000000	96.289292 
3556.000000	96.288917 
3555.000000	96.287425 
3554.000000	96.284106 
3553.000000	96.278794 
3552.000000	96.272618 
3551.000000	96.266994 
3550.000000	96.262384 
3549.000000	96.258594 
3548.000000	96.255557 
3547.000000	96.253116 
3546.000000	96.250473 
3545.000000	96.246938 
3544.000000	96.243227 
3543.000000	96.240918 
3542.000000	96.240492 
3541.000000	96.240960 
3540.000000	96.241037 
3539.000000	96.240073 
3538.000000	96.238008 
3537.000000	96.235106 
3536.000000	96.231900 
3535.000000	96.228739 
3534.000000	96.225644 
3533.000000	96.222604 
3532.000000	96.219905 
3531.000000	96.217821 
3530.000000	96.216144 
3529.000000	96.214272 
3528.000000	96.211837 
3527.000000	96.209011 
3526.000000	96.206207 
3525.000000	96.203702 
3524.000000	96.201536 
3523.000000	96.199617 
3522.000000	96.197781 
3521.000000	96.195859 
3520.000000	96.193775 
3519.000000	96.191549 
3518.000000	96.189237 
3517.000000	96.186883 
3516.000000	96.184517 
3515.000000	96.182173 
3514.000000	96.179876 
3513.000000	96.177615 
3512.000000	96.175366 
3511.000000	96.173114 
3510.000000	96.170861 
3509.000000	96.168613 
3508.000000	96.166374 
3507.000000	96.164145 
3506.000000	96.161924 
3505.000000	96.159702 
3504.000000	96.157470 
3503.000000	96.155221 
3502.000000	96.152951 
3501.000000	96.150662 
3500.000000	96.148352 
3499.000000	96.146022 
3498.000000	96.143672 
3497.000000	96.141299 
3496.000000	96.138901 
3495.000000	96.136477 
3494.000000	96.134030 
3493.000000	96.131569 
3492.000000	96.129110 
3491.000000	96.126660 
3490.000000	96.124211 
3489.000000	96.121751 
3488.000000	96.119275 
3487.000000	96.116779 
3486.000000	96.114253 
3485.000000	96.111693 
3484.000000	96.109127 
3483.000000	96.106587 
3482.000000	96.104073 
3481.000000	96.101567 
3480.000000	96.099060 
3479.000000	96.096560 
3478.000000	96.094036 
3477.000000	96.091399 
3476.000000	96.088563 
3475.000000	96.085544 
3474.000000	96.082491 
3473.000000	96.079618 
3472.000000	96.077072 
3471.000000	96.074794 
3470.000000	96.072518 
3469.000000	96.070003 
3468.000000	96.067240 
3467.000000	96.064439 
3466.000000	96.061813 
3465.000000	96.059353 
3464.000000	96.056783 
3463.000000	96.053771 
3462.000000	96.050248 
3461.000000	96.046571 
3460.000000	96.043273 
3459.000000	96.040530 
3458.000000	96.037966 
3457.000000	96.035016 
3456.000000	96.031539 
3455.000000	96.027975 
3454.000000	96.024947 
3453.000000	96.022725 
3452.000000	96.021186 
3451.000000	96.020028 
3450.000000	96.018818 
3449.000000	96.016985 
3448.000000	96.014065 
3447.000000	96.010141 
3446.000000	96.005894 
3445.000000	96.002099 
3444.000000	95.999133 
3443.000000	95.996951 
3442.000000	95.995234 
3441.000000	95.993527 
3440.000000	95.991416 
3439.000000	95.988728 
3438.000000	95.985588 
3437.000000	95.982309 
3436.000000	95.979334 
3435.000000	95.977156 
3434.000000	95.976020 
3433.000000	95.975535 
3432.000000	95.974915 
3431.000000	95.973744 
3430.000000	95.972228 
3429.000000	95.970718 
3428.000000	95.969166 
3427.000000	95.967307 
3426.000000	95.965243 
3425.000000	95.963560 
3424.000000	95.962685 
3423.000000	95.962236 
3422.000000	95.961257 
3421.000000	95.959220 
3420.000000	95.956584 
3419.000000	95.954269 
3418.000000	95.952691 
3417.000000	95.951612 
3416.000000	95.950753 
3415.000000	95.950127 
3414.000000	95.949669 
3413.000000	95.948931 
3412.000000	95.947481 
3411.000000	95.945468 
3410.000000	95.943616 
3409.000000	95.942637 
3408.000000	95.942668 
3407.000000	95.943187 
3406.000000	95.943427 
3405.000000	95.943031 
3404.000000	95.942273 
3403.000000	95.941553 
3402.000000	95.940867 
3401.000000	95.939943 
3400.000000	95.938784 
3399.000000	95.937731 
3398.000000	95.937019 
3397.000000	95.936558 
3396.000000	95.936237 
3395.000000	95.936194 
3394.000000	95.936575 
3393.000000	95.937146 
3392.000000	95.937345 
3391.000000	95.936757 
3390.000000	95.935574 
3389.000000	95.934593 
3388.000000	95.934660 
3387.000000	95.935992 
3386.000000	95.937965 
3385.000000	95.939509 
3384.000000	95.939874 
3383.000000	95.939075 
3382.000000	95.937897 
3381.000000	95.937382 
3380.000000	95.937973 
3379.000000	95.939153 
3378.000000	95.940149 
3377.000000	95.941055 
3376.000000	95.942696 
3375.000000	95.945237 
3374.000000	95.947572 
3373.000000	95.948524 
3372.000000	95.948345 
3371.000000	95.948533 
3370.000000	95.950226 
3369.000000	95.953195 
3368.000000	95.956268 
3367.000000	95.958399 
3366.000000	95.959249 
3365.000000	95.959162 
3364.000000	95.958860 
3363.000000	95.958966 
3362.000000	95.959618 
3361.000000	95.960611 
3360.000000	95.961902 
3359.000000	95.963758 
3358.000000	95.966306 
3357.000000	95.969192 
3356.000000	95.971836 
3355.000000	95.973967 
3354.000000	95.975848 
3353.000000	95.978106 
3352.000000	95.981307 
3351.000000	95.985467 
3350.000000	95.989829 
3349.000000	95.993299 
3348.000000	95.995353 
3347.000000	95.996452 
3346.000000	95.997536 
3345.000000	95.999134 
3344.000000	96.001030 
3343.000000	96.002724 
3342.000000	96.004068 
3341.000000	96.005429 
3340.000000	96.007164 
3339.000000	96.009085 
3338.000000	96.010640 
3337.000000	96.011608 
3336.000000	96.012419 
3335.000000	96.013731 
3334.000000	96.015807 
3333.000000	96.018399 
3332.000000	96.021138 
3331.000000	96.023829 
3330.000000	96.026365 
3329.000000	96.028590 
3328.000000	96.030438 
3327.000000	96.032104 
3326.000000	96.033915 
3325.000000	96.035962 
3324.000000	96.037986 
3323.000000	96.039673 
3322.000000	96.041033 
3321.000000	96.042436 
3320.000000	96.044278 
3319.000000	96.046645 
3318.000000	96.049304 
3317.000000	96.051930 
3316.000000	96.054320 
3315.000000	96.056446 
3314.000000	96.058394 
3313.000000	96.060301 
3312.000000	96.062303 
3311.000000	96.064485 
3310.000000	96.066852 
3309.000000	96.069309 
3308.000000	96.071660 
3307.000000	96.073689 
3306.000000	96.075329 
3305.000000	96.076736 
3304.000000	96.078195 
3303.000000	96.079930 
3302.000000	96.081975 
3301.000000	96.084196 
3300.000000	96.086361 
3299.000000	96.088294 
3298.000000	96.089981 
3297.000000	96.091590 
3296.000000	96.093360 
3295.000000	96.095406 
3294.000000	96.097664 
3293.000000	96.099978 
3292.000000	96.102236 
3291.000000	96.104410 
3290.000000	96.106517 
3289.000000	96.108604 
3288.000000	96.110734 
3287.000000	96.112937 
3286.000000	96.115157 
3285.000000	96.117281 
3284.000000	96.119252 
3283.000000	96.121128 
3282.000000	96.123042 
3281.000000	96.125103 
3280.000000	96.127311 
3279.000000	96.129580 
3278.000000	96.131842 
3277.000000	96.134117 
3276.000000	96.136437 
3275.000000	96.138776 
3274.000000	96.141093 
3273.000000	96.143388 
3272.000000	96.145695 
3271.000000	96.148029 
3270.000000	96.150375 
3269.000000	96.152724 
3268.000000	96.155078 
3267.000000	96.157446 
3266.000000	96.159831 
3265.000000	96.162241 
3264.000000	96.164679 
3263.000000	96.167141 
3262.000000	96.169621 
3261.000000	96.172113 
3260.000000	96.174613 
3259.000000	96.177122 
3258.000000	96.179646 
3257.000000	96.182193 
3256.000000	96.184770 
3255.000000	96.187378 
3254.000000	96.190010 
3253.000000	96.192653 
3252.000000	96.195299 
3251.000000	96.197944 
3250.000000	96.200587 
3249.000000	96.203229 
3248.000000	96.205871 
3247.000000	96.208519 
3246.000000	96.211181 
3245.000000	96.213863 
3244.000000	96.216564 
3243.000000	96.219280 
3242.000000	96.222008 
3241.000000	96.224745 
3240.000000	96.227492 
3239.000000	96.230247 
3238.000000	96.233011 
3237.000000	96.235781 
3236.000000	96.238551 
3235.000000	96.241313 
3234.000000	96.244058 
3233.000000	96.246783 
3232.000000	96.249494 
3231.000000	96.252205 
3230.000000	96.254927 
3229.000000	96.257661 
3228.000000	96.260402 
3227.000000	96.263141 
3226.000000	96.265877 
3225.000000	96.268612 
3224.000000	96.271347 
3223.000000	96.274083 
3222.000000	96.276824 
3221.000000	96.279574 
3220.000000	96.282334 
3219.000000	96.285098 
3218.000000	96.287861 
3217.000000	96.290620 
3216.000000	96.293377 
3215.000000	96.296136 
3214.000000	96.298898 
3213.000000	96.301663 
3212.000000	96.304428 
3211.000000	96.307191 
3210.000000	96.309954 
3209.000000	96.312720 
3208.000000	96.315494 
3207.000000	96.318293 
3206.000000	96.321132 
3205.000000	96.324012 
3204.000000	96.326920 
3203.000000	96.329839 
3202.000000	96.332755 
3201.000000	96.335652 
3200.000000	96.338517 
3199.000000	96.341351 
3198.000000	96.344185 
3197.000000	96.347061 
3196.000000	96.349997 
3195.000000	96.352980 
3194.000000	96.355998 
3193.000000	96.359061 
3192.000000	96.362177 
3191.000000	96.365302 
3190.000000	96.368360 
3189.000000	96.371307 
3188.000000	96.374165 
3187.000000	96.377040 
3186.000000	96.380047 
3185.000000	96.383214 
3184.000000	96.386482 
3183.000000	96.389752 
3182.000000	96.392968 
3181.000000	96.396135 
3180.000000	96.399256 
3179.000000	96.402308 
3178.000000	96.405287 
3177.000000	96.408257 
3176.000000	96.411311 
3175.000000	96.414488 
3174.000000	96.417763 
3173.000000	96.421070 
3172.000000	96.424325 
3171.000000	96.427459 
3170.000000	96.430465 
3169.000000	96.433421 
3168.000000	96.436421 
3167.000000	96.439477 
3166.000000	96.442530 
3165.000000	96.445528 
3164.000000	96.448462 
3163.000000	96.451341 
3162.000000	96.454179 
3161.000000	96.457009 
3160.000000	96.459876 
3159.000000	96.462794 
3158.000000	96.465751 
3157.000000	96.468737 
3156.000000	96.471736 
3155.000000	96.474704 
3154.000000	96.477579 
3153.000000	96.480353 
3152.000000	96.483093 
3151.000000	96.485875 
3150.000000	96.488705 
3149.000000	96.491521 
3148.000000	96.494261 
3147.000000	96.496911 
3146.000000	96.499522 
3145.000000	96.502182 
3144.000000	96.504944 
3143.000000	96.507790 
3142.000000	96.510643 
3141.000000	96.513449 
3140.000000	96.516201 
3139.000000	96.518894 
3138.000000	96.521487 
3137.000000	96.523944 
3136.000000	96.526270 
3135.000000	96.528526 
3134.000000	96.530835 
3133.000000	96.533329 
3132.000000	96.536047 
3131.000000	96.538857 
3130.000000	96.541538 
3129.000000	96.543990 
3128.000000	96.546313 
3127.000000	96.548715 
3126.000000	96.551328 
3125.000000	96.554139 
3124.000000	96.557034 
3123.000000	96.559863 
3122.000000	96.562510 
3121.000000	96.564951 
3120.000000	96.567271 
3119.000000	96.569596 
3118.000000	96.572011 
3117.000000	96.574558 
3116.000000	96.577253 
3115.000000	96.580031 
3114.000000	96.582719 
3113.000000	96.585142 
3112.000000	96.587279 
3111.000000	96.589296 
3110.000000	96.591425 
3109.000000	96.593796 
3108.000000	96.596392 
3107.000000	96.599095 
3106.000000	96.601718 
3105.000000	96.604018 
3104.000000	96.605792 
3103.000000	96.607029 
3102.000000	96.608017 
3101.000000	96.609256 
3100.000000	96.611086 
3099.000000	96.613471 
3098.000000	96.616101 
3097.000000	96.618680 
3096.000000	96.621069 
3095.000000	96.623207 
3094.000000	96.625117 
3093.000000	96.626979 
3092.000000	96.629018 
3091.000000	96.631251 
3090.000000	96.633444 
3089.000000	96.635361 
3088.000000	96.636941 
3087.000000	96.638270 
3086.000000	96.639530 
3085.000000	96.640950 
3084.000000	96.642637 
3083.000000	96.644440 
3082.000000	96.646102 
3081.000000	96.647666 
3080.000000	96.649485 
3079.000000	96.651621 
3078.000000	96.653504 
3077.000000	96.654721 
3076.000000	96.655856 
3075.000000	96.657850 
3074.000000	96.660660 
3073.000000	96.663282 
3072.000000	96.665080 
3071.000000	96.666200 
3070.000000	96.666778 
3069.000000	96.666807 
3068.000000	96.666866 
3067.000000	96.667888 
3066.000000	96.669893 
3065.000000	96.671834 
3064.000000	96.672940 
3063.000000	96.673246 
3062.000000	96.672704 
3061.000000	96.670945 
3060.000000	96.668380 
3059.000000	96.666634 
3058.000000	96.667399 
3057.000000	96.671280 
3056.000000	96.677486 
3055.000000	96.683748 
3054.000000	96.686937 
3053.000000	96.685354 
3052.000000	96.680981 
3051.000000	96.678354 
3050.000000	96.680118 
3049.000000	96.684723 
3048.000000	96.688902 
3047.000000	96.691208 
3046.000000	96.692107 
3045.000000	96.691945 
3044.000000	96.690681 
3043.000000	96.689313 
3042.000000	96.689774 
3041.000000	96.692596 
3040.000000	96.695512 
3039.000000	96.695416 
3038.000000	96.691635 
3037.000000	96.686636 
3036.000000	96.683238 
3035.000000	96.681425 
3034.000000	96.678808 
3033.000000	96.674056 
3032.000000	96.668665 
3031.000000	96.664993 
3030.000000	96.663474 
3029.000000	96.662537 
3028.000000	96.660397 
3027.000000	96.656023 
3026.000000	96.649229 
3025.000000	96.641095 
3024.000000	96.633877 
3023.000000	96.629160 
3022.000000	96.626256 
3021.000000	96.623598 
3020.000000	96.621228 
3019.000000	96.620258 
3018.000000	96.619967 
3017.000000	96.617430 
3016.000000	96.610732 
3015.000000	96.601167 
3014.000000	96.591798 
3013.000000	96.584823 
3012.000000	96.580548 
3011.000000	96.577495 
3010.000000	96.572954 
3009.000000	96.564741 
3008.000000	96.553261 
3007.000000	96.541275 
3006.000000	96.531128 
3005.000000	96.522888 
3004.000000	96.515479 
3003.000000	96.508496 
3002.000000	96.502317 
3001.000000	96.497229 
3000.000000	96.492952 
2999.000000	96.488396 
2998.000000	96.481811 
2997.000000	96.472235 
2996.000000	96.461088 
2995.000000	96.451286 
2994.000000	96.444156 
2993.000000	96.438025 
2992.000000	96.430258 
2991.000000	96.419993 
2990.000000	96.408579 
2989.000000	96.398292 
2988.000000	96.391218 
2987.000000	96.388495 
2986.000000	96.389802 
2985.000000	96.393889 
2984.000000	96.399793 
2983.000000	96.407020 
2982.000000	96.414432 
2981.000000	96.419863 
2980.000000	96.421365 
2979.000000	96.418330 
2978.000000	96.411358 
2977.000000	96.402083 
2976.000000	96.393408 
2975.000000	96.388541 
2974.000000	96.388814 
2973.000000	96.392956 
2972.000000	96.398866 
2971.000000	96.405252 
2970.000000	96.411144 
2969.000000	96.415298 
2968.000000	96.417381 
2967.000000	96.418890 
2966.000000	96.421579 
2965.000000	96.425343 
2964.000000	96.428614 
2963.000000	96.430358 
2962.000000	96.430787 
2961.000000	96.430671 
2960.000000	96.431211 
2959.000000	96.434298 
2958.000000	96.441510 
2957.000000	96.452385 
2956.000000	96.464224 
2955.000000	96.473759 
2954.000000	96.478930 
2953.000000	96.479767 
2952.000000	96.478477 
2951.000000	96.478335 
2950.000000	96.481367 
2949.000000	96.486910 
2948.000000	96.492757 
2947.000000	96.497088 
2946.000000	96.498699 
2945.000000	96.496386 
2944.000000	96.489768 
2943.000000	96.480625 
2942.000000	96.471906 
2941.000000	96.465076 
2940.000000	96.459623 
2939.000000	96.455186 
2938.000000	96.452425 
2937.000000	96.451098 
2936.000000	96.448674 
2935.000000	96.442112 
2934.000000	96.430483 
2933.000000	96.415243 
2932.000000	96.398736 
2931.000000	96.383204 
2930.000000	96.370441 
2929.000000	96.361040 
2928.000000	96.353827 
2927.000000	96.346812 
2926.000000	96.339052 
2925.000000	96.331587 
2924.000000	96.326631 
2923.000000	96.325878 
2922.000000	96.329119 
2921.000000	96.334270 
2920.000000	96.339368 
2919.000000	96.344861 
2918.000000	96.353108 
2917.000000	96.365024 
2916.000000	96.378047 
2915.000000	96.388603 
2914.000000	96.396307 
2913.000000	96.404216 
2912.000000	96.414729 
2911.000000	96.426505 
2910.000000	96.436313 
2909.000000	96.443179 
2908.000000	96.449471 
2907.000000	96.457833 
2906.000000	96.467762 
2905.000000	96.475745 
2904.000000	96.478187 
2903.000000	96.475212 
2902.000000	96.471382 
2901.000000	96.472450 
2900.000000	96.481495 
2899.000000	96.496560 
2898.000000	96.512757 
2897.000000	96.526082 
2896.000000	96.535296 
2895.000000	96.540902 
2894.000000	96.544013 
2893.000000	96.546527 
2892.000000	96.550746 
2891.000000	96.557374 
2890.000000	96.564588 
2889.000000	96.570393 
2888.000000	96.575262 
2887.000000	96.580918 
2886.000000	96.586943 
2885.000000	96.590863 
2884.000000	96.592200 
2883.000000	96.594236 
2882.000000	96.600157 
2881.000000	96.608837 
2880.000000	96.616516 
2879.000000	96.621999 
2878.000000	96.627865 
2877.000000	96.636351 
2876.000000	96.646078 
2875.000000	96.653972 
2874.000000	96.658933 
2873.000000	96.662160 
2872.000000	96.664793 
2871.000000	96.666891 
2870.000000	96.668513 
2869.000000	96.670255 
2868.000000	96.672338 
2867.000000	96.674081 
2866.000000	96.674638 
2865.000000	96.673665 
2864.000000	96.671420 
2863.000000	96.669196 
2862.000000	96.669569 
2861.000000	96.674676 
2860.000000	96.683358 
2859.000000	96.691083 
2858.000000	96.693970 
2857.000000	96.692414 
2856.000000	96.689936 
2855.000000	96.689012 
2854.000000	96.689262 
2853.000000	96.689419 
2852.000000	96.689723 
2851.000000	96.691902 
2850.000000	96.697640 
2849.000000	96.707740 
2848.000000	96.722208 
2847.000000	96.740170 
2846.000000	96.759558 
2845.000000	96.777559 
2844.000000	96.792211 
2843.000000	96.803773 
2842.000000	96.814316 
2841.000000	96.825542 
2840.000000	96.836891 
2839.000000	96.846076 
2838.000000	96.851613 
2837.000000	96.854414 
2836.000000	96.856807 
2835.000000	96.860549 
2834.000000	96.866234 
2833.000000	96.873990 
2832.000000	96.883477 
2831.000000	96.893066 
2830.000000	96.900164 
2829.000000	96.903213 
2828.000000	96.903207 
2827.000000	96.902910 
2826.000000	96.904794 
2825.000000	96.909677 
2824.000000	96.916639 
2823.000000	96.923495 
2822.000000	96.927760 
2821.000000	96.928190 
2820.000000	96.925755 
2819.000000	96.922857 
2818.000000	96.921405 
2817.000000	96.921827 
2816.000000	96.923718 
2815.000000	96.926749 
2814.000000	96.930550 
2813.000000	96.934179 
2812.000000	96.936379 
2811.000000	96.936573 
2810.000000	96.935499 
2809.000000	96.934799 
2808.000000	96.935973 
2807.000000	96.939544 
2806.000000	96.944873 
2805.000000	96.950489 
2804.000000	96.954781 
2803.000000	96.956889 
2802.000000	96.957388 
2801.000000	96.958055 
2800.000000	96.960407 
2799.000000	96.964119 
2798.000000	96.967107 
2797.000000	96.967490 
2796.000000	96.965421 
2795.000000	96.962934 
2794.000000	96.962117 
2793.000000	96.963558 
2792.000000	96.966456 
2791.000000	96.969636 
2790.000000	96.972290 
2789.000000	96.974113 
2788.000000	96.975177 
2787.000000	96.975815 
2786.000000	96.976435 
2785.000000	96.977328 
2784.000000	96.978549 
2783.000000	96.979959 
2782.000000	96.981368 
2781.000000	96.982693 
2780.000000	96.983997 
2779.000000	96.985373 
2778.000000	96.986823 
2777.000000	96.988269 
2776.000000	96.989617 
2775.000000	96.990829 
2774.000000	96.991962 
2773.000000	96.993114 
2772.000000	96.994313 
2771.000000	96.995519 
2770.000000	96.996724 
2769.000000	96.997992 
2768.000000	96.999382 
2767.000000	97.000845 
2766.000000	97.002248 
2765.000000	97.003496 
2764.000000	97.004612 
2763.000000	97.005691 
2762.000000	97.006796 
2761.000000	97.007912 
2760.000000	97.009013 
2759.000000	97.010122 
2758.000000	97.011289 
2757.000000	97.012479 
2756.000000	97.013558 
2755.000000	97.014437 
2754.000000	97.015223 
2753.000000	97.016149 
2752.000000	97.017320 
2751.000000	97.018619 
2750.000000	97.019879 
2749.000000	97.021077 
2748.000000	97.022239 
2747.000000	97.023241 
2746.000000	97.023936 
2745.000000	97.024397 
2744.000000	97.024906 
2743.000000	97.025655 
2742.000000	97.026597 
2741.000000	97.027579 
2740.000000	97.028508 
2739.000000	97.029396 
2738.000000	97.030264 
2737.000000	97.031107 
2736.000000	97.031934 
2735.000000	97.032781 
2734.000000	97.033670 
2733.000000	97.034583 
2732.000000	97.035489 
2731.000000	97.036379 
2730.000000	97.037274 
2729.000000	97.038186 
2728.000000	97.039101 
2727.000000	97.039990 
2726.000000	97.040837 
2725.000000	97.041653 
2724.000000	97.042458 
2723.000000	97.043268 
2722.000000	97.044080 
2721.000000	97.044890 
2720.000000	97.045696 
2719.000000	97.046499 
2718.000000	97.047304 
2717.000000	97.048109 
2716.000000	97.048910 
2715.000000	97.049700 
2714.000000	97.050474 
2713.000000	97.051244 
2712.000000	97.052023 
2711.000000	97.052809 
2710.000000	97.053567 
2709.000000	97.054267 
2708.000000	97.054913 
2707.000000	97.055558 
2706.000000	97.056280 
2705.000000	97.057128 
2704.000000	97.058050 
2703.000000	97.058879 
2702.000000	97.059481 
2701.000000	97.059950 
2700.000000	97.060632 
2699.000000	97.061809 
2698.000000	97.063358 
2697.000000	97.064712 
2696.000000	97.065349 
2695.000000	97.065251 
2694.000000	97.064976 
2693.000000	97.065124 
2692.000000	97.065744 
2691.000000	97.066349 
2690.000000	97.066519 
2689.000000	97.066358 
2688.000000	97.066238 
2687.000000	97.066263 
2686.000000	97.066299 
2685.000000	97.066432 
2684.000000	97.066951 
2683.000000	97.067795 
2682.000000	97.068471 
2681.000000	97.068690 
2680.000000	97.068724 
2679.000000	97.068933 
2678.000000	97.069315 
2677.000000	97.069792 
2676.000000	97.070429 
2675.000000	97.070954 
2674.000000	97.070626 
2673.000000	97.069201 
2672.000000	97.067548 
2671.000000	97.066706 
2670.000000	97.066594 
2669.000000	97.066412 
2668.000000	97.066037 
2667.000000	97.066032 
2666.000000	97.066290 
2665.000000	97.065685 
2664.000000	97.063543 
2663.000000	97.060720 
2662.000000	97.058722 
2661.000000	97.058031 
2660.000000	97.057854 
2659.000000	97.057231 
2658.000000	97.055918 
2657.000000	97.054310 
2656.000000	97.052906 
2655.000000	97.051860 
2654.000000	97.050811 
2653.000000	97.049199 
2652.000000	97.046973 
2651.000000	97.044925 
2650.000000	97.044028 
2649.000000	97.044464 
2648.000000	97.045482 
2647.000000	97.046069 
2646.000000	97.045642 
2645.000000	97.044158 
2644.000000	97.041994 
2643.000000	97.039905 
2642.000000	97.038716 
2641.000000	97.038735 
2640.000000	97.039518 
2639.000000	97.040250 
2638.000000	97.040440 
2637.000000	97.040170 
2636.000000	97.039852 
2635.000000	97.039876 
2634.000000	97.040299 
2633.000000	97.040715 
2632.000000	97.040533 
2631.000000	97.039576 
2630.000000	97.038375 
2629.000000	97.037737 
2628.000000	97.037949 
2627.000000	97.038619 
2626.000000	97.039236 
2625.000000	97.039711 
2624.000000	97.040240 
2623.000000	97.040859 
2622.000000	97.041350 
2621.000000	97.041497 
2620.000000	97.041256 
2619.000000	97.040736 
2618.000000	97.040156 
2617.000000	97.039825 
2616.000000	97.039978 
2615.000000	97.040608 
2614.000000	97.041503 
2613.000000	97.042460 
2612.000000	97.043401 
2611.000000	97.044277 
2610.000000	97.044972 
2609.000000	97.045362 
2608.000000	97.045421 
2607.000000	97.045261 
2606.000000	97.045155 
2605.000000	97.045380 
2604.000000	97.045992 
2603.000000	97.046750 
2602.000000	97.047335 
2601.000000	97.047727 
2600.000000	97.048158 
2599.000000	97.048690 
2598.000000	97.049088 
2597.000000	97.049169 
2596.000000	97.049099 
2595.000000	97.049220 
2594.000000	97.049628 
2593.000000	97.050164 
2592.000000	97.050735 
2591.000000	97.051381 
2590.000000	97.052012 
2589.000000	97.052399 
2588.000000	97.052547 
2587.000000	97.052792 
2586.000000	97.053392 
2585.000000	97.054243 
2584.000000	97.055131 
2583.000000	97.056002 
2582.000000	97.056809 
2581.000000	97.057349 
2580.000000	97.057514 
2579.000000	97.057597 
2578.000000	97.058079 
2577.000000	97.059097 
2576.000000	97.060242 
2575.000000	97.060932 
2574.000000	97.060921 
2573.000000	97.060420 
2572.000000	97.059797 
2571.000000	97.059204 
2570.000000	97.058554 
2569.000000	97.057905 
2568.000000	97.057684 
2567.000000	97.058286 
2566.000000	97.059509 
2565.000000	97.060579 
2564.000000	97.060905 
2563.000000	97.060613 
2562.000000	97.060285 
2561.000000	97.060421 
2560.000000	97.061247 
2559.000000	97.062797 
2558.000000	97.064751 
2557.000000	97.066347 
2556.000000	97.066966 
2555.000000	97.066711 
2554.000000	97.066326 
2553.000000	97.066395 
2552.000000	97.066796 
2551.000000	97.067160 
2550.000000	97.067461 
2549.000000	97.067810 
2548.000000	97.067955 
2547.000000	97.067485 
2546.000000	97.066532 
2545.000000	97.065823 
2544.000000	97.065850 
2543.000000	97.066358 
2542.000000	97.066758 
2541.000000	97.066881 
2540.000000	97.067010 
2539.000000	97.067302 
2538.000000	97.067534 
2537.000000	97.067516 
2536.000000	97.067445 
2535.000000	97.067664 
2534.000000	97.068190 
2533.000000	97.068668 
2532.000000	97.068786 
2531.000000	97.068575 
2530.000000	97.068328 
2529.000000	97.068288 
2528.000000	97.068474 
2527.000000	97.068759 
2526.000000	97.069053 
2525.000000	97.069382 
2524.000000	97.069820 
2523.000000	97.070378 
2522.000000	97.070986 
2521.000000	97.071549 
2520.000000	97.072034 
2519.000000	97.072499 
2518.000000	97.073020 
2517.000000	97.073528 
2516.000000	97.073753 
2515.000000	97.073447 
2514.000000	97.072729 
2513.000000	97.072211 
2512.000000	97.072467 
2511.000000	97.073553 
2510.000000	97.075082 
2509.000000	97.076570 
2508.000000	97.077742 
2507.000000	97.078491 
2506.000000	97.078863 
2505.000000	97.079167 
2504.000000	97.079806 
2503.000000	97.080827 
2502.000000	97.081801 
2501.000000	97.082320 
2500.000000	97.082467 
2499.000000	97.082674 
2498.000000	97.083182 
2497.000000	97.083848 
2496.000000	97.084473 
2495.000000	97.085071 
2494.000000	97.085734 
2493.000000	97.086397 
2492.000000	97.086921 
2491.000000	97.087328 
2490.000000	97.087804 
2489.000000	97.088447 
2488.000000	97.089091 
2487.000000	97.089500 
2486.000000	97.089640 
2485.000000	97.089673 
2484.000000	97.089728 
2483.000000	97.089777 
2482.000000	97.089756 
2481.000000	97.089696 
2480.000000	97.089704 
2479.000000	97.089896 
2478.000000	97.090390 
2477.000000	97.091232 
2476.000000	97.092173 
2475.000000	97.092675 
2474.000000	97.092355 
2473.000000	97.091434 
2472.000000	97.090637 
2471.000000	97.090478 
2470.000000	97.090887 
2469.000000	97.091518 
2468.000000	97.092110 
2467.000000	97.092516 
2466.000000	97.092587 
2465.000000	97.092270 
2464.000000	97.091778 
2463.000000	97.091540 
2462.000000	97.092007 
2461.000000	97.093454 
2460.000000	97.095709 
2459.000000	97.097971 
2458.000000	97.099164 
2457.000000	97.098671 
2456.000000	97.096684 
2455.000000	97.094074 
2454.000000	97.091927 
2453.000000	97.090918 
2452.000000	97.090832 
2451.000000	97.090732 
2450.000000	97.090051 
2449.000000	97.089469 
2448.000000	97.090130 
2447.000000	97.092138 
2446.000000	97.094316 
2445.000000	97.095538 
2444.000000	97.095776 
2443.000000	97.095697 
2442.000000	97.095885 
2441.000000	97.096604 
2440.000000	97.097834 
2439.000000	97.099341 
2438.000000	97.101028 
2437.000000	97.103194 
2436.000000	97.105976 
2435.000000	97.108620 
2434.000000	97.109983 
2433.000000	97.109840 
2432.000000	97.109172 
2431.000000	97.109055 
2430.000000	97.109726 
2429.000000	97.110947 
2428.000000	97.112497 
2427.000000	97.113965 
2426.000000	97.114707 
2425.000000	97.114490 
2424.000000	97.113852 
2423.000000	97.113534 
2422.000000	97.113825 
2421.000000	97.114693 
2420.000000	97.116141 
2419.000000	97.118049 
2418.000000	97.119952 
2417.000000	97.121477 
2416.000000	97.122814 
2415.000000	97.124386 
2414.000000	97.126186 
2413.000000	97.127844 
2412.000000	97.129198 
2411.000000	97.130264 
2410.000000	97.130880 
2409.000000	97.131105 
2408.000000	97.131646 
2407.000000	97.133239 
2406.000000	97.135611 
2405.000000	97.137639 
2404.000000	97.138527 
2403.000000	97.138381 
2402.000000	97.137791 
2401.000000	97.137369 
2400.000000	97.137632 
2399.000000	97.138869 
2398.000000	97.140934 
2397.000000	97.143434 
2396.000000	97.146061 
2395.000000	97.148422 
2394.000000	97.149845 
2393.000000	97.149908 
2392.000000	97.149180 
2391.000000	97.148843 
2390.000000	97.149403 
2389.000000	97.150336 
2388.000000	97.151017 
2387.000000	97.151374 
2386.000000	97.151521 
2385.000000	97.151452 
2384.000000	97.151359 
2383.000000	97.151692 
2382.000000	97.152654 
2381.000000	97.154108 
2380.000000	97.156138 
2379.000000	97.159023 
2378.000000	97.162181 
2377.000000	97.163806 
2376.000000	97.162532 
2375.000000	97.159004 
2374.000000	97.155222 
2373.000000	97.152247 
2372.000000	97.149816 
2371.000000	97.148151 
2370.000000	97.148330 
2369.000000	97.150089 
2368.000000	97.150717 
2367.000000	97.147827 
2366.000000	97.142453 
2365.000000	97.138252 
2364.000000	97.137274 
2363.000000	97.137820 
2362.000000	97.137156 
2361.000000	97.135174 
2360.000000	97.133267 
2359.000000	97.131636 
2358.000000	97.129720 
2357.000000	97.128478 
2356.000000	97.129703 
2355.000000	97.132668 
2354.000000	97.133533 
2353.000000	97.129672 
2352.000000	97.122692 
2351.000000	97.115357 
2350.000000	97.108634 
2349.000000	97.103969 
2348.000000	97.102654 
2347.000000	97.101261 
2346.000000	97.093909 
2345.000000	97.081206 
2344.000000	97.070416 
2343.000000	97.066330 
2342.000000	97.069447 
2341.000000	97.078154 
2340.000000	97.088618 
2339.000000	97.095902 
2338.000000	97.097002 
2337.000000	97.093291 
2336.000000	97.088973 
2335.000000	97.086584 
2334.000000	97.083742 
2333.000000	97.076280 
2332.000000	97.064113 
2331.000000	97.051728 
2330.000000	97.041088 
2329.000000	97.029214 
2328.000000	97.013317 
2327.000000	96.994697 
2326.000000	96.976223 
2325.000000	96.959552 
2324.000000	96.947660 
2323.000000	96.943636 
2322.000000	96.946344 
2321.000000	96.949393 
2320.000000	96.949612 
2319.000000	96.951515 
2318.000000	96.960160 
2317.000000	96.973495 
2316.000000	96.984641 
2315.000000	96.989263 
2314.000000	96.987532 
2313.000000	96.981850 
2312.000000	96.975078 
2311.000000	96.970332 
2310.000000	96.968545 
2309.000000	96.967689 
2308.000000	96.965678 
2307.000000	96.963664 
2306.000000	96.963819 
2305.000000	96.965849 
2304.000000	96.967702 
2303.000000	96.969122 
2302.000000	96.971678 
2301.000000	96.975856 
2300.000000	96.979884 
2299.000000	96.981464 
2298.000000	96.979380 
2297.000000	96.973741 
2296.000000	96.966523 
2295.000000	96.961285 
2294.000000	96.960654 
2293.000000	96.963809 
2292.000000	96.967734 
2291.000000	96.970565 
2290.000000	96.972659 
2289.000000	96.974659 
2288.000000	96.976033 
2287.000000	96.975966 
2286.000000	96.974689 
2285.000000	96.973499 
2284.000000	96.973666 
2283.000000	96.975494 
2282.000000	96.978183 
2281.000000	96.980559 
2280.000000	96.981881 
2279.000000	96.981948 
2278.000000	96.980786 
2277.000000	96.978762 
2276.000000	96.976843 
2275.000000	96.976096 
2274.000000	96.976886 
2273.000000	96.979155 
2272.000000	96.983225 
2271.000000	96.989148 
2270.000000	96.995233 
2269.000000	96.998849 
2268.000000	96.999327 
2267.000000	96.998773 
2266.000000	96.999215 
2265.000000	97.000238 
2264.000000	97.000282 
2263.000000	96.998719 
2262.000000	96.995647 
2261.000000	96.991212 
2260.000000	96.986386 
2259.000000	96.983121 
2258.000000	96.982517 
2257.000000	96.983873 
2256.000000	96.986444 
2255.000000	96.990670 
2254.000000	96.996276 
2253.000000	97.000538 
2252.000000	97.000627 
2251.000000	96.996502 
2250.000000	96.990058 
2249.000000	96.982624 
2248.000000	96.975162 
2247.000000	96.969711 
2246.000000	96.968147 
2245.000000	96.969536 
2244.000000	96.970468 
2243.000000	96.968707 
2242.000000	96.965248 
2241.000000	96.962546 
2240.000000	96.961919 
2239.000000	96.963047 
2238.000000	96.964682 
2237.000000	96.965578 
2236.000000	96.965430 
2235.000000	96.964921 
2234.000000	96.964565 
2233.000000	96.963896 
2232.000000	96.962386 
2231.000000	96.960495 
2230.000000	96.958890 
2229.000000	96.957179 
2228.000000	96.954608 
2227.000000	96.951554 
2226.000000	96.949213 
2225.000000	96.947980 
2224.000000	96.946949 
2223.000000	96.945206 
2222.000000	96.942964 
2221.000000	96.941010 
2220.000000	96.939453 
2219.000000	96.937781 
2218.000000	96.935761 
2217.000000	96.933703 
2216.000000	96.931915 
2215.000000	96.930277 
2214.000000	96.928474 
2213.000000	96.926433 
2212.000000	96.924394 
2211.000000	96.922614 
2210.000000	96.921108 
2209.000000	96.919706 
2208.000000	96.918238 
2207.000000	96.916620 
2206.000000	96.914844 
2205.000000	96.913014 
2204.000000	96.911482 
2203.000000	96.910925 
2202.000000	96.911902 
2201.000000	96.913785 
2200.000000	96.914208 
2199.000000	96.910691 
2198.000000	96.903280 
2197.000000	96.895255 
2196.000000	96.890440 
2195.000000	96.889582 
2194.000000	96.890027 
2193.000000	96.889352 
2192.000000	96.888339 
2191.000000	96.888801 
2190.000000	96.889600 
2189.000000	96.887495 
2188.000000	96.881820 
2187.000000	96.875228 
2186.000000	96.869148 
2185.000000	96.862250 
2184.000000	96.855605 
2183.000000	96.855496 
2182.000000	96.866576 
2181.000000	96.883723 
2180.000000	96.895057 
2179.000000	96.894284 
2178.000000	96.886186 
2177.000000	96.880289 
2176.000000	96.881565 
2175.000000	96.887948 
2174.000000	96.894344 
2173.000000	96.897329 
2172.000000	96.897062 
2171.000000	96.895736 
2170.000000	96.894139 
2169.000000	96.890261 
2168.000000	96.882199 
2167.000000	96.871410 
2166.000000	96.860961 
2165.000000	96.850991 
2164.000000	96.838804 
2163.000000	96.824858 
2162.000000	96.816730 
2161.000000	96.824847 
2160.000000	96.854092 
2159.000000	96.898922 
2158.000000	96.945451 
2157.000000	96.980693 
2156.000000	97.000510 
2155.000000	97.008223 
2154.000000	97.008658 
2153.000000	97.005330 
2152.000000	97.000980 
2151.000000	96.997000 
2150.000000	96.992258 
2149.000000	96.985740 
2148.000000	96.980976 
2147.000000	96.984195 
2146.000000	96.996410 
2145.000000	97.010773 
2144.000000	97.020555 
2143.000000	97.026655 
2142.000000	97.033682 
2141.000000	97.041678 
2140.000000	97.046549 
2139.000000	97.047763 
2138.000000	97.050828 
2137.000000	97.060954 
2136.000000	97.076777 
2135.000000	97.091202 
2134.000000	97.097337 
2133.000000	97.093930 
2132.000000	97.086469 
2131.000000	97.082398 
2130.000000	97.084217 
2129.000000	97.087890 
2128.000000	97.088401 
2127.000000	97.085423 
2126.000000	97.082564 
2125.000000	97.082690 
2124.000000	97.085500 
2123.000000	97.088489 
2122.000000	97.088479 
2121.000000	97.083179 
2120.000000	97.073103 
2119.000000	97.061686 
2118.000000	97.052512 
2117.000000	97.046637 
2116.000000	97.042866 
2115.000000	97.039505 
2114.000000	97.034967 
2113.000000	97.028451 
2112.000000	97.021692 
2111.000000	97.018361 
2110.000000	97.019976 
2109.000000	97.023795 
2108.000000	97.026169 
2107.000000	97.026502 
2106.000000	97.026295 
2105.000000	97.026456 
2104.000000	97.027698 
2103.000000	97.031200 
2102.000000	97.035987 
2101.000000	97.037496 
2100.000000	97.032320 
2099.000000	97.023645 
2098.000000	97.019045 
2097.000000	97.022665 
2096.000000	97.032043 
2095.000000	97.041567 
2094.000000	97.047084 
2093.000000	97.047355 
2092.000000	97.043376 
2091.000000	97.037777 
2090.000000	97.033580 
2089.000000	97.032023 
2088.000000	97.031898 
2087.000000	97.031157 
2086.000000	97.028738 
2085.000000	97.024930 
2084.000000	97.020830 
2083.000000	97.017627 
2082.000000	97.015856 
2081.000000	97.015217 
2080.000000	97.015413 
2079.000000	97.016770 
2078.000000	97.019174 
2077.000000	97.020864 
2076.000000	97.019748 
2075.000000	97.015917 
2074.000000	97.011338 
2073.000000	97.006924 
2072.000000	97.001785 
2071.000000	96.995678 
2070.000000	96.990340 
2069.000000	96.987587 
2068.000000	96.987362 
2067.000000	96.988312 
2066.000000	96.989060 
2065.000000	96.988222 
2064.000000	96.984578 
2063.000000	96.978563 
2062.000000	96.973047 
2061.000000	96.971145 
2060.000000	96.973352 
2059.000000	96.977513 
2058.000000	96.980706 
2057.000000	96.981043 
2056.000000	96.978025 
2055.000000	96.972121 
2054.000000	96.964605 
2053.000000	96.957093 
2052.000000	96.950869 
2051.000000	96.946412 
2050.000000	96.943377 
2049.000000	96.941139 
2048.000000	96.939429 
2047.000000	96.938374 
2046.000000	96.937853 
2045.000000	96.937296 
2044.000000	96.936506 
2043.000000	96.936107 
2042.000000	96.936594 
2041.000000	96.937346 
2040.000000	96.937476 
2039.000000	96.937433 
2038.000000	96.938403 
2037.000000	96.940174 
2036.000000	96.941045 
2035.000000	96.940260 
2034.000000	96.939395 
2033.000000	96.940610 
2032.000000	96.944082 
2031.000000	96.947694 
2030.000000	96.948958 
2029.000000	96.947050 
2028.000000	96.943290 
2027.000000	96.939919 
2026.000000	96.938181 
2025.000000	96.937915 
2024.000000	96.938929 
2023.000000	96.941981 
2022.000000	96.947654 
2021.000000	96.954255 
2020.000000	96.958041 
2019.000000	96.956309 
2018.000000	96.949612 
2017.000000	96.941564 
2016.000000	96.936087 
2015.000000	96.934756 
2014.000000	96.936092 
2013.000000	96.936567 
2012.000000	96.933900 
2011.000000	96.930068 
2010.000000	96.929775 
2009.000000	96.935388 
2008.000000	96.944529 
2007.000000	96.952980 
2006.000000	96.958573 
2005.000000	96.961087 
2004.000000	96.960845 
2003.000000	96.959421 
2002.000000	96.959988 
2001.000000	96.963886 
2000.000000	96.967460 
1999.000000	96.964955 
1998.000000	96.954402 
1997.000000	96.939889 
1996.000000	96.928074 
1995.000000	96.922685 
1994.000000	96.922780 
1993.000000	96.924676 
1992.000000	96.925073 
1991.000000	96.923643 
1990.000000	96.923029 
1989.000000	96.925849 
1988.000000	96.931351 
1987.000000	96.934976 
1986.000000	96.932015 
1985.000000	96.922036 
1984.000000	96.909357 
1983.000000	96.898876 
1982.000000	96.892136 
1981.000000	96.888172 
1980.000000	96.887417 
1979.000000	96.892372 
1978.000000	96.903394 
1977.000000	96.916141 
1976.000000	96.924968 
1975.000000	96.928216 
1974.000000	96.928622 
1973.000000	96.930151 
1972.000000	96.935183 
1971.000000	96.943138 
1970.000000	96.950595 
1969.000000	96.953577 
1968.000000	96.950788 
1967.000000	96.944713 
1966.000000	96.939680 
1965.000000	96.938747 
1964.000000	96.942685 
1963.000000	96.950753 
1962.000000	96.961085 
1961.000000	96.970770 
1960.000000	96.976799 
1959.000000	96.977715 
1958.000000	96.974776 
1957.000000	96.971577 
1956.000000	96.971489 
1955.000000	96.974975 
1954.000000	96.979663 
1953.000000	96.983128 
1952.000000	96.984868 
1951.000000	96.985572 
1950.000000	96.986038 
1949.000000	96.987347 
1948.000000	96.990920 
1947.000000	96.996959 
1946.000000	97.003116 
1945.000000	97.006165 
1944.000000	97.005028 
1943.000000	97.001436 
1942.000000	96.998179 
1941.000000	96.996777 
1940.000000	96.997125 
1939.000000	96.998396 
1938.000000	96.999783 
1937.000000	97.001268 
1936.000000	97.003673 
1935.000000	97.007208 
1934.000000	97.010441 
1933.000000	97.012017 
1932.000000	97.012957 
1931.000000	97.015610 
1930.000000	97.020437 
1929.000000	97.024990 
1928.000000	97.027336 
1927.000000	97.028481 
1926.000000	97.030230 
1925.000000	97.032407 
1924.000000	97.033443 
1923.000000	97.033243 
1922.000000	97.033029 
1921.000000	97.032879 
1920.000000	97.032025 
1919.000000	97.030616 
1918.000000	97.029244 
1917.000000	97.027404 
1916.000000	97.024538 
1915.000000	97.022338 
1914.000000	97.022914 
1913.000000	97.025790 
1912.000000	97.028339 
1911.000000	97.029170 
1910.000000	97.029124 
1909.000000	97.028928 
1908.000000	97.028544 
1907.000000	97.028128 
1906.000000	97.027824 
1905.000000	97.026784 
1904.000000	97.024008 
1903.000000	97.020932 
1902.000000	97.020235 
1901.000000	97.022052 
1900.000000	97.024081 
1899.000000	97.024862 
1898.000000	97.024918 
1897.000000	97.024953 
1896.000000	97.024491 
1895.000000	97.023121 
1894.000000	97.021304 
1893.000000	97.019372 
1892.000000	97.017300 
1891.000000	97.015625 
1890.000000	97.015256 
1889.000000	97.016196 
1888.000000	97.017525 
1887.000000	97.018889 
1886.000000	97.020472 
1885.000000	97.021616 
1884.000000	97.021149 
1883.000000	97.019189 
1882.000000	97.017445 
1881.000000	97.017250 
1880.000000	97.018389 
1879.000000	97.019697 
1878.000000	97.020263 
1877.000000	97.020268 
1876.000000	97.020627 
1875.000000	97.022039 
1874.000000	97.024429 
1873.000000	97.026965 
1872.000000	97.028893 
1871.000000	97.030225 
1870.000000	97.031257 
1869.000000	97.031937 
1868.000000	97.032362 
1867.000000	97.033426 
1866.000000	97.035620 
1865.000000	97.037782 
1864.000000	97.038510 
1863.000000	97.038299 
1862.000000	97.039035 
1861.000000	97.041360 
1860.000000	97.044079 
1859.000000	97.046358 
1858.000000	97.048912 
1857.000000	97.052290 
1856.000000	97.055887 
1855.000000	97.058983 
1854.000000	97.061459 
1853.000000	97.063165 
1852.000000	97.064311 
1851.000000	97.065995 
1850.000000	97.068815 
1849.000000	97.071880 
1848.000000	97.073882 
1847.000000	97.075068 
1846.000000	97.076858 
1845.000000	97.079647 
1844.000000	97.082350 
1843.000000	97.084417 
1842.000000	97.086599 
1841.000000	97.089371 
1840.000000	97.092734 
1839.000000	97.096564 
1838.000000	97.100298 
1837.000000	97.102655 
1836.000000	97.102818 
1835.000000	97.102141 
1834.000000	97.102771 
1833.000000	97.104935 
1832.000000	97.107490 
1831.000000	97.109361 
1830.000000	97.109952 
1829.000000	97.109728 
1828.000000	97.109691 
1827.000000	97.110672 
1826.000000	97.112839 
1825.000000	97.115413 
1824.000000	97.117019 
1823.000000	97.117072 
1822.000000	97.116508 
1821.000000	97.116393 
1820.000000	97.116896 
1819.000000	97.117930 
1818.000000	97.120375 
1817.000000	97.124429 
1816.000000	97.127556 
1815.000000	97.128000 
1814.000000	97.127419 
1813.000000	97.128465 
1812.000000	97.130474 
1811.000000	97.129797 
1810.000000	97.126137 
1809.000000	97.122788 
1808.000000	97.121128 
1807.000000	97.120532 
1806.000000	97.121355 
1805.000000	97.123799 
1804.000000	97.125329 
1803.000000	97.123180 
1802.000000	97.117589 
1801.000000	97.111784 
1800.000000	97.108034 
1799.000000	97.106017 
1798.000000	97.106115 
1797.000000	97.107978 
1796.000000	97.108992 
1795.000000	97.108104 
1794.000000	97.107566 
1793.000000	97.109276 
1792.000000	97.110688 
1791.000000	97.108720 
1790.000000	97.106376 
1789.000000	97.107660 
1788.000000	97.111932 
1787.000000	97.116020 
1786.000000	97.118589 
1785.000000	97.120218 
1784.000000	97.120646 
1783.000000	97.120350 
1782.000000	97.120397 
1781.000000	97.121358 
1780.000000	97.123473 
1779.000000	97.126353 
1778.000000	97.130429 
1777.000000	97.134875 
1776.000000	97.137899 
1775.000000	97.138974 
1774.000000	97.138788 
1773.000000	97.138610 
1772.000000	97.139082 
1771.000000	97.138297 
1770.000000	97.135480 
1769.000000	97.132912 
1768.000000	97.132465 
1767.000000	97.133558 
1766.000000	97.134589 
1765.000000	97.135813 
1764.000000	97.138435 
1763.000000	97.141760 
1762.000000	97.143278 
1761.000000	97.142920 
1760.000000	97.142563 
1759.000000	97.142584 
1758.000000	97.142168 
1757.000000	97.140556 
1756.000000	97.139613 
1755.000000	97.139871 
1754.000000	97.138535 
1753.000000	97.133605 
1752.000000	97.127363 
1751.000000	97.124587 
1750.000000	97.126554 
1749.000000	97.129877 
1748.000000	97.131636 
1747.000000	97.132328 
1746.000000	97.132064 
1745.000000	97.131194 
1744.000000	97.131320 
1743.000000	97.131952 
1742.000000	97.130915 
1741.000000	97.128710 
1740.000000	97.128237 
1739.000000	97.130270 
1738.000000	97.132155 
1737.000000	97.131988 
1736.000000	97.130195 
1735.000000	97.127625 
1734.000000	97.125337 
1733.000000	97.123541 
1732.000000	97.123102 
1731.000000	97.126455 
1730.000000	97.133955 
1729.000000	97.141123 
1728.000000	97.144398 
1727.000000	97.144663 
1726.000000	97.143593 
1725.000000	97.142442 
1724.000000	97.141526 
1723.000000	97.140452 
1722.000000	97.139788 
1721.000000	97.139713 
1720.000000	97.139737 
1719.000000	97.138784 
1718.000000	97.136213 
1717.000000	97.133183 
1716.000000	97.127363 
1715.000000	97.118791 
1714.000000	97.113648 
1713.000000	97.113834 
1712.000000	97.114128 
1711.000000	97.112190 
1710.000000	97.110262 
1709.000000	97.108830 
1708.000000	97.105980 
1707.000000	97.101999 
1706.000000	97.099657 
1705.000000	97.098265 
1704.000000	97.091828 
1703.000000	97.078474 
1702.000000	97.063309 
1701.000000	97.054169 
1700.000000	97.052024 
1699.000000	97.046839 
1698.000000	97.039994 
1697.000000	97.037360 
1696.000000	97.036399 
1695.000000	97.032449 
1694.000000	97.026089 
1693.000000	97.020291 
1692.000000	97.015310 
1691.000000	97.009455 
1690.000000	97.001668 
1689.000000	96.992212 
1688.000000	96.982801 
1687.000000	96.974657 
1686.000000	96.968348 
1685.000000	96.963869 
1684.000000	96.957387 
1683.000000	96.947582 
1682.000000	96.938055 
1681.000000	96.929552 
1680.000000	96.922282 
1679.000000	96.915687 
1678.000000	96.908576 
1677.000000	96.900706 
1676.000000	96.893229 
1675.000000	96.886905 
1674.000000	96.879499 
1673.000000	96.870091 
1672.000000	96.860757 
1671.000000	96.853472 
1670.000000	96.847919 
1669.000000	96.842019 
1668.000000	96.835722 
1667.000000	96.829944 
1666.000000	96.823879 
1665.000000	96.816993 
1664.000000	96.810119 
1663.000000	96.804380 
1662.000000	96.799004 
1661.000000	96.791967 
1660.000000	96.783901 
1659.000000	96.777084 
1658.000000	96.771460 
1657.000000	96.765224 
1656.000000	96.757692 
1655.000000	96.750374 
1654.000000	96.744478 
1653.000000	96.739496 
1652.000000	96.732246 
1651.000000	96.723241 
1650.000000	96.713628 
1649.000000	96.706130 
1648.000000	96.700714 
1647.000000	96.695366 
1646.000000	96.689552 
1645.000000	96.684173 
1644.000000	96.678808 
1643.000000	96.673402 
1642.000000	96.669350 
1641.000000	96.666244 
1640.000000	96.662790 
1639.000000	96.657765 
1638.000000	96.651471 
1637.000000	96.645312 
1636.000000	96.639761 
1635.000000	96.636801 
1634.000000	96.636009 
1633.000000	96.634071 
1632.000000	96.628126 
1631.000000	96.620316 
1630.000000	96.614315 
1629.000000	96.610780 
1628.000000	96.607279 
1627.000000	96.603705 
1626.000000	96.600868 
1625.000000	96.598040 
1624.000000	96.595969 
1623.000000	96.596949 
1622.000000	96.599307 
1621.000000	96.596824 
1620.000000	96.589756 
1619.000000	96.584640 
1618.000000	96.585644 
1617.000000	96.585921 
1616.000000	96.576866 
1615.000000	96.563296 
1614.000000	96.552443 
1613.000000	96.542707 
1612.000000	96.531305 
1611.000000	96.521214 
1610.000000	96.516135 
1609.000000	96.514350 
1608.000000	96.514060 
1607.000000	96.516676 
1606.000000	96.519296 
1605.000000	96.515877 
1604.000000	96.508215 
1603.000000	96.502724 
1602.000000	96.500444 
1601.000000	96.497095 
1600.000000	96.491486 
1599.000000	96.487011 
1598.000000	96.484903 
1597.000000	96.483918 
1596.000000	96.484846 
1595.000000	96.490291 
1594.000000	96.499473 
1593.000000	96.507682 
1592.000000	96.513282 
1591.000000	96.519950 
1590.000000	96.529753 
1589.000000	96.539566 
1588.000000	96.547635 
1587.000000	96.556884 
1586.000000	96.568580 
1585.000000	96.578136 
1584.000000	96.584661 
1583.000000	96.593953 
1582.000000	96.607155 
1581.000000	96.618719 
1580.000000	96.627356 
1579.000000	96.638887 
1578.000000	96.657381 
1577.000000	96.680166 
1576.000000	96.700402 
1575.000000	96.715522 
1574.000000	96.725992 
1573.000000	96.733565 
1572.000000	96.743594 
1571.000000	96.761103 
1570.000000	96.781988 
1569.000000	96.793203 
1568.000000	96.795209 
1567.000000	96.799589 
1566.000000	96.809855 
1565.000000	96.821903 
1564.000000	96.834388 
1563.000000	96.844852 
1562.000000	96.852180 
1561.000000	96.850081 
1560.000000	96.854675 
1559.000000	96.872807 
1558.000000	96.886501 
1557.000000	96.891882 
1556.000000	96.896108 
1555.000000	96.903964 
1554.000000	96.912590 
1553.000000	96.917770 
1552.000000	96.921562 
1551.000000	96.924049 
1550.000000	96.923937 
1549.000000	96.922122 
1548.000000	96.922094 
1547.000000	96.926085 
1546.000000	96.931347 
1545.000000	96.933622 
1544.000000	96.932556 
1543.000000	96.931436 
1542.000000	96.934749 
1541.000000	96.944673 
1540.000000	96.949766 
1539.000000	96.945049 
1538.000000	96.936729 
1537.000000	96.926413 
1536.000000	96.915752 
1535.000000	96.910678 
1534.000000	96.913825 
1533.000000	96.920292 
1532.000000	96.922604 
1531.000000	96.918829 
1530.000000	96.912831 
1529.000000	96.907978 
1528.000000	96.903062 
1527.000000	96.896445 
1526.000000	96.888519 
1525.000000	96.881061 
1524.000000	96.875937 
1523.000000	96.874452 
1522.000000	96.875264 
1521.000000	96.872027 
1520.000000	96.860272 
1519.000000	96.843969 
1518.000000	96.829202 
1517.000000	96.818320 
1516.000000	96.809778 
1515.000000	96.803168 
1514.000000	96.799581 
1513.000000	96.798848 
1512.000000	96.797548 
1511.000000	96.789600 
1510.000000	96.775085 
1509.000000	96.759153 
1508.000000	96.749555 
1507.000000	96.744263 
1506.000000	96.739652 
1505.000000	96.733837 
1504.000000	96.723885 
1503.000000	96.710115 
1502.000000	96.695687 
1501.000000	96.682595 
1500.000000	96.671921 
1499.000000	96.662158 
1498.000000	96.650629 
1497.000000	96.639574 
1496.000000	96.632138 
1495.000000	96.626859 
1494.000000	96.621915 
1493.000000	96.617900 
1492.000000	96.615142 
1491.000000	96.612040 
1490.000000	96.605985 
1489.000000	96.597269 
1488.000000	96.586240 
1487.000000	96.572352 
1486.000000	96.558615 
1485.000000	96.544871 
1484.000000	96.529810 
1483.000000	96.515836 
1482.000000	96.504700 
1481.000000	96.495088 
1480.000000	96.483322 
1479.000000	96.468664 
1478.000000	96.453833 
1477.000000	96.440733 
1476.000000	96.426353 
1475.000000	96.407801 
1474.000000	96.388959 
1473.000000	96.376635 
1472.000000	96.371971 
1471.000000	96.368235 
1470.000000	96.361045 
1469.000000	96.350604 
1468.000000	96.337057 
1467.000000	96.320824 
1466.000000	96.306121 
1465.000000	96.297915 
1464.000000	96.295708 
1463.000000	96.291924 
1462.000000	96.281633 
1461.000000	96.267986 
1460.000000	96.256886 
1459.000000	96.249953 
1458.000000	96.241424 
1457.000000	96.228030 
1456.000000	96.217115 
1455.000000	96.209937 
1454.000000	96.201185 
1453.000000	96.193314 
1452.000000	96.191046 
1451.000000	96.193833 
1450.000000	96.199063 
1449.000000	96.207133 
1448.000000	96.216512 
1447.000000	96.221754 
1446.000000	96.219658 
1445.000000	96.214149 
1444.000000	96.212011 
1443.000000	96.212689 
1442.000000	96.211477 
1441.000000	96.206591 
1440.000000	96.200311 
1439.000000	96.193161 
1438.000000	96.184325 
1437.000000	96.177094 
1436.000000	96.175188 
1435.000000	96.173984 
1434.000000	96.168935 
1433.000000	96.163339 
1432.000000	96.161439 
1431.000000	96.162800 
1430.000000	96.163745 
1429.000000	96.163852 
1428.000000	96.163640 
1427.000000	96.162570 
1426.000000	96.160838 
1425.000000	96.160800 
1424.000000	96.165917 
1423.000000	96.171375 
1422.000000	96.170055 
1421.000000	96.164630 
1420.000000	96.165719 
1419.000000	96.172469 
1418.000000	96.171290 
1417.000000	96.164482 
1416.000000	96.166086 
1415.000000	96.177886 
1414.000000	96.189634 
1413.000000	96.194275 
1412.000000	96.196454 
1411.000000	96.201966 
1410.000000	96.209046 
1409.000000	96.215991 
1408.000000	96.224709 
1407.000000	96.236728 
1406.000000	96.250704 
1405.000000	96.265487 
1404.000000	96.283188 
1403.000000	96.301400 
1402.000000	96.315054 
1401.000000	96.326608 
1400.000000	96.343665 
1399.000000	96.366323 
1398.000000	96.384518 
1397.000000	96.393092 
1396.000000	96.398153 
1395.000000	96.408578 
1394.000000	96.425646 
1393.000000	96.446273 
1392.000000	96.470922 
1391.000000	96.498531 
1390.000000	96.524174 
1389.000000	96.543826 
1388.000000	96.557014 
1387.000000	96.565376 
1386.000000	96.571360 
1385.000000	96.578935 
1384.000000	96.592179 
1383.000000	96.610317 
1382.000000	96.628145 
1381.000000	96.642342 
1380.000000	96.653958 
1379.000000	96.666012 
1378.000000	96.680104 
1377.000000	96.695895 
1376.000000	96.712345 
1375.000000	96.728404 
1374.000000	96.742667 
1373.000000	96.755543 
1372.000000	96.769066 
1371.000000	96.784461 
1370.000000	96.800715 
1369.000000	96.815176 
1368.000000	96.827855 
1367.000000	96.840578 
1366.000000	96.853859 
1365.000000	96.867317 
1364.000000	96.879784 
1363.000000	96.889128 
1362.000000	96.895196 
1361.000000	96.901721 
1360.000000	96.912706 
1359.000000	96.928927 
1358.000000	96.947804 
1357.000000	96.965636 
1356.000000	96.980351 
1355.000000	96.991994 
1354.000000	97.001725 
1353.000000	97.012092 
1352.000000	97.023926 
1351.000000	97.036468 
1350.000000	97.048653 
1349.000000	97.058197 
1348.000000	97.064640 
1347.000000	97.070323 
1346.000000	97.078189 
1345.000000	97.088743 
1344.000000	97.099814 
1343.000000	97.109268 
1342.000000	97.116653 
1341.000000	97.121960 
1340.000000	97.124473 
1339.000000	97.124410 
1338.000000	97.123895 
1337.000000	97.125252 
1336.000000	97.128715 
1335.000000	97.132416 
1334.000000	97.134937 
1333.000000	97.137012 
1332.000000	97.139732 
1331.000000	97.142629 
1330.000000	97.144076 
1329.000000	97.143469 
1328.000000	97.142037 
1327.000000	97.141970 
1326.000000	97.143788 
1325.000000	97.144884 
1324.000000	97.142788 
1323.000000	97.137349 
1322.000000	97.130188 
1321.000000	97.123606 
1320.000000	97.119769 
1319.000000	97.119494 
1318.000000	97.121685 
1317.000000	97.124685 
1316.000000	97.127244 
1315.000000	97.128086 
1314.000000	97.126318 
1313.000000	97.123555 
1312.000000	97.123354 
1311.000000	97.127080 
1310.000000	97.131874 
1309.000000	97.134599 
1308.000000	97.135607 
1307.000000	97.137525 
1306.000000	97.141277 
1305.000000	97.145085 
1304.000000	97.147582 
1303.000000	97.148535 
1302.000000	97.147555 
1301.000000	97.144500 
1300.000000	97.141150 
1299.000000	97.140164 
1298.000000	97.141993 
1297.000000	97.144287 
1296.000000	97.144591 
1295.000000	97.142952 
1294.000000	97.141366 
1293.000000	97.141713 
1292.000000	97.144199 
1291.000000	97.147091 
1290.000000	97.148266 
1289.000000	97.147250 
1288.000000	97.145225 
1287.000000	97.143064 
1286.000000	97.140521 
1285.000000	97.138024 
1284.000000	97.137594 
1283.000000	97.140096 
1282.000000	97.142928 
1281.000000	97.142332 
1280.000000	97.137837 
1279.000000	97.132990 
1278.000000	97.131653 
1277.000000	97.134753 
1276.000000	97.140309 
1275.000000	97.145454 
1274.000000	97.148198 
1273.000000	97.148384 
1272.000000	97.147351 
1271.000000	97.146096 
1270.000000	97.144090 
1269.000000	97.140595 
1268.000000	97.136727 
1267.000000	97.134526 
1266.000000	97.134240 
1265.000000	97.134524 
1264.000000	97.134883 
1263.000000	97.135739 
1262.000000	97.136524 
1261.000000	97.135856 
1260.000000	97.134484 
1259.000000	97.135850 
1258.000000	97.141729 
1257.000000	97.148818 
1256.000000	97.151282 
1255.000000	97.146862 
1254.000000	97.139629 
1253.000000	97.135667 
1252.000000	97.136214 
1251.000000	97.136661 
1250.000000	97.133003 
1249.000000	97.127413 
1248.000000	97.125403 
1247.000000	97.128173 
1246.000000	97.130694 
1245.000000	97.128186 
1244.000000	97.121440 
1243.000000	97.114576 
1242.000000	97.110412 
1241.000000	97.109547 
1240.000000	97.111153 
1239.000000	97.112258 
1238.000000	97.108541 
1237.000000	97.098422 
1236.000000	97.084902 
1235.000000	97.071588 
1234.000000	97.058734 
1233.000000	97.045069 
1232.000000	97.031166 
1231.000000	97.018044 
1230.000000	97.004401 
1229.000000	96.988443 
1228.000000	96.970797 
1227.000000	96.952423 
1226.000000	96.930975 
1225.000000	96.902681 
1224.000000	96.867302 
1223.000000	96.828234 
1222.000000	96.787911 
1221.000000	96.745657 
1220.000000	96.699988 
1219.000000	96.650500 
1218.000000	96.597380 
1217.000000	96.541239 
1216.000000	96.483130 
1215.000000	96.422911 
1214.000000	96.358661 
1213.000000	96.290238 
1212.000000	96.221769 
1211.000000	96.156815 
1210.000000	96.092277 
1209.000000	96.021715 
1208.000000	95.944356 
1207.000000	95.866286 
1206.000000	95.792209 
1205.000000	95.720249 
1204.000000	95.646181 
1203.000000	95.569029 
1202.000000	95.490874 
1201.000000	95.413848 
1200.000000	95.338790 
1199.000000	95.264942 
1198.000000	95.190124 
1197.000000	95.113080 
1196.000000	95.035451 
1195.000000	94.959357 
1194.000000	94.883791 
1193.000000	94.805976 
1192.000000	94.725626 
1191.000000	94.644688 
1190.000000	94.563415 
1189.000000	94.480143 
1188.000000	94.394598 
1187.000000	94.307919 
1186.000000	94.219622 
1185.000000	94.128093 
1184.000000	94.033770 
1183.000000	93.938388 
1182.000000	93.841610 
1181.000000	93.741929 
1180.000000	93.640120 
1179.000000	93.537627 
1178.000000	93.432078 
1177.000000	93.319148 
1176.000000	93.198746 
1175.000000	93.074942 
1174.000000	92.950114 
1173.000000	92.823945 
1172.000000	92.697877 
1171.000000	92.574557 
1170.000000	92.452421 
1169.000000	92.327100 
1168.000000	92.199584 
1167.000000	92.077742 
1166.000000	91.969413 
1165.000000	91.880331 
1164.000000	91.819078 
1163.000000	91.795516 
1162.000000	91.810614 
1161.000000	91.852559 
1160.000000	91.904414 
1159.000000	91.950868 
1158.000000	91.978002 
1157.000000	91.974875 
1156.000000	91.939105 
1155.000000	91.876739 
1154.000000	91.795038 
1153.000000	91.699185 
1152.000000	91.595963 
1151.000000	91.493747 
1150.000000	91.395952 
1149.000000	91.299750 
1148.000000	91.203363 
1147.000000	91.109004 
1146.000000	91.016741 
1145.000000	90.921898 
1144.000000	90.821799 
1143.000000	90.719868 
1142.000000	90.620042 
1141.000000	90.521858 
1140.000000	90.423547 
1139.000000	90.325134 
1138.000000	90.226204 
1137.000000	90.125242 
1136.000000	90.022854 
1135.000000	89.920925 
1134.000000	89.817651 
1133.000000	89.708987 
1132.000000	89.595945 
1131.000000	89.484297 
1130.000000	89.375985 
1129.000000	89.267382 
1128.000000	89.157245 
1127.000000	89.048934 
1126.000000	88.942722 
1125.000000	88.833324 
1124.000000	88.718004 
1123.000000	88.600710 
1122.000000	88.485605 
1121.000000	88.372809 
1120.000000	88.262636 
1119.000000	88.157157 
1118.000000	88.055236 
1117.000000	87.952921 
1116.000000	87.850656 
1115.000000	87.753297 
1114.000000	87.661569 
1113.000000	87.570857 
1112.000000	87.479526 
1111.000000	87.390228 
1110.000000	87.301713 
1109.000000	87.208321 
1108.000000	87.109003 
1107.000000	87.008399 
1106.000000	86.908552 
1105.000000	86.807943 
1104.000000	86.708403 
1103.000000	86.613678 
1102.000000	86.519989 
1101.000000	86.419740 
1100.000000	86.313996 
1099.000000	86.212178 
1098.000000	86.119487 
1097.000000	86.033003 
1096.000000	85.950958 
1095.000000	85.873720 
1094.000000	85.795892 
1093.000000	85.709951 
1092.000000	85.619667 
1091.000000	85.538221 
1090.000000	85.471170 
1089.000000	85.411966 
1088.000000	85.354656 
1087.000000	85.299092 
1086.000000	85.243387 
1085.000000	85.184453 
1084.000000	85.127230 
1083.000000	85.080448 
1082.000000	85.041860 
1081.000000	85.000624 
1080.000000	84.955312 
1079.000000	84.915654 
1078.000000	84.884706 
1077.000000	84.853326 
1076.000000	84.814691 
1075.000000	84.770332 
1074.000000	84.719469 
1073.000000	84.656105 
1072.000000	84.578830 
1071.000000	84.489599 
1070.000000	84.380759 
1069.000000	84.238535 
1068.000000	84.063618 
1067.000000	83.875307 
1066.000000	83.691074 
1065.000000	83.513942 
1064.000000	83.342806 
1063.000000	83.179129 
1062.000000	83.017540 
1061.000000	82.845070 
1060.000000	82.657724 
1059.000000	82.466611 
1058.000000	82.282162 
1057.000000	82.103406 
1056.000000	81.926969 
1055.000000	81.753812 
1054.000000	81.581931 
1053.000000	81.404842 
1052.000000	81.223157 
1051.000000	81.045988 
1050.000000	80.875540 
1049.000000	80.702883 
1048.000000	80.522900 
1047.000000	80.339528 
1046.000000	80.154276 
1045.000000	79.964154 
1044.000000	79.771960 
1043.000000	79.584405 
1042.000000	79.399380 
1041.000000	79.209226 
1040.000000	79.017228 
1039.000000	78.836041 
1038.000000	78.669411 
1037.000000	78.511250 
1036.000000	78.362882 
1035.000000	78.233827 
1034.000000	78.124283 
1033.000000	78.024088 
1032.000000	77.929934 
1031.000000	77.846143 
1030.000000	77.768569 
1029.000000	77.687819 
1028.000000	77.610037 
1027.000000	77.553837 
1026.000000	77.523136 
1025.000000	77.501771 
1024.000000	77.477684 
1023.000000	77.453315 
1022.000000	77.429182 
1021.000000	77.397681 
1020.000000	77.357940 
1019.000000	77.318582 
1018.000000	77.281611 
1017.000000	77.240699 
1016.000000	77.197920 
1015.000000	77.163993 
1014.000000	77.139311 
1013.000000	77.113099 
1012.000000	77.083861 
1011.000000	77.061937 
1010.000000	77.049495 
1009.000000	77.037494 
1008.000000	77.025517 
1007.000000	77.025225 
1006.000000	77.040661 
1005.000000	77.063982 
1004.000000	77.093450 
1003.000000	77.136020 
1002.000000	77.188629 
1001.000000	77.237122 
1000.000000	77.278748 
999.000000	 77.326939 
998.000000	 77.388882 
997.000000	 77.456505 
996.000000	 77.524044 
995.000000	 77.596798 
994.000000	 77.677798 
993.000000	 77.762735 
992.000000	 77.851938 
991.000000	 77.950750 
990.000000	 78.055252 
989.000000	 78.154849 
988.000000	 78.251700 
987.000000	 78.359865 
986.000000	 78.482820 
985.000000	 78.610299 
984.000000	 78.739876 
983.000000	 78.882069 
982.000000	 79.039810 
981.000000	 79.202057 
980.000000	 79.362989 
979.000000	 79.529810 
978.000000	 79.706142 
977.000000	 79.885359 
976.000000	 80.065995 
975.000000	 80.256781 
974.000000	 80.459991 
973.000000	 80.665345 
972.000000	 80.866659 
971.000000	 81.070372 
970.000000	 81.281843 
969.000000	 81.496406 
968.000000	 81.708902 
967.000000	 81.919804 
966.000000	 82.128228 
965.000000	 82.331079 
964.000000	 82.532030 
963.000000	 82.739040 
962.000000	 82.950450 
961.000000	 83.155645 
960.000000	 83.351103 
959.000000	 83.543032 
958.000000	 83.732809 
957.000000	 83.913475 
956.000000	 84.083332 
955.000000	 84.250252 
954.000000	 84.419477 
953.000000	 84.588163 
952.000000	 84.753481 
951.000000	 84.914473 
950.000000	 85.065542 
949.000000	 85.200913 
948.000000	 85.326379 
947.000000	 85.453978 
946.000000	 85.583931 
945.000000	 85.704945 
944.000000	 85.813130 
943.000000	 85.916906 
942.000000	 86.022039 
941.000000	 86.125966 
940.000000	 86.229334 
939.000000	 86.338486 
938.000000	 86.452619 
937.000000	 86.561909 
936.000000	 86.662789 
935.000000	 86.763183 
934.000000	 86.869078 
933.000000	 86.977556 
932.000000	 87.086396 
931.000000	 87.198651 
930.000000	 87.313927 
929.000000	 87.426165 
928.000000	 87.533740 
927.000000	 87.641518 
926.000000	 87.749936 
925.000000	 87.852014 
924.000000	 87.943682 
923.000000	 88.027615 
922.000000	 88.105689 
921.000000	 88.178113 
920.000000	 88.250995 
919.000000	 88.332779 
918.000000	 88.420373 
917.000000	 88.500083 
916.000000	 88.566266 
915.000000	 88.629686 
914.000000	 88.704284 
913.000000	 88.794763 
912.000000	 88.899496 
911.000000	 89.015953 
910.000000	 89.140226 
909.000000	 89.269465 
908.000000	 89.406895 
907.000000	 89.557605 
906.000000	 89.720071 
905.000000	 89.889468 
904.000000	 90.066589 
903.000000	 90.253398 
902.000000	 90.442474 
901.000000	 90.622758 
900.000000	 90.794745 
899.000000	 90.968815 
898.000000	 91.149271 
897.000000	 91.330145 
896.000000	 91.504992 
895.000000	 91.669847 
894.000000	 91.818987 
893.000000	 91.950198 
892.000000	 92.073321 
891.000000	 92.201786 
890.000000	 92.335339 
889.000000	 92.461328 
888.000000	 92.571205 
887.000000	 92.664688 
886.000000	 92.741158 
885.000000	 92.800603 
884.000000	 92.851560 
883.000000	 92.903982 
882.000000	 92.954917 
881.000000	 92.996147 
880.000000	 93.035163 
879.000000	 93.091206 
878.000000	 93.169039 
877.000000	 93.254921 
876.000000	 93.341713 
875.000000	 93.439308 
874.000000	 93.555337 
873.000000	 93.684275 
872.000000	 93.822015 
871.000000	 93.973463 
870.000000	 94.137725 
869.000000	 94.301115 
868.000000	 94.452918 
867.000000	 94.595357 
866.000000	 94.731666 
865.000000	 94.857389 
864.000000	 94.971244 
863.000000	 95.083382 
862.000000	 95.203714 
861.000000	 95.329567 
860.000000	 95.452073 
859.000000	 95.567784 
858.000000	 95.678129 
857.000000	 95.783966 
856.000000	 95.885968 
855.000000	 95.984757 
854.000000	 96.076778 
853.000000	 96.155802 
852.000000	 96.221648 
851.000000	 96.281896 
850.000000	 96.343243 
849.000000	 96.407211 
848.000000	 96.474611 
847.000000	 96.545653 
846.000000	 96.614423 
845.000000	 96.672501 
844.000000	 96.720067 
843.000000	 96.764866 
842.000000	 96.808754 
841.000000	 96.844661 
840.000000	 96.868384 
839.000000	 96.883024 
838.000000	 96.889609 
837.000000	 96.884714 
836.000000	 96.871708 
835.000000	 96.863845 
834.000000	 96.869665 
833.000000	 96.883387 
832.000000	 96.895242 
831.000000	 96.903535 
830.000000	 96.911725 
829.000000	 96.922430 
828.000000	 96.941033 
827.000000	 96.976802 
826.000000	 97.031249 
825.000000	 97.090688 
824.000000	 97.137563 
823.000000	 97.164764 
822.000000	 97.175506 
821.000000	 97.176721 
820.000000	 97.176158 
819.000000	 97.177330 
818.000000	 97.172152 
817.000000	 97.144462 
816.000000	 97.084143 
815.000000	 96.993082 
814.000000	 96.875942 
813.000000	 96.731456 
812.000000	 96.554667 
811.000000	 96.339666 
810.000000	 96.075772 
809.000000	 95.748254 
808.000000	 95.349379 
807.000000	 94.886180 
806.000000	 94.375714 
805.000000	 93.838338 
804.000000	 93.297764 
803.000000	 92.778692 
802.000000	 92.298876 
801.000000	 91.870896 
800.000000	 91.513761 
799.000000	 91.250224 
798.000000	 91.087353 
797.000000	 91.010903 
796.000000	 91.001994 
795.000000	 91.046240 
794.000000	 91.124688 
793.000000	 91.213137 
792.000000	 91.296987 
791.000000	 91.373992 
790.000000	 91.438325 
789.000000	 91.474893 
788.000000	 91.472808 
787.000000	 91.431334 
786.000000	 91.349055 
785.000000	 91.220355 
784.000000	 91.047450 
783.000000	 90.844577 
782.000000	 90.627591 
781.000000	 90.412778 
780.000000	 90.227712 
779.000000	 90.105183 
778.000000	 90.058752 
777.000000	 90.077999 
776.000000	 90.151760 
775.000000	 90.278831 
774.000000	 90.450258 
773.000000	 90.640326 
772.000000	 90.825564 
771.000000	 90.999428 
770.000000	 91.161865 
769.000000	 91.309265 
768.000000	 91.441326 
767.000000	 91.562904 
766.000000	 91.671646 
765.000000	 91.758424 
764.000000	 91.827777 
763.000000	 91.902670 
762.000000	 91.998989 
761.000000	 92.108475 
760.000000	 92.216340 
759.000000	 92.322393 
758.000000	 92.434027 
757.000000	 92.551188 
756.000000	 92.671127 
755.000000	 92.797926 
754.000000	 92.933498 
753.000000	 93.065196 
752.000000	 93.174321 
751.000000	 93.254536 
750.000000	 93.315935 
749.000000	 93.375312 
748.000000	 93.446320 
747.000000	 93.532192 
746.000000	 93.622778 
745.000000	 93.704869 
744.000000	 93.779567 
743.000000	 93.862846 
742.000000	 93.965874 
741.000000	 94.083095 
740.000000	 94.203089 
739.000000	 94.321287 
738.000000	 94.436802 
737.000000	 94.545526 
736.000000	 94.642833 
735.000000	 94.727615 
734.000000	 94.799946 
733.000000	 94.860460 
732.000000	 94.913547 
731.000000	 94.963911 
730.000000	 95.008306 
729.000000	 95.038484 
728.000000	 95.055140 
727.000000	 95.070438 
726.000000	 95.095398 
725.000000	 95.134291 
724.000000	 95.190400 
723.000000	 95.264871 
722.000000	 95.348251 
721.000000	 95.425671 
720.000000	 95.493970 
719.000000	 95.561422 
718.000000	 95.628456 
717.000000	 95.684256 
716.000000	 95.725092 
715.000000	 95.761227 
714.000000	 95.801561 
713.000000	 95.845184 
712.000000	 95.893974 
711.000000	 95.957710 
710.000000	 96.037413 
709.000000	 96.116523 
708.000000	 96.178415 
707.000000	 96.221504 
706.000000	 96.248369 
705.000000	 96.253941 
704.000000	 96.233463 
703.000000	 96.188331 
702.000000	 96.113612 
701.000000	 95.989868 
700.000000	 95.799282 
699.000000	 95.545682 
698.000000	 95.253006 
697.000000	 94.957148 
696.000000	 94.705940 
695.000000	 94.548845 
694.000000	 94.510441 
693.000000	 94.575590 
692.000000	 94.707056 
691.000000	 94.873263 
690.000000	 95.053951 
689.000000	 95.232323 
688.000000	 95.395013 
687.000000	 95.535803 
686.000000	 95.652905 
685.000000	 95.746958 
684.000000	 95.826146 
683.000000	 95.904245 
682.000000	 95.986686 
681.000000	 96.067604 
680.000000	 96.143977 
679.000000	 96.222896 
678.000000	 96.305808 
677.000000	 96.383257 
676.000000	 96.455217 
675.000000	 96.533073 
674.000000	 96.616330 
673.000000	 96.686460 
672.000000	 96.733012 
671.000000	 96.777120 
670.000000	 96.858760 
669.000000	 96.983729 
668.000000	 97.076171 
667.000000	 97.093161 
666.000000	 97.083106 
665.000000	 97.067566 
664.000000	 97.053929 
663.000000	 97.053671 
662.000000	 97.077721 
661.000000	 97.111639 
660.000000	 97.142372 
659.000000	 97.173959 
658.000000	 97.209089 
657.000000	 97.231844 
656.000000	 97.232158 
655.000000	 97.217171 
654.000000	 97.190495 
653.000000	 97.143830 
652.000000	 97.085592 
651.000000	 97.053924 
650.000000	 97.073629 

