4000.000000	97.081191 
3999.000000	97.078486 
3998.000000	97.074558 
3997.000000	97.070951 
3996.000000	97.069064 
3995.000000	97.069276 
3994.000000	97.070827 
3993.000000	97.072440 
3992.000000	97.073214 
3991.000000	97.072952 
3990.000000	97.072006 
3989.000000	97.070845 
3988.000000	97.069624 
3987.000000	97.068373 
3986.000000	97.067473 
3985.000000	97.067445 
3984.000000	97.068200 
3983.000000	97.069101 
3982.000000	97.070074 
3981.000000	97.071945 
3980.000000	97.075070 
3979.000000	97.078088 
3978.000000	97.078933 
3977.000000	97.076920 
3976.000000	97.073306 
3975.000000	97.069819 
3974.000000	97.067218 
3973.000000	97.065430 
3972.000000	97.064193 
3971.000000	97.063286 
3970.000000	97.062609 
3969.000000	97.062524 
3968.000000	97.063635 
3967.000000	97.066045 
3966.000000	97.068988 
3965.000000	97.071193 
3964.000000	97.071558 
3963.000000	97.069680 
3962.000000	97.066178 
3961.000000	97.062494 
3960.000000	97.059737 
3959.000000	97.057950 
3958.000000	97.056606 
3957.000000	97.055550 
3956.000000	97.054826 
3955.000000	97.054118 
3954.000000	97.053025 
3953.000000	97.051632 
3952.000000	97.050419 
3951.000000	97.049516 
3950.000000	97.048546 
3949.000000	97.047190 
3948.000000	97.045668 
3947.000000	97.044633 
3946.000000	97.044534 
3945.000000	97.045090 
3944.000000	97.045416 
3943.000000	97.044910 
3942.000000	97.043858 
3941.000000	97.043025 
3940.000000	97.042834 
3939.000000	97.043109 
3938.000000	97.043392 
3937.000000	97.043436 
3936.000000	97.043088 
3935.000000	97.042041 
3934.000000	97.040170 
3933.000000	97.037973 
3932.000000	97.036399 
3931.000000	97.035849 
3930.000000	97.035976 
3929.000000	97.036372 
3928.000000	97.036920 
3927.000000	97.037446 
3926.000000	97.037487 
3925.000000	97.036854 
3924.000000	97.035949 
3923.000000	97.035205 
3922.000000	97.034623 
3921.000000	97.034116 
3920.000000	97.033777 
3919.000000	97.033691 
3918.000000	97.033632 
3917.000000	97.033308 
3916.000000	97.032744 
3915.000000	97.032201 
3914.000000	97.031795 
3913.000000	97.031443 
3912.000000	97.031075 
3911.000000	97.030729 
3910.000000	97.030411 
3909.000000	97.030072 
3908.000000	97.029651 
3907.000000	97.029118 
3906.000000	97.028477 
3905.000000	97.027801 
3904.000000	97.027156 
3903.000000	97.026537 
3902.000000	97.025931 
3901.000000	97.025350 
3900.000000	97.024793 
3899.000000	97.024256 
3898.000000	97.023731 
3897.000000	97.023209 
3896.000000	97.022683 
3895.000000	97.022153 
3894.000000	97.021625 
3893.000000	97.021105 
3892.000000	97.020588 
3891.000000	97.020068 
3890.000000	97.019544 
3889.000000	97.019020 
3888.000000	97.018496 
3887.000000	97.017967 
3886.000000	97.017434 
3885.000000	97.016906 
3884.000000	97.016389 
3883.000000	97.015881 
3882.000000	97.015376 
3881.000000	97.014884 
3880.000000	97.014421 
3879.000000	97.014001 
3878.000000	97.013616 
3877.000000	97.013254 
3876.000000	97.012902 
3875.000000	97.012558 
3874.000000	97.012224 
3873.000000	97.011899 
3872.000000	97.011570 
3871.000000	97.011228 
3870.000000	97.010877 
3869.000000	97.010537 
3868.000000	97.010220 
3867.000000	97.009919 
3866.000000	97.009628 
3865.000000	97.009357 
3864.000000	97.009129 
3863.000000	97.008945 
3862.000000	97.008787 
3861.000000	97.008638 
3860.000000	97.008488 
3859.000000	97.008334 
3858.000000	97.008169 
3857.000000	97.007993 
3856.000000	97.007810 
3855.000000	97.007621 
3854.000000	97.007428 
3853.000000	97.007234 
3852.000000	97.007038 
3851.000000	97.006841 
3850.000000	97.006646 
3849.000000	97.006459 
3848.000000	97.006279 
3847.000000	97.006100 
3846.000000	97.005910 
3845.000000	97.005702 
3844.000000	97.005476 
3843.000000	97.005238 
3842.000000	97.004999 
3841.000000	97.004770 
3840.000000	97.004552 
3839.000000	97.004339 
3838.000000	97.004119 
3837.000000	97.003878 
3836.000000	97.003614 
3835.000000	97.003332 
3834.000000	97.003038 
3833.000000	97.002740 
3832.000000	97.002445 
3831.000000	97.002163 
3830.000000	97.001899 
3829.000000	97.001654 
3828.000000	97.001426 
3827.000000	97.001203 
3826.000000	97.000973 
3825.000000	97.000734 
3824.000000	97.000487 
3823.000000	97.000230 
3822.000000	96.999957 
3821.000000	96.999673 
3820.000000	96.999396 
3819.000000	96.999143 
3818.000000	96.998910 
3817.000000	96.998681 
3816.000000	96.998447 
3815.000000	96.998206 
3814.000000	96.997953 
3813.000000	96.997681 
3812.000000	96.997391 
3811.000000	96.997100 
3810.000000	96.996824 
3809.000000	96.996564 
3808.000000	96.996303 
3807.000000	96.996025 
3806.000000	96.995729 
3805.000000	96.995429 
3804.000000	96.995136 
3803.000000	96.994857 
3802.000000	96.994596 
3801.000000	96.994359 
3800.000000	96.994141 
3799.000000	96.993921 
3798.000000	96.993680 
3797.000000	96.993414 
3796.000000	96.993129 
3795.000000	96.992823 
3794.000000	96.992486 
3793.000000	96.992115 
3792.000000	96.991716 
3791.000000	96.991293 
3790.000000	96.990839 
3789.000000	96.990347 
3788.000000	96.989817 
3787.000000	96.989251 
3786.000000	96.988653 
3785.000000	96.988030 
3784.000000	96.987387 
3783.000000	96.986726 
3782.000000	96.986039 
3781.000000	96.985323 
3780.000000	96.984586 
3779.000000	96.983831 
3778.000000	96.983040 
3777.000000	96.982193 
3776.000000	96.981283 
3775.000000	96.980327 
3774.000000	96.979348 
3773.000000	96.978357 
3772.000000	96.977354 
3771.000000	96.976337 
3770.000000	96.975302 
3769.000000	96.974244 
3768.000000	96.973148 
3767.000000	96.972004 
3766.000000	96.970816 
3765.000000	96.969603 
3764.000000	96.968386 
3763.000000	96.967169 
3762.000000	96.965943 
3761.000000	96.964697 
3760.000000	96.963430 
3759.000000	96.962138 
3758.000000	96.960816 
3757.000000	96.959465 
3756.000000	96.958101 
3755.000000	96.956736 
3754.000000	96.955380 
3753.000000	96.954043 
3752.000000	96.952742 
3751.000000	96.951489 
3750.000000	96.950272 
3749.000000	96.949077 
3748.000000	96.947905 
3747.000000	96.946762 
3746.000000	96.945638 
3745.000000	96.944515 
3744.000000	96.943390 
3743.000000	96.942266 
3742.000000	96.941133 
3741.000000	96.939980 
3740.000000	96.938812 
3739.000000	96.937641 
3738.000000	96.936477 
3737.000000	96.935303 
3736.000000	96.934097 
3735.000000	96.932894 
3734.000000	96.931750 
3733.000000	96.930652 
3732.000000	96.929521 
3731.000000	96.928315 
3730.000000	96.927054 
3729.000000	96.925761 
3728.000000	96.924270 
3727.000000	96.922359 
3726.000000	96.920425 
3725.000000	96.919273 
3724.000000	96.919084 
3723.000000	96.919473 
3722.000000	96.920282 
3721.000000	96.921206 
3720.000000	96.921243 
3719.000000	96.919882 
3718.000000	96.917515 
3717.000000	96.915364 
3716.000000	96.914500 
3715.000000	96.913968 
3714.000000	96.911437 
3713.000000	96.906657 
3712.000000	96.903235 
3711.000000	96.904047 
3710.000000	96.906996 
3709.000000	96.908409 
3708.000000	96.906359 
3707.000000	96.900776 
3706.000000	96.893463 
3705.000000	96.887138 
3704.000000	96.883747 
3703.000000	96.883064 
3702.000000	96.882319 
3701.000000	96.877945 
3700.000000	96.869120 
3699.000000	96.858801 
3698.000000	96.849699 
3697.000000	96.842423 
3696.000000	96.837687 
3695.000000	96.835226 
3694.000000	96.832486 
3693.000000	96.828767 
3692.000000	96.828526 
3691.000000	96.837062 
3690.000000	96.851868 
3689.000000	96.863062 
3688.000000	96.863814 
3687.000000	96.855747 
3686.000000	96.843344 
3685.000000	96.828140 
3684.000000	96.811913 
3683.000000	96.799953 
3682.000000	96.795008 
3681.000000	96.790753 
3680.000000	96.779794 
3679.000000	96.764261 
3678.000000	96.751418 
3677.000000	96.739010 
3676.000000	96.721462 
3675.000000	96.704502 
3674.000000	96.695412 
3673.000000	96.693244 
3672.000000	96.690350 
3671.000000	96.680539 
3670.000000	96.668808 
3669.000000	96.661149 
3668.000000	96.652642 
3667.000000	96.638683 
3666.000000	96.622452 
3665.000000	96.608277 
3664.000000	96.595865 
3663.000000	96.581465 
3662.000000	96.562072 
3661.000000	96.539047 
3660.000000	96.517678 
3659.000000	96.500785 
3658.000000	96.485191 
3657.000000	96.464282 
3656.000000	96.437936 
3655.000000	96.413231 
3654.000000	96.394920 
3653.000000	96.379822 
3652.000000	96.359872 
3651.000000	96.332721 
3650.000000	96.306878 
3649.000000	96.288177 
3648.000000	96.272164 
3647.000000	96.256845 
3646.000000	96.246180 
3645.000000	96.241481 
3644.000000	96.238516 
3643.000000	96.232605 
3642.000000	96.222605 
3641.000000	96.210567 
3640.000000	96.197323 
3639.000000	96.181092 
3638.000000	96.161322 
3637.000000	96.139502 
3636.000000	96.116186 
3635.000000	96.089743 
3634.000000	96.062014 
3633.000000	96.039788 
3632.000000	96.026469 
3631.000000	96.014410 
3630.000000	95.993125 
3629.000000	95.968953 
3628.000000	95.955701 
3627.000000	95.952413 
3626.000000	95.950768 
3625.000000	95.948816 
3624.000000	95.951154 
3623.000000	95.962331 
3622.000000	95.978979 
3621.000000	95.989611 
3620.000000	95.985370 
3619.000000	95.968775 
3618.000000	95.949260 
3617.000000	95.935977 
3616.000000	95.934647 
3615.000000	95.944522 
3614.000000	95.960549 
3613.000000	95.978777 
3612.000000	95.997562 
3611.000000	96.014564 
3610.000000	96.026406 
3609.000000	96.032534 
3608.000000	96.036948 
3607.000000	96.043565 
3606.000000	96.052140 
3605.000000	96.061445 
3604.000000	96.072386 
3603.000000	96.086189 
3602.000000	96.101354 
3601.000000	96.113669 
3600.000000	96.121120 
3599.000000	96.124880 
3598.000000	96.126375 
3597.000000	96.126174 
3596.000000	96.125979 
3595.000000	96.127749 
3594.000000	96.132529 
3593.000000	96.138751 
3592.000000	96.143413 
3591.000000	96.144824 
3590.000000	96.142462 
3589.000000	96.136891 
3588.000000	96.131708 
3587.000000	96.131705 
3586.000000	96.137607 
3585.000000	96.146547 
3584.000000	96.156110 
3583.000000	96.165152 
3582.000000	96.172860 
3581.000000	96.177533 
3580.000000	96.177586 
3579.000000	96.173449 
3578.000000	96.167998 
3577.000000	96.164427 
3576.000000	96.163656 
3575.000000	96.164290 
3574.000000	96.164404 
3573.000000	96.163212 
3572.000000	96.160446 
3571.000000	96.155556 
3570.000000	96.147015 
3569.000000	96.133316 
3568.000000	96.116834 
3567.000000	96.104786 
3566.000000	96.102147 
3565.000000	96.107236 
3564.000000	96.115264 
3563.000000	96.122583 
3562.000000	96.127880 
3561.000000	96.131153 
3560.000000	96.132308 
3559.000000	96.131156 
3558.000000	96.128114 
3557.000000	96.124479 
3556.000000	96.121596 
3555.000000	96.119947 
3554.000000	96.118857 
3553.000000	96.117215 
3552.000000	96.114626 
3551.000000	96.111875 
3550.000000	96.110204 
3549.000000	96.109978 
3548.000000	96.110157 
3547.000000	96.109217 
3546.000000	96.106605 
3545.000000	96.103445 
3544.000000	96.101771 
3543.000000	96.102794 
3542.000000	96.105876 
3541.000000	96.109228 
3540.000000	96.111397 
3539.000000	96.112083 
3538.000000	96.111747 
3537.000000	96.110886 
3536.000000	96.109765 
3535.000000	96.108429 
3534.000000	96.107040 
3533.000000	96.105917 
3532.000000	96.105438 
3531.000000	96.105796 
3530.000000	96.106762 
3529.000000	96.107636 
3528.000000	96.107609 
3527.000000	96.106494 
3526.000000	96.105093 
3525.000000	96.104645 
3524.000000	96.105725 
3523.000000	96.107785 
3522.000000	96.109702 
3521.000000	96.110943 
3520.000000	96.111849 
3519.000000	96.112867 
3518.000000	96.113814 
3517.000000	96.113975 
3516.000000	96.112953 
3515.000000	96.111197 
3514.000000	96.109809 
3513.000000	96.109541 
3512.000000	96.110131 
3511.000000	96.110679 
3510.000000	96.110645 
3509.000000	96.110347 
3508.000000	96.110419 
3507.000000	96.111017 
3506.000000	96.111708 
3505.000000	96.112000 
3504.000000	96.111851 
3503.000000	96.111604 
3502.000000	96.111604 
3501.000000	96.111944 
3500.000000	96.112434 
3499.000000	96.112759 
3498.000000	96.112774 
3497.000000	96.112596 
3496.000000	96.112173 
3495.000000	96.111005 
3494.000000	96.108821 
3493.000000	96.106330 
3492.000000	96.104651 
3491.000000	96.104132 
3490.000000	96.104358 
3489.000000	96.105058 
3488.000000	96.106151 
3487.000000	96.106835 
3486.000000	96.105742 
3485.000000	96.102543 
3484.000000	96.098669 
3483.000000	96.095814 
3482.000000	96.094282 
3481.000000	96.093420 
3480.000000	96.092983 
3479.000000	96.093207 
3478.000000	96.093947 
3477.000000	96.094583 
3476.000000	96.094571 
3475.000000	96.093528 
3474.000000	96.091218 
3473.000000	96.088245 
3472.000000	96.086285 
3471.000000	96.086491 
3470.000000	96.087873 
3469.000000	96.088143 
3468.000000	96.086191 
3467.000000	96.082987 
3466.000000	96.080060 
3465.000000	96.077564 
3464.000000	96.074263 
3463.000000	96.069067 
3462.000000	96.062360 
3461.000000	96.055952 
3460.000000	96.051591 
3459.000000	96.049349 
3458.000000	96.047691 
3457.000000	96.045241 
3456.000000	96.042292 
3455.000000	96.040147 
3454.000000	96.039351 
3453.000000	96.039096 
3452.000000	96.038356 
3451.000000	96.036881 
3450.000000	96.034889 
3449.000000	96.032407 
3448.000000	96.029274 
3447.000000	96.025406 
3446.000000	96.020828 
3445.000000	96.015938 
3444.000000	96.011753 
3443.000000	96.009276 
3442.000000	96.008434 
3441.000000	96.008042 
3440.000000	96.006998 
3439.000000	96.005189 
3438.000000	96.003044 
3437.000000	96.000787 
3436.000000	95.998478 
3435.000000	95.996268 
3434.000000	95.994200 
3433.000000	95.992013 
3432.000000	95.989565 
3431.000000	95.987156 
3430.000000	95.985150 
3429.000000	95.983501 
3428.000000	95.981841 
3427.000000	95.979925 
3426.000000	95.977825 
3425.000000	95.975760 
3424.000000	95.973903 
3423.000000	95.972276 
3422.000000	95.970736 
3421.000000	95.969077 
3420.000000	95.967245 
3419.000000	95.965423 
3418.000000	95.963839 
3417.000000	95.962510 
3416.000000	95.961262 
3415.000000	95.959942 
3414.000000	95.958500 
3413.000000	95.956909 
3412.000000	95.955196 
3411.000000	95.953555 
3410.000000	95.952244 
3409.000000	95.951325 
3408.000000	95.950591 
3407.000000	95.949769 
3406.000000	95.948721 
3405.000000	95.947409 
3404.000000	95.945891 
3403.000000	95.944415 
3402.000000	95.943318 
3401.000000	95.942723 
3400.000000	95.942421 
3399.000000	95.942098 
3398.000000	95.941622 
3397.000000	95.941025 
3396.000000	95.940391 
3395.000000	95.939891 
3394.000000	95.939701 
3393.000000	95.939727 
3392.000000	95.939538 
3391.000000	95.938812 
3390.000000	95.937771 
3389.000000	95.937006 
3388.000000	95.936848 
3387.000000	95.937120 
3386.000000	95.937401 
3385.000000	95.937339 
3384.000000	95.936821 
3383.000000	95.936167 
3382.000000	95.936113 
3381.000000	95.937156 
3380.000000	95.938936 
3379.000000	95.940477 
3378.000000	95.941281 
3377.000000	95.941789 
3376.000000	95.942653 
3375.000000	95.943830 
3374.000000	95.944661 
3373.000000	95.944681 
3372.000000	95.944079 
3371.000000	95.943542 
3370.000000	95.943715 
3369.000000	95.944721 
3368.000000	95.946090 
3367.000000	95.947155 
3366.000000	95.947640 
3365.000000	95.947725 
3364.000000	95.947654 
3363.000000	95.947564 
3362.000000	95.947744 
3361.000000	95.948626 
3360.000000	95.950351 
3359.000000	95.952545 
3358.000000	95.954611 
3357.000000	95.956154 
3356.000000	95.957096 
3355.000000	95.957719 
3354.000000	95.958652 
3353.000000	95.960349 
3352.000000	95.962429 
3351.000000	95.963961 
3350.000000	95.964611 
3349.000000	95.964998 
3348.000000	95.965733 
3347.000000	95.966585 
3346.000000	95.967075 
3345.000000	95.967259 
3344.000000	95.967420 
3343.000000	95.967522 
3342.000000	95.967540 
3341.000000	95.967864 
3340.000000	95.968729 
3339.000000	95.969671 
3338.000000	95.970180 
3337.000000	95.970602 
3336.000000	95.971629 
3335.000000	95.973109 
3334.000000	95.974092 
3333.000000	95.974078 
3332.000000	95.973571 
3331.000000	95.973429 
3330.000000	95.974084 
3329.000000	95.975431 
3328.000000	95.977111 
3327.000000	95.978801 
3326.000000	95.980496 
3325.000000	95.982385 
3324.000000	95.984275 
3323.000000	95.985533 
3322.000000	95.985916 
3321.000000	95.986060 
3320.000000	95.986760 
3319.000000	95.988044 
3318.000000	95.989369 
3317.000000	95.990495 
3316.000000	95.991664 
3315.000000	95.992998 
3314.000000	95.994271 
3313.000000	95.995342 
3312.000000	95.996365 
3311.000000	95.997461 
3310.000000	95.998555 
3309.000000	95.999604 
3308.000000	96.000673 
3307.000000	96.001767 
3306.000000	96.002801 
3305.000000	96.003764 
3304.000000	96.004761 
3303.000000	96.005879 
3302.000000	96.007115 
3301.000000	96.008427 
3300.000000	96.009769 
3299.000000	96.011064 
3298.000000	96.012253 
3297.000000	96.013373 
3296.000000	96.014566 
3295.000000	96.015931 
3294.000000	96.017431 
3293.000000	96.018963 
3292.000000	96.020457 
3291.000000	96.021904 
3290.000000	96.023323 
3289.000000	96.024736 
3288.000000	96.026156 
3287.000000	96.027572 
3286.000000	96.028964 
3285.000000	96.030331 
3284.000000	96.031693 
3283.000000	96.033064 
3282.000000	96.034446 
3281.000000	96.035832 
3280.000000	96.037220 
3279.000000	96.038617 
3278.000000	96.040038 
3277.000000	96.041494 
3276.000000	96.042987 
3275.000000	96.044510 
3274.000000	96.046051 
3273.000000	96.047602 
3272.000000	96.049162 
3271.000000	96.050736 
3270.000000	96.052322 
3269.000000	96.053912 
3268.000000	96.055495 
3267.000000	96.057074 
3266.000000	96.058663 
3265.000000	96.060279 
3264.000000	96.061927 
3263.000000	96.063602 
3262.000000	96.065292 
3261.000000	96.066988 
3260.000000	96.068687 
3259.000000	96.070388 
3258.000000	96.072085 
3257.000000	96.073772 
3256.000000	96.075449 
3255.000000	96.077125 
3254.000000	96.078802 
3253.000000	96.080480 
3252.000000	96.082156 
3251.000000	96.083835 
3250.000000	96.085524 
3249.000000	96.087226 
3248.000000	96.088940 
3247.000000	96.090663 
3246.000000	96.092388 
3245.000000	96.094109 
3244.000000	96.095824 
3243.000000	96.097542 
3242.000000	96.099274 
3241.000000	96.101027 
3240.000000	96.102799 
3239.000000	96.104588 
3238.000000	96.106394 
3237.000000	96.108221 
3236.000000	96.110063 
3235.000000	96.111904 
3234.000000	96.113726 
3233.000000	96.115522 
3232.000000	96.117297 
3231.000000	96.119069 
3230.000000	96.120850 
3229.000000	96.122643 
3228.000000	96.124438 
3227.000000	96.126236 
3226.000000	96.128046 
3225.000000	96.129876 
3224.000000	96.131725 
3223.000000	96.133582 
3222.000000	96.135434 
3221.000000	96.137281 
3220.000000	96.139128 
3219.000000	96.140980 
3218.000000	96.142839 
3217.000000	96.144704 
3216.000000	96.146578 
3215.000000	96.148471 
3214.000000	96.150394 
3213.000000	96.152351 
3212.000000	96.154336 
3211.000000	96.156338 
3210.000000	96.158348 
3209.000000	96.160362 
3208.000000	96.162383 
3207.000000	96.164412 
3206.000000	96.166452 
3205.000000	96.168501 
3204.000000	96.170562 
3203.000000	96.172640 
3202.000000	96.174742 
3201.000000	96.176872 
3200.000000	96.179020 
3199.000000	96.181173 
3198.000000	96.183324 
3197.000000	96.185477 
3196.000000	96.187644 
3195.000000	96.189828 
3194.000000	96.192025 
3193.000000	96.194232 
3192.000000	96.196447 
3191.000000	96.198676 
3190.000000	96.200921 
3189.000000	96.203183 
3188.000000	96.205456 
3187.000000	96.207734 
3186.000000	96.210021 
3185.000000	96.212323 
3184.000000	96.214645 
3183.000000	96.216977 
3182.000000	96.219310 
3181.000000	96.221637 
3180.000000	96.223955 
3179.000000	96.226270 
3178.000000	96.228587 
3177.000000	96.230910 
3176.000000	96.233238 
3175.000000	96.235565 
3174.000000	96.237883 
3173.000000	96.240192 
3172.000000	96.242491 
3171.000000	96.244772 
3170.000000	96.247030 
3169.000000	96.249266 
3168.000000	96.251493 
3167.000000	96.253721 
3166.000000	96.255956 
3165.000000	96.258196 
3164.000000	96.260437 
3163.000000	96.262677 
3162.000000	96.264915 
3161.000000	96.267152 
3160.000000	96.269385 
3159.000000	96.271610 
3158.000000	96.273823 
3157.000000	96.276030 
3156.000000	96.278241 
3155.000000	96.280456 
3154.000000	96.282667 
3153.000000	96.284863 
3152.000000	96.287040 
3151.000000	96.289204 
3150.000000	96.291364 
3149.000000	96.293529 
3148.000000	96.295701 
3147.000000	96.297876 
3146.000000	96.300051 
3145.000000	96.302226 
3144.000000	96.304402 
3143.000000	96.306572 
3142.000000	96.308728 
3141.000000	96.310865 
3140.000000	96.312987 
3139.000000	96.315101 
3138.000000	96.317213 
3137.000000	96.319327 
3136.000000	96.321442 
3135.000000	96.323550 
3134.000000	96.325650 
3133.000000	96.327746 
3132.000000	96.329849 
3131.000000	96.331966 
3130.000000	96.334093 
3129.000000	96.336225 
3128.000000	96.338362 
3127.000000	96.340507 
3126.000000	96.342658 
3125.000000	96.344819 
3124.000000	96.346982 
3123.000000	96.349125 
3122.000000	96.351222 
3121.000000	96.353254 
3120.000000	96.355244 
3119.000000	96.357251 
3118.000000	96.359323 
3117.000000	96.361453 
3116.000000	96.363587 
3115.000000	96.365651 
3114.000000	96.367577 
3113.000000	96.369391 
3112.000000	96.371256 
3111.000000	96.373328 
3110.000000	96.375565 
3109.000000	96.377749 
3108.000000	96.379739 
3107.000000	96.381605 
3106.000000	96.383483 
3105.000000	96.385415 
3104.000000	96.387352 
3103.000000	96.389224 
3102.000000	96.390965 
3101.000000	96.392536 
3100.000000	96.393947 
3099.000000	96.395209 
3098.000000	96.396374 
3097.000000	96.397658 
3096.000000	96.399360 
3095.000000	96.401530 
3094.000000	96.403859 
3093.000000	96.406019 
3092.000000	96.407959 
3091.000000	96.409783 
3090.000000	96.411527 
3089.000000	96.413207 
3088.000000	96.414899 
3087.000000	96.416629 
3086.000000	96.418330 
3085.000000	96.419995 
3084.000000	96.421718 
3083.000000	96.423484 
3082.000000	96.425105 
3081.000000	96.426514 
3080.000000	96.427977 
3079.000000	96.429793 
3078.000000	96.431872 
3077.000000	96.433869 
3076.000000	96.435657 
3075.000000	96.437271 
3074.000000	96.438520 
3073.000000	96.439229 
3072.000000	96.439874 
3071.000000	96.441275 
3070.000000	96.443543 
3069.000000	96.445897 
3068.000000	96.447775 
3067.000000	96.449546 
3066.000000	96.451670 
3065.000000	96.453742 
3064.000000	96.454990 
3063.000000	96.455251 
3062.000000	96.454973 
3061.000000	96.454600 
3060.000000	96.454456 
3059.000000	96.455015 
3058.000000	96.456687 
3057.000000	96.459332 
3056.000000	96.462316 
3055.000000	96.464942 
3054.000000	96.466731 
3053.000000	96.467534 
3052.000000	96.467753 
3051.000000	96.468322 
3050.000000	96.469958 
3049.000000	96.472438 
3048.000000	96.474872 
3047.000000	96.476633 
3046.000000	96.477739 
3045.000000	96.478457 
3044.000000	96.479046 
3043.000000	96.479977 
3042.000000	96.481785 
3041.000000	96.484244 
3040.000000	96.486097 
3039.000000	96.486324 
3038.000000	96.485360 
3037.000000	96.484675 
3036.000000	96.485044 
3035.000000	96.485755 
3034.000000	96.485744 
3033.000000	96.484882 
3032.000000	96.483854 
3031.000000	96.483193 
3030.000000	96.482908 
3029.000000	96.482874 
3028.000000	96.483014 
3027.000000	96.483094 
3026.000000	96.482812 
3025.000000	96.482230 
3024.000000	96.481842 
3023.000000	96.482046 
3022.000000	96.482743 
3021.000000	96.483611 
3020.000000	96.484553 
3019.000000	96.485633 
3018.000000	96.486656 
3017.000000	96.487072 
3016.000000	96.486410 
3015.000000	96.484771 
3014.000000	96.482976 
3013.000000	96.482089 
3012.000000	96.482604 
3011.000000	96.484082 
3010.000000	96.485482 
3009.000000	96.486013 
3008.000000	96.485550 
3007.000000	96.484421 
3006.000000	96.483111 
3005.000000	96.482083 
3004.000000	96.481567 
3003.000000	96.481461 
3002.000000	96.481624 
3001.000000	96.482162 
3000.000000	96.483095 
2999.000000	96.483762 
2998.000000	96.483163 
2997.000000	96.481083 
2996.000000	96.478574 
2995.000000	96.477051 
2994.000000	96.477108 
2993.000000	96.478435 
2992.000000	96.480313 
2991.000000	96.481875 
2990.000000	96.482307 
2989.000000	96.481419 
2988.000000	96.479971 
2987.000000	96.479074 
2986.000000	96.479373 
2985.000000	96.481022 
2984.000000	96.483991 
2983.000000	96.487901 
2982.000000	96.491876 
2981.000000	96.495006 
2980.000000	96.496781 
2979.000000	96.496963 
2978.000000	96.495614 
2977.000000	96.493673 
2976.000000	96.492843 
2975.000000	96.494115 
2974.000000	96.496829 
2973.000000	96.499685 
2972.000000	96.502393 
2971.000000	96.505582 
2970.000000	96.509418 
2969.000000	96.513152 
2968.000000	96.515931 
2967.000000	96.517341 
2966.000000	96.517441 
2965.000000	96.516979 
2964.000000	96.517294 
2963.000000	96.519294 
2962.000000	96.522651 
2961.000000	96.526328 
2960.000000	96.529600 
2959.000000	96.532222 
2958.000000	96.534217 
2957.000000	96.536136 
2956.000000	96.538917 
2955.000000	96.542682 
2954.000000	96.546266 
2953.000000	96.548813 
2952.000000	96.551087 
2951.000000	96.554236 
2950.000000	96.557889 
2949.000000	96.560766 
2948.000000	96.562625 
2947.000000	96.564201 
2946.000000	96.565683 
2945.000000	96.566609 
2944.000000	96.567119 
2943.000000	96.567947 
2942.000000	96.569071 
2941.000000	96.569570 
2940.000000	96.569040 
2939.000000	96.568234 
2938.000000	96.568161 
2937.000000	96.569233 
2936.000000	96.571257 
2935.000000	96.573492 
2934.000000	96.574871 
2933.000000	96.574952 
2932.000000	96.574490 
2931.000000	96.574383 
2930.000000	96.574642 
2929.000000	96.575333 
2928.000000	96.577679 
2927.000000	96.582601 
2926.000000	96.588479 
2925.000000	96.592184 
2924.000000	96.592711 
2923.000000	96.592165 
2922.000000	96.592967 
2921.000000	96.595330 
2920.000000	96.598122 
2919.000000	96.600753 
2918.000000	96.603203 
2917.000000	96.605145 
2916.000000	96.605999 
2915.000000	96.605617 
2914.000000	96.604495 
2913.000000	96.603519 
2912.000000	96.603291 
2911.000000	96.603279 
2910.000000	96.602073 
2909.000000	96.599311 
2908.000000	96.596930 
2907.000000	96.597227 
2906.000000	96.599908 
2905.000000	96.602264 
2904.000000	96.602297 
2903.000000	96.600890 
2902.000000	96.600306 
2901.000000	96.601701 
2900.000000	96.604843 
2899.000000	96.608853 
2898.000000	96.612893 
2897.000000	96.616644 
2896.000000	96.620326 
2895.000000	96.623818 
2894.000000	96.626208 
2893.000000	96.627075 
2892.000000	96.627679 
2891.000000	96.629594 
2890.000000	96.632526 
2889.000000	96.634996 
2888.000000	96.636876 
2887.000000	96.639384 
2886.000000	96.642504 
2885.000000	96.644511 
2884.000000	96.644732 
2883.000000	96.644869 
2882.000000	96.646562 
2881.000000	96.649300 
2880.000000	96.651962 
2879.000000	96.654943 
2878.000000	96.659177 
2877.000000	96.664098 
2876.000000	96.668138 
2875.000000	96.670695 
2874.000000	96.672293 
2873.000000	96.673311 
2872.000000	96.673691 
2871.000000	96.673710 
2870.000000	96.674106 
2869.000000	96.675343 
2868.000000	96.677309 
2867.000000	96.679624 
2866.000000	96.681841 
2865.000000	96.683617 
2864.000000	96.685160 
2863.000000	96.687294 
2862.000000	96.690613 
2861.000000	96.694716 
2860.000000	96.698518 
2859.000000	96.701340 
2858.000000	96.703403 
2857.000000	96.705419 
2856.000000	96.707897 
2855.000000	96.710680 
2854.000000	96.713077 
2853.000000	96.714622 
2852.000000	96.715605 
2851.000000	96.716764 
2850.000000	96.718447 
2849.000000	96.720346 
2848.000000	96.722062 
2847.000000	96.723575 
2846.000000	96.725062 
2845.000000	96.726572 
2844.000000	96.728059 
2843.000000	96.729586 
2842.000000	96.731283 
2841.000000	96.733155 
2840.000000	96.735038 
2839.000000	96.736722 
2838.000000	96.738114 
2837.000000	96.739303 
2836.000000	96.740509 
2835.000000	96.741910 
2834.000000	96.743490 
2833.000000	96.745116 
2832.000000	96.746684 
2831.000000	96.748180 
2830.000000	96.749618 
2829.000000	96.750990 
2828.000000	96.752300 
2827.000000	96.753595 
2826.000000	96.754916 
2825.000000	96.756261 
2824.000000	96.757600 
2823.000000	96.758909 
2822.000000	96.760179 
2821.000000	96.761416 
2820.000000	96.762634 
2819.000000	96.763845 
2818.000000	96.765044 
2817.000000	96.766219 
2816.000000	96.767374 
2815.000000	96.768528 
2814.000000	96.769695 
2813.000000	96.770864 
2812.000000	96.772014 
2811.000000	96.773132 
2810.000000	96.774221 
2809.000000	96.775304 
2808.000000	96.776413 
2807.000000	96.777580 
2806.000000	96.778812 
2805.000000	96.780079 
2804.000000	96.781349 
2803.000000	96.782627 
2802.000000	96.783935 
2801.000000	96.785265 
2800.000000	96.786584 
2799.000000	96.787885 
2798.000000	96.789182 
2797.000000	96.790448 
2796.000000	96.791629 
2795.000000	96.792729 
2794.000000	96.793834 
2793.000000	96.795001 
2792.000000	96.796234 
2791.000000	96.797524 
2790.000000	96.798841 
2789.000000	96.800104 
2788.000000	96.801239 
2787.000000	96.802296 
2786.000000	96.803418 
2785.000000	96.804667 
2784.000000	96.805952 
2783.000000	96.807186 
2782.000000	96.808395 
2781.000000	96.809618 
2780.000000	96.810834 
2779.000000	96.812047 
2778.000000	96.813308 
2777.000000	96.814595 
2776.000000	96.815779 
2775.000000	96.816797 
2774.000000	96.817745 
2773.000000	96.818756 
2772.000000	96.819797 
2771.000000	96.820772 
2770.000000	96.821715 
2769.000000	96.822763 
2768.000000	96.823955 
2767.000000	96.825178 
2766.000000	96.826338 
2765.000000	96.827453 
2764.000000	96.828562 
2763.000000	96.829652 
2762.000000	96.830691 
2761.000000	96.831659 
2760.000000	96.832559 
2759.000000	96.833445 
2758.000000	96.834408 
2757.000000	96.835412 
2756.000000	96.836246 
2755.000000	96.836812 
2754.000000	96.837320 
2753.000000	96.838049 
2752.000000	96.838969 
2751.000000	96.839809 
2750.000000	96.840482 
2749.000000	96.841194 
2748.000000	96.842100 
2747.000000	96.843001 
2746.000000	96.843543 
2745.000000	96.843625 
2744.000000	96.843554 
2743.000000	96.843796 
2742.000000	96.844546 
2741.000000	96.845563 
2740.000000	96.846404 
2739.000000	96.846890 
2738.000000	96.847172 
2737.000000	96.847423 
2736.000000	96.847643 
2735.000000	96.847869 
2734.000000	96.848323 
2733.000000	96.849179 
2732.000000	96.850358 
2731.000000	96.851670 
2730.000000	96.853013 
2729.000000	96.854260 
2728.000000	96.855150 
2727.000000	96.855523 
2726.000000	96.855550 
2725.000000	96.855564 
2724.000000	96.855714 
2723.000000	96.855950 
2722.000000	96.856221 
2721.000000	96.856537 
2720.000000	96.856932 
2719.000000	96.857457 
2718.000000	96.858118 
2717.000000	96.858789 
2716.000000	96.859297 
2715.000000	96.859628 
2714.000000	96.859960 
2713.000000	96.860432 
2712.000000	96.860960 
2711.000000	96.861369 
2710.000000	96.861636 
2709.000000	96.861945 
2708.000000	96.862456 
2707.000000	96.863120 
2706.000000	96.863783 
2705.000000	96.864428 
2704.000000	96.865090 
2703.000000	96.865657 
2702.000000	96.865979 
2701.000000	96.866141 
2700.000000	96.866442 
2699.000000	96.867121 
2698.000000	96.868205 
2697.000000	96.869461 
2696.000000	96.870412 
2695.000000	96.870654 
2694.000000	96.870258 
2693.000000	96.869850 
2692.000000	96.869946 
2691.000000	96.870354 
2690.000000	96.870517 
2689.000000	96.870254 
2688.000000	96.869860 
2687.000000	96.869595 
2686.000000	96.869505 
2685.000000	96.869660 
2684.000000	96.870154 
2683.000000	96.870823 
2682.000000	96.871264 
2681.000000	96.871171 
2680.000000	96.870516 
2679.000000	96.869509 
2678.000000	96.868639 
2677.000000	96.868549 
2676.000000	96.869403 
2675.000000	96.870432 
2674.000000	96.870667 
2673.000000	96.870183 
2672.000000	96.870050 
2671.000000	96.870901 
2670.000000	96.872067 
2669.000000	96.872445 
2668.000000	96.871675 
2667.000000	96.870123 
2666.000000	96.868133 
2665.000000	96.865731 
2664.000000	96.863019 
2663.000000	96.860511 
2662.000000	96.858908 
2661.000000	96.858464 
2660.000000	96.858607 
2659.000000	96.858318 
2658.000000	96.857092 
2657.000000	96.855364 
2656.000000	96.853843 
2655.000000	96.852569 
2654.000000	96.850967 
2653.000000	96.848825 
2652.000000	96.846882 
2651.000000	96.846253 
2650.000000	96.847405 
2649.000000	96.849632 
2648.000000	96.851374 
2647.000000	96.851280 
2646.000000	96.849049 
2645.000000	96.845514 
2644.000000	96.842024 
2643.000000	96.839564 
2642.000000	96.838403 
2641.000000	96.838288 
2640.000000	96.838731 
2639.000000	96.839280 
2638.000000	96.839735 
2637.000000	96.840072 
2636.000000	96.840188 
2635.000000	96.839997 
2634.000000	96.839783 
2633.000000	96.840097 
2632.000000	96.841083 
2631.000000	96.842223 
2630.000000	96.842912 
2629.000000	96.843000 
2628.000000	96.842593 
2627.000000	96.841749 
2626.000000	96.840814 
2625.000000	96.840674 
2624.000000	96.842060 
2623.000000	96.844663 
2622.000000	96.847200 
2621.000000	96.848554 
2620.000000	96.848499 
2619.000000	96.847422 
2618.000000	96.845887 
2617.000000	96.844542 
2616.000000	96.843942 
2615.000000	96.844130 
2614.000000	96.844686 
2613.000000	96.845431 
2612.000000	96.846774 
2611.000000	96.849174 
2610.000000	96.852548 
2609.000000	96.856219 
2608.000000	96.859162 
2607.000000	96.860476 
2606.000000	96.860172 
2605.000000	96.859499 
2604.000000	96.859777 
2603.000000	96.860859 
2602.000000	96.861592 
2601.000000	96.861737 
2600.000000	96.862271 
2599.000000	96.863546 
2598.000000	96.864387 
2597.000000	96.863756 
2596.000000	96.862299 
2595.000000	96.861320 
2594.000000	96.860866 
2593.000000	96.859998 
2592.000000	96.858715 
2591.000000	96.858299 
2590.000000	96.859521 
2589.000000	96.861613 
2588.000000	96.863530 
2587.000000	96.865502 
2586.000000	96.868493 
2585.000000	96.872710 
2584.000000	96.877390 
2583.000000	96.881838 
2582.000000	96.885788 
2581.000000	96.888720 
2580.000000	96.889777 
2579.000000	96.888791 
2578.000000	96.886871 
2577.000000	96.885328 
2576.000000	96.884290 
2575.000000	96.883110 
2574.000000	96.881824 
2573.000000	96.881349 
2572.000000	96.882180 
2571.000000	96.883589 
2570.000000	96.884435 
2569.000000	96.884440 
2568.000000	96.884385 
2567.000000	96.885179 
2566.000000	96.886933 
2565.000000	96.888868 
2564.000000	96.889970 
2563.000000	96.889839 
2562.000000	96.888997 
2561.000000	96.888504 
2560.000000	96.889188 
2559.000000	96.891178 
2558.000000	96.893935 
2557.000000	96.896528 
2556.000000	96.898242 
2555.000000	96.899087 
2554.000000	96.899561 
2553.000000	96.899987 
2552.000000	96.900210 
2551.000000	96.900139 
2550.000000	96.900160 
2549.000000	96.900615 
2548.000000	96.901248 
2547.000000	96.901614 
2546.000000	96.901737 
2545.000000	96.901999 
2544.000000	96.902530 
2543.000000	96.903093 
2542.000000	96.903483 
2541.000000	96.903776 
2540.000000	96.904129 
2539.000000	96.904568 
2538.000000	96.905030 
2537.000000	96.905476 
2536.000000	96.905911 
2535.000000	96.906352 
2534.000000	96.906814 
2533.000000	96.907306 
2532.000000	96.907824 
2531.000000	96.908359 
2530.000000	96.908903 
2529.000000	96.909447 
2528.000000	96.909974 
2527.000000	96.910468 
2526.000000	96.910936 
2525.000000	96.911415 
2524.000000	96.911931 
2523.000000	96.912470 
2522.000000	96.913009 
2521.000000	96.913550 
2520.000000	96.914115 
2519.000000	96.914698 
2518.000000	96.915270 
2517.000000	96.915823 
2516.000000	96.916361 
2515.000000	96.916860 
2514.000000	96.917294 
2513.000000	96.917739 
2512.000000	96.918349 
2511.000000	96.919166 
2510.000000	96.920108 
2509.000000	96.921060 
2508.000000	96.921969 
2507.000000	96.922825 
2506.000000	96.923645 
2505.000000	96.924490 
2504.000000	96.925415 
2503.000000	96.926410 
2502.000000	96.927411 
2501.000000	96.928364 
2500.000000	96.929275 
2499.000000	96.930183 
2498.000000	96.931108 
2497.000000	96.932041 
2496.000000	96.932967 
2495.000000	96.933880 
2494.000000	96.934775 
2493.000000	96.935653 
2492.000000	96.936524 
2491.000000	96.937389 
2490.000000	96.938234 
2489.000000	96.939045 
2488.000000	96.939821 
2487.000000	96.940563 
2486.000000	96.941269 
2485.000000	96.941958 
2484.000000	96.942662 
2483.000000	96.943383 
2482.000000	96.944072 
2481.000000	96.944702 
2480.000000	96.945338 
2479.000000	96.946043 
2478.000000	96.946778 
2477.000000	96.947435 
2476.000000	96.947941 
2475.000000	96.948292 
2474.000000	96.948556 
2473.000000	96.948930 
2472.000000	96.949618 
2471.000000	96.950552 
2470.000000	96.951348 
2469.000000	96.951753 
2468.000000	96.951974 
2467.000000	96.952412 
2466.000000	96.952974 
2465.000000	96.953154 
2464.000000	96.952874 
2463.000000	96.952744 
2462.000000	96.953313 
2461.000000	96.954500 
2460.000000	96.955721 
2459.000000	96.956461 
2458.000000	96.956622 
2457.000000	96.956562 
2456.000000	96.956623 
2455.000000	96.956634 
2454.000000	96.956187 
2453.000000	96.955429 
2452.000000	96.955006 
2451.000000	96.955064 
2450.000000	96.955079 
2449.000000	96.954946 
2448.000000	96.955403 
2447.000000	96.956812 
2446.000000	96.958369 
2445.000000	96.959181 
2444.000000	96.959394 
2443.000000	96.959636 
2442.000000	96.960071 
2441.000000	96.960634 
2440.000000	96.961591 
2439.000000	96.963206 
2438.000000	96.965291 
2437.000000	96.967492 
2436.000000	96.969614 
2435.000000	96.971343 
2434.000000	96.972167 
2433.000000	96.972046 
2432.000000	96.971734 
2431.000000	96.971972 
2430.000000	96.972774 
2429.000000	96.973920 
2428.000000	96.975508 
2427.000000	96.977343 
2426.000000	96.978475 
2425.000000	96.978211 
2424.000000	96.977086 
2423.000000	96.976252 
2422.000000	96.976118 
2421.000000	96.976385 
2420.000000	96.977093 
2419.000000	96.978767 
2418.000000	96.981409 
2417.000000	96.983864 
2416.000000	96.985024 
2415.000000	96.984980 
2414.000000	96.984420 
2413.000000	96.984265 
2412.000000	96.985687 
2411.000000	96.988542 
2410.000000	96.990568 
2409.000000	96.990329 
2408.000000	96.989969 
2407.000000	96.992333 
2406.000000	96.996146 
2405.000000	96.997150 
2404.000000	96.993814 
2403.000000	96.988992 
2402.000000	96.985828 
2401.000000	96.984998 
2400.000000	96.986144 
2399.000000	96.989088 
2398.000000	96.992868 
2397.000000	96.995693 
2396.000000	96.996608 
2395.000000	96.995745 
2394.000000	96.992988 
2393.000000	96.988399 
2392.000000	96.983902 
2391.000000	96.982012 
2390.000000	96.982170 
2389.000000	96.980482 
2388.000000	96.973900 
2387.000000	96.963161 
2386.000000	96.951288 
2385.000000	96.940910 
2384.000000	96.933485 
2383.000000	96.929569 
2382.000000	96.929526 
2381.000000	96.935147 
2380.000000	96.949998 
2379.000000	96.975186 
2378.000000	97.003850 
2377.000000	97.023244 
2376.000000	97.024780 
2375.000000	97.010132 
2374.000000	96.986895 
2373.000000	96.960377 
2372.000000	96.932836 
2371.000000	96.908190 
2370.000000	96.891897 
2369.000000	96.885114 
2368.000000	96.882408 
2367.000000	96.876803 
2366.000000	96.866826 
2365.000000	96.857927 
2364.000000	96.855238 
2363.000000	96.854393 
2362.000000	96.845599 
2361.000000	96.824041 
2360.000000	96.792817 
2359.000000	96.761811 
2358.000000	96.740649 
2357.000000	96.734015 
2356.000000	96.739246 
2355.000000	96.746653 
2354.000000	96.752592 
2353.000000	96.757714 
2352.000000	96.765315 
2351.000000	96.773300 
2350.000000	96.773875 
2349.000000	96.765153 
2348.000000	96.751290 
2347.000000	96.739612 
2346.000000	96.727145 
2345.000000	96.706938 
2344.000000	96.683918 
2343.000000	96.666571 
2342.000000	96.666730 
2341.000000	96.686069 
2340.000000	96.717707 
2339.000000	96.748950 
2338.000000	96.770821 
2337.000000	96.782787 
2336.000000	96.786699 
2335.000000	96.785864 
2334.000000	96.781846 
2333.000000	96.776635 
2332.000000	96.768675 
2331.000000	96.758762 
2330.000000	96.741048 
2329.000000	96.715532 
2328.000000	96.677813 
2327.000000	96.636202 
2326.000000	96.597210 
2325.000000	96.568427 
2324.000000	96.554100 
2323.000000	96.555557 
2322.000000	96.570922 
2321.000000	96.591196 
2320.000000	96.609614 
2319.000000	96.627093 
2318.000000	96.646403 
2317.000000	96.668383 
2316.000000	96.687114 
2315.000000	96.700518 
2314.000000	96.704263 
2313.000000	96.700378 
2312.000000	96.690291 
2311.000000	96.682396 
2310.000000	96.678195 
2309.000000	96.677258 
2308.000000	96.675765 
2307.000000	96.677588 
2306.000000	96.684347 
2305.000000	96.693583 
2304.000000	96.697614 
2303.000000	96.695394 
2302.000000	96.690553 
2301.000000	96.688995 
2300.000000	96.691003 
2299.000000	96.695789 
2298.000000	96.699779 
2297.000000	96.701950 
2296.000000	96.701957 
2295.000000	96.703827 
2294.000000	96.709573 
2293.000000	96.718653 
2292.000000	96.727956 
2291.000000	96.737083 
2290.000000	96.746914 
2289.000000	96.756667 
2288.000000	96.763820 
2287.000000	96.767719 
2286.000000	96.771175 
2285.000000	96.776903 
2284.000000	96.784909 
2283.000000	96.792481 
2282.000000	96.797253 
2281.000000	96.798520 
2280.000000	96.797466 
2279.000000	96.795429 
2278.000000	96.793377 
2277.000000	96.792630 
2276.000000	96.795430 
2275.000000	96.803165 
2274.000000	96.813798 
2273.000000	96.823378 
2272.000000	96.830261 
2271.000000	96.836641 
2270.000000	96.844541 
2269.000000	96.852866 
2268.000000	96.859371 
2267.000000	96.863461 
2266.000000	96.865484 
2265.000000	96.865908 
2264.000000	96.866125 
2263.000000	96.867904 
2262.000000	96.870314 
2261.000000	96.869798 
2260.000000	96.865209 
2259.000000	96.859967 
2258.000000	96.857990 
2257.000000	96.859335 
2256.000000	96.862375 
2255.000000	96.867131 
2254.000000	96.873674 
2253.000000	96.879112 
2252.000000	96.879670 
2251.000000	96.875030 
2250.000000	96.867974 
2249.000000	96.861072 
2248.000000	96.855628 
2247.000000	96.853085 
2246.000000	96.854335 
2245.000000	96.857668 
2244.000000	96.859560 
2243.000000	96.858296 
2242.000000	96.855350 
2241.000000	96.853250 
2240.000000	96.853389 
2239.000000	96.855840 
2238.000000	96.859649 
2237.000000	96.862974 
2236.000000	96.864377 
2235.000000	96.864233 
2234.000000	96.864237 
2233.000000	96.865439 
2232.000000	96.867268 
2231.000000	96.868304 
2230.000000	96.867531 
2229.000000	96.865028 
2228.000000	96.861948 
2227.000000	96.859745 
2226.000000	96.858946 
2225.000000	96.858928 
2224.000000	96.858637 
2223.000000	96.857592 
2222.000000	96.856157 
2221.000000	96.854966 
2220.000000	96.854161 
2219.000000	96.853404 
2218.000000	96.852404 
2217.000000	96.851253 
2216.000000	96.850311 
2215.000000	96.849782 
2214.000000	96.849416 
2213.000000	96.848753 
2212.000000	96.847742 
2211.000000	96.846904 
2210.000000	96.846676 
2209.000000	96.846770 
2208.000000	96.846449 
2207.000000	96.845389 
2206.000000	96.844025 
2205.000000	96.843101 
2204.000000	96.843093 
2203.000000	96.843919 
2202.000000	96.845150 
2201.000000	96.846192 
2200.000000	96.845922 
2199.000000	96.843156 
2198.000000	96.837778 
2197.000000	96.831497 
2196.000000	96.827327 
2195.000000	96.827266 
2194.000000	96.830107 
2193.000000	96.832177 
2192.000000	96.831194 
2191.000000	96.828607 
2190.000000	96.827249 
2189.000000	96.827642 
2188.000000	96.827814 
2187.000000	96.825851 
2186.000000	96.821194 
2185.000000	96.814619 
2184.000000	96.809165 
2183.000000	96.810039 
2182.000000	96.820434 
2181.000000	96.836832 
2180.000000	96.850655 
2179.000000	96.856275 
2178.000000	96.855190 
2177.000000	96.852221 
2176.000000	96.850060 
2175.000000	96.848754 
2174.000000	96.848659 
2173.000000	96.851269 
2172.000000	96.857072 
2171.000000	96.864142 
2170.000000	96.869310 
2169.000000	96.870386 
2168.000000	96.867450 
2167.000000	96.862196 
2166.000000	96.855709 
2165.000000	96.846836 
2164.000000	96.833923 
2163.000000	96.819630 
2162.000000	96.813522 
2161.000000	96.826993 
2160.000000	96.863788 
2159.000000	96.914197 
2158.000000	96.959900 
2157.000000	96.988706 
2156.000000	97.001289 
2155.000000	97.004121 
2154.000000	97.001180 
2153.000000	96.994021 
2152.000000	96.985790 
2151.000000	96.980105 
2150.000000	96.976857 
2149.000000	96.973263 
2148.000000	96.969282 
2147.000000	96.968320 
2146.000000	96.971858 
2145.000000	96.977231 
2144.000000	96.982302 
2143.000000	96.988543 
2142.000000	96.996906 
2141.000000	97.004104 
2140.000000	97.006805 
2139.000000	97.007674 
2138.000000	97.013378 
2137.000000	97.026832 
2136.000000	97.043867 
2135.000000	97.057468 
2134.000000	97.063332 
2133.000000	97.061719 
2132.000000	97.056158 
2131.000000	97.050441 
2130.000000	97.045643 
2129.000000	97.040104 
2128.000000	97.032781 
2127.000000	97.025828 
2126.000000	97.022848 
2125.000000	97.024757 
2124.000000	97.028071 
2123.000000	97.027534 
2122.000000	97.020449 
2121.000000	97.008747 
2120.000000	96.996555 
2119.000000	96.985257 
2118.000000	96.972227 
2117.000000	96.955771 
2116.000000	96.939532 
2115.000000	96.929345 
2114.000000	96.926291 
2113.000000	96.925635 
2112.000000	96.923479 
2111.000000	96.920718 
2110.000000	96.919728 
2109.000000	96.920935 
2108.000000	96.923536 
2107.000000	96.926297 
2106.000000	96.926751 
2105.000000	96.923201 
2104.000000	96.918587 
2103.000000	96.918416 
2102.000000	96.923175 
2101.000000	96.926552 
2100.000000	96.923675 
2099.000000	96.917827 
2098.000000	96.916130 
2097.000000	96.921238 
2096.000000	96.930010 
2095.000000	96.937890 
2094.000000	96.941487 
2093.000000	96.938730 
2092.000000	96.930147 
2091.000000	96.919867 
2090.000000	96.913014 
2089.000000	96.911231 
2088.000000	96.911784 
2087.000000	96.910642 
2086.000000	96.905892 
2085.000000	96.898690 
2084.000000	96.891991 
2083.000000	96.887967 
2082.000000	96.886165 
2081.000000	96.884437 
2080.000000	96.881700 
2079.000000	96.878993 
2078.000000	96.877463 
2077.000000	96.876545 
2076.000000	96.875138 
2075.000000	96.873425 
2074.000000	96.872185 
2073.000000	96.871124 
2072.000000	96.869183 
2071.000000	96.866056 
2070.000000	96.862497 
2069.000000	96.859444 
2068.000000	96.857395 
2067.000000	96.856331 
2066.000000	96.855756 
2065.000000	96.854843 
2064.000000	96.853168 
2063.000000	96.851083 
2062.000000	96.849240 
2061.000000	96.847892 
2060.000000	96.846798 
2059.000000	96.845658 
2058.000000	96.844437 
2057.000000	96.843280 
2056.000000	96.842216 
2055.000000	96.841070 
2054.000000	96.839660 
2053.000000	96.838010 
2052.000000	96.836403 
2051.000000	96.835163 
2050.000000	96.834342 
2049.000000	96.833773 
2048.000000	96.833296 
2047.000000	96.832917 
2046.000000	96.832703 
2045.000000	96.832641 
2044.000000	96.832667 
2043.000000	96.832799 
2042.000000	96.833154 
2041.000000	96.833792 
2040.000000	96.834653 
2039.000000	96.835749 
2038.000000	96.837166 
2037.000000	96.838657 
2036.000000	96.839586 
2035.000000	96.839591 
2034.000000	96.839201 
2033.000000	96.839517 
2032.000000	96.841126 
2031.000000	96.843627 
2030.000000	96.845942 
2029.000000	96.847161 
2028.000000	96.847068 
2027.000000	96.846112 
2026.000000	96.844942 
2025.000000	96.844139 
2024.000000	96.844441 
2023.000000	96.846807 
2022.000000	96.851643 
2021.000000	96.857559 
2020.000000	96.861644 
2019.000000	96.861588 
2018.000000	96.857204 
2017.000000	96.850647 
2016.000000	96.845345 
2015.000000	96.843891 
2014.000000	96.845717 
2013.000000	96.846639 
2012.000000	96.842989 
2011.000000	96.836919 
2010.000000	96.835300 
2009.000000	96.842233 
2008.000000	96.854579 
2007.000000	96.865630 
2006.000000	96.872008 
2005.000000	96.874661 
2004.000000	96.875678 
2003.000000	96.876658 
2002.000000	96.878726 
2001.000000	96.881011 
2000.000000	96.879931 
1999.000000	96.872043 
1998.000000	96.857561 
1997.000000	96.840954 
1996.000000	96.827980 
1995.000000	96.822006 
1994.000000	96.822175 
1993.000000	96.823969 
1992.000000	96.822696 
1991.000000	96.818075 
1990.000000	96.814355 
1989.000000	96.815071 
1988.000000	96.818835 
1987.000000	96.820703 
1986.000000	96.816701 
1985.000000	96.806574 
1984.000000	96.793088 
1983.000000	96.779656 
1982.000000	96.768764 
1981.000000	96.762136 
1980.000000	96.762234 
1979.000000	96.771554 
1978.000000	96.788462 
1977.000000	96.805326 
1976.000000	96.814574 
1975.000000	96.816851 
1974.000000	96.819364 
1973.000000	96.826936 
1972.000000	96.837476 
1971.000000	96.846053 
1970.000000	96.850008 
1969.000000	96.848960 
1968.000000	96.843142 
1967.000000	96.834470 
1966.000000	96.827796 
1965.000000	96.827499 
1964.000000	96.833495 
1963.000000	96.842419 
1962.000000	96.851593 
1961.000000	96.859940 
1960.000000	96.865512 
1959.000000	96.865332 
1958.000000	96.859129 
1957.000000	96.851337 
1956.000000	96.847360 
1955.000000	96.848401 
1954.000000	96.851675 
1953.000000	96.854623 
1952.000000	96.856800 
1951.000000	96.858265 
1950.000000	96.858982 
1949.000000	96.860133 
1948.000000	96.863833 
1947.000000	96.870300 
1946.000000	96.876525 
1945.000000	96.879192 
1944.000000	96.878051 
1943.000000	96.875498 
1942.000000	96.873810 
1941.000000	96.873341 
1940.000000	96.873453 
1939.000000	96.873733 
1938.000000	96.874120 
1937.000000	96.874726 
1936.000000	96.875634 
1935.000000	96.876614 
1934.000000	96.877129 
1933.000000	96.876992 
1932.000000	96.876814 
1931.000000	96.877319 
1930.000000	96.878347 
1929.000000	96.878841 
1928.000000	96.878203 
1927.000000	96.876947 
1926.000000	96.875971 
1925.000000	96.875514 
1924.000000	96.875082 
1923.000000	96.874155 
1922.000000	96.872494 
1921.000000	96.870165 
1920.000000	96.867692 
1919.000000	96.865775 
1918.000000	96.864644 
1917.000000	96.863879 
1916.000000	96.863127 
1915.000000	96.862644 
1914.000000	96.862403 
1913.000000	96.861427 
1912.000000	96.858878 
1911.000000	96.855285 
1910.000000	96.852024 
1909.000000	96.849813 
1908.000000	96.848591 
1907.000000	96.848141 
1906.000000	96.847918 
1905.000000	96.846667 
1904.000000	96.843498 
1903.000000	96.839599 
1902.000000	96.837218 
1901.000000	96.836669 
1900.000000	96.835974 
1899.000000	96.833497 
1898.000000	96.829725 
1897.000000	96.826182 
1896.000000	96.823442 
1895.000000	96.821121 
1894.000000	96.818605 
1893.000000	96.815248 
1892.000000	96.810988 
1891.000000	96.807002 
1890.000000	96.804883 
1889.000000	96.804851 
1888.000000	96.805715 
1887.000000	96.806850 
1886.000000	96.808277 
1885.000000	96.808969 
1884.000000	96.807206 
1883.000000	96.803088 
1882.000000	96.799178 
1881.000000	96.797967 
1880.000000	96.799803 
1879.000000	96.802762 
1878.000000	96.803955 
1877.000000	96.801979 
1876.000000	96.798401 
1875.000000	96.796622 
1874.000000	96.798689 
1873.000000	96.803401 
1872.000000	96.807880 
1871.000000	96.810323 
1870.000000	96.810484 
1869.000000	96.809212 
1868.000000	96.808713 
1867.000000	96.811636 
1866.000000	96.817931 
1865.000000	96.823702 
1864.000000	96.825317 
1863.000000	96.823769 
1862.000000	96.823173 
1861.000000	96.825631 
1860.000000	96.830079 
1859.000000	96.835684 
1858.000000	96.842924 
1857.000000	96.850971 
1856.000000	96.857471 
1855.000000	96.861304 
1854.000000	96.863265 
1853.000000	96.863994 
1852.000000	96.864623 
1851.000000	96.867775 
1850.000000	96.875060 
1849.000000	96.884707 
1848.000000	96.892888 
1847.000000	96.897926 
1846.000000	96.900771 
1845.000000	96.902374 
1844.000000	96.903158 
1843.000000	96.904319 
1842.000000	96.907184 
1841.000000	96.911510 
1840.000000	96.916703 
1839.000000	96.923073 
1838.000000	96.930642 
1837.000000	96.936830 
1836.000000	96.938578 
1835.000000	96.937203 
1834.000000	96.937202 
1833.000000	96.940367 
1832.000000	96.944609 
1831.000000	96.947106 
1830.000000	96.947555 
1829.000000	96.948023 
1828.000000	96.949735 
1827.000000	96.952561 
1826.000000	96.955697 
1825.000000	96.958381 
1824.000000	96.960047 
1823.000000	96.960700 
1822.000000	96.960809 
1821.000000	96.959745 
1820.000000	96.956638 
1819.000000	96.952963 
1818.000000	96.952777 
1817.000000	96.957400 
1816.000000	96.962472 
1815.000000	96.964607 
1814.000000	96.965314 
1813.000000	96.967127 
1812.000000	96.968792 
1811.000000	96.967269 
1810.000000	96.963941 
1809.000000	96.961924 
1808.000000	96.960676 
1807.000000	96.958907 
1806.000000	96.958021 
1805.000000	96.958783 
1804.000000	96.957781 
1803.000000	96.951932 
1802.000000	96.942757 
1801.000000	96.935064 
1800.000000	96.930919 
1799.000000	96.929358 
1798.000000	96.931218 
1797.000000	96.936575 
1796.000000	96.942084 
1795.000000	96.944925 
1794.000000	96.945320 
1793.000000	96.944759 
1792.000000	96.943238 
1791.000000	96.940969 
1790.000000	96.941094 
1789.000000	96.945689 
1788.000000	96.952954 
1787.000000	96.959615 
1786.000000	96.964172 
1785.000000	96.966803 
1784.000000	96.967572 
1783.000000	96.967794 
1782.000000	96.968777 
1781.000000	96.970915 
1780.000000	96.974025 
1779.000000	96.977783 
1778.000000	96.982737 
1777.000000	96.988127 
1776.000000	96.992085 
1775.000000	96.993773 
1774.000000	96.994075 
1773.000000	96.995239 
1772.000000	96.998333 
1771.000000	97.001372 
1770.000000	97.003131 
1769.000000	97.004380 
1768.000000	97.005874 
1767.000000	97.008131 
1766.000000	97.011378 
1765.000000	97.015498 
1764.000000	97.019711 
1763.000000	97.022969 
1762.000000	97.025117 
1761.000000	97.027169 
1760.000000	97.029582 
1759.000000	97.031831 
1758.000000	97.033563 
1757.000000	97.035129 
1756.000000	97.037403 
1755.000000	97.040390 
1754.000000	97.043188 
1753.000000	97.044983 
1752.000000	97.045771 
1751.000000	97.046625 
1750.000000	97.048679 
1749.000000	97.051902 
1748.000000	97.055358 
1747.000000	97.058443 
1746.000000	97.060962 
1745.000000	97.063035 
1744.000000	97.064710 
1743.000000	97.065670 
1742.000000	97.066087 
1741.000000	97.066912 
1740.000000	97.068544 
1739.000000	97.070394 
1738.000000	97.072251 
1737.000000	97.074636 
1736.000000	97.076861 
1735.000000	97.076638 
1734.000000	97.074061 
1733.000000	97.072010 
1732.000000	97.072330 
1731.000000	97.074551 
1730.000000	97.077037 
1729.000000	97.078248 
1728.000000	97.078150 
1727.000000	97.077792 
1726.000000	97.077835 
1725.000000	97.078789 
1724.000000	97.080060 
1723.000000	97.080251 
1722.000000	97.079670 
1721.000000	97.079407 
1720.000000	97.079213 
1719.000000	97.077403 
1718.000000	97.074781 
1717.000000	97.073922 
1716.000000	97.072540 
1715.000000	97.068309 
1714.000000	97.063657 
1713.000000	97.060939 
1712.000000	97.059065 
1711.000000	97.056734 
1710.000000	97.054364 
1709.000000	97.052401 
1708.000000	97.050503 
1707.000000	97.048275 
1706.000000	97.046177 
1705.000000	97.044127 
1704.000000	97.040093 
1703.000000	97.033332 
1702.000000	97.024975 
1701.000000	97.018709 
1700.000000	97.017607 
1699.000000	97.017452 
1698.000000	97.016738 
1697.000000	97.016418 
1696.000000	97.015255 
1695.000000	97.012662 
1694.000000	97.009580 
1693.000000	97.007093 
1692.000000	97.004903 
1691.000000	97.002015 
1690.000000	96.998129 
1689.000000	96.993601 
1688.000000	96.989305 
1687.000000	96.985531 
1686.000000	96.982169 
1685.000000	96.979902 
1684.000000	96.978576 
1683.000000	96.976361 
1682.000000	96.973040 
1681.000000	96.969463 
1680.000000	96.966632 
1679.000000	96.964920 
1678.000000	96.963744 
1677.000000	96.962351 
1676.000000	96.960655 
1675.000000	96.958867 
1674.000000	96.956307 
1673.000000	96.952945 
1672.000000	96.949581 
1671.000000	96.946607 
1670.000000	96.943939 
1669.000000	96.941461 
1668.000000	96.939752 
1667.000000	96.939034 
1666.000000	96.938367 
1665.000000	96.937134 
1664.000000	96.935687 
1663.000000	96.934768 
1662.000000	96.933783 
1661.000000	96.931493 
1660.000000	96.928778 
1659.000000	96.927011 
1658.000000	96.925779 
1657.000000	96.923880 
1656.000000	96.920995 
1655.000000	96.916806 
1654.000000	96.911680 
1653.000000	96.909424 
1652.000000	96.907742 
1651.000000	96.905507 
1650.000000	96.904454 
1649.000000	96.904955 
1648.000000	96.905707 
1647.000000	96.905757 
1646.000000	96.904330 
1645.000000	96.901290 
1644.000000	96.897543 
1643.000000	96.894403 
1642.000000	96.892603 
1641.000000	96.891579 
1640.000000	96.891156 
1639.000000	96.890270 
1638.000000	96.887859 
1637.000000	96.884094 
1636.000000	96.882111 
1635.000000	96.883305 
1634.000000	96.884516 
1633.000000	96.884703 
1632.000000	96.883705 
1631.000000	96.881971 
1630.000000	96.880419 
1629.000000	96.879768 
1628.000000	96.880113 
1627.000000	96.881082 
1626.000000	96.880960 
1625.000000	96.879085 
1624.000000	96.878411 
1623.000000	96.882018 
1622.000000	96.887029 
1621.000000	96.888338 
1620.000000	96.886654 
1619.000000	96.885067 
1618.000000	96.884661 
1617.000000	96.884458 
1616.000000	96.883862 
1615.000000	96.884357 
1614.000000	96.886467 
1613.000000	96.887913 
1612.000000	96.887147 
1611.000000	96.885769 
1610.000000	96.885120 
1609.000000	96.885642 
1608.000000	96.889483 
1607.000000	96.897828 
1606.000000	96.906438 
1605.000000	96.911397 
1604.000000	96.915813 
1603.000000	96.922625 
1602.000000	96.929012 
1601.000000	96.932103 
1600.000000	96.934986 
1599.000000	96.941775 
1598.000000	96.950611 
1597.000000	96.957025 
1596.000000	96.960554 
1595.000000	96.964528 
1594.000000	96.970694 
1593.000000	96.977476 
1592.000000	96.983261 
1591.000000	96.988035 
1590.000000	96.992231 
1589.000000	96.996749 
1588.000000	97.003569 
1587.000000	97.012726 
1586.000000	97.020504 
1585.000000	97.022808 
1584.000000	97.022455 
1583.000000	97.025397 
1582.000000	97.031396 
1581.000000	97.036740 
1580.000000	97.041483 
1579.000000	97.047233 
1578.000000	97.052261 
1577.000000	97.056161 
1576.000000	97.062351 
1575.000000	97.069874 
1574.000000	97.073790 
1573.000000	97.074200 
1572.000000	97.075599 
1571.000000	97.081068 
1570.000000	97.087573 
1569.000000	97.087015 
1568.000000	97.081098 
1567.000000	97.076770 
1566.000000	97.074158 
1565.000000	97.070557 
1564.000000	97.068521 
1563.000000	97.069009 
1562.000000	97.069142 
1561.000000	97.061988 
1560.000000	97.057129 
1559.000000	97.066327 
1558.000000	97.070387 
1557.000000	97.062992 
1556.000000	97.056959 
1555.000000	97.054310 
1554.000000	97.050793 
1553.000000	97.046284 
1552.000000	97.043089 
1551.000000	97.036775 
1550.000000	97.023548 
1549.000000	97.008109 
1548.000000	96.998087 
1547.000000	96.993635 
1546.000000	96.986249 
1545.000000	96.970137 
1544.000000	96.951405 
1543.000000	96.939261 
1542.000000	96.936318 
1541.000000	96.937425 
1540.000000	96.929751 
1539.000000	96.907896 
1538.000000	96.880744 
1537.000000	96.857196 
1536.000000	96.838866 
1535.000000	96.824607 
1534.000000	96.811312 
1533.000000	96.796269 
1532.000000	96.779582 
1531.000000	96.763307 
1530.000000	96.749371 
1529.000000	96.737302 
1528.000000	96.724339 
1527.000000	96.708939 
1526.000000	96.691769 
1525.000000	96.675276 
1524.000000	96.662160 
1523.000000	96.652062 
1522.000000	96.640147 
1521.000000	96.621053 
1520.000000	96.596583 
1519.000000	96.573257 
1518.000000	96.552599 
1517.000000	96.532083 
1516.000000	96.511314 
1515.000000	96.493683 
1514.000000	96.480902 
1513.000000	96.470876 
1512.000000	96.459358 
1511.000000	96.443123 
1510.000000	96.423039 
1509.000000	96.401094 
1508.000000	96.378804 
1507.000000	96.357613 
1506.000000	96.338644 
1505.000000	96.319048 
1504.000000	96.298732 
1503.000000	96.278701 
1502.000000	96.258545 
1501.000000	96.238656 
1500.000000	96.221135 
1499.000000	96.206283 
1498.000000	96.190698 
1497.000000	96.172173 
1496.000000	96.151754 
1495.000000	96.132766 
1494.000000	96.118353 
1493.000000	96.109135 
1492.000000	96.102599 
1491.000000	96.093815 
1490.000000	96.078688 
1489.000000	96.058046 
1488.000000	96.034662 
1487.000000	96.010808 
1486.000000	95.989238 
1485.000000	95.969027 
1484.000000	95.949552 
1483.000000	95.932177 
1482.000000	95.916753 
1481.000000	95.902744 
1480.000000	95.890129 
1479.000000	95.879297 
1478.000000	95.868356 
1477.000000	95.854052 
1476.000000	95.834679 
1475.000000	95.812616 
1474.000000	95.790966 
1473.000000	95.771379 
1472.000000	95.755347 
1471.000000	95.742294 
1470.000000	95.731063 
1469.000000	95.720909 
1468.000000	95.710420 
1467.000000	95.698804 
1466.000000	95.686748 
1465.000000	95.674840 
1464.000000	95.663776 
1463.000000	95.651874 
1462.000000	95.638122 
1461.000000	95.624718 
1460.000000	95.615419 
1459.000000	95.609812 
1458.000000	95.599161 
1457.000000	95.578016 
1456.000000	95.554577 
1455.000000	95.536519 
1454.000000	95.522637 
1453.000000	95.511846 
1452.000000	95.506415 
1451.000000	95.508097 
1450.000000	95.514999 
1449.000000	95.522768 
1448.000000	95.525679 
1447.000000	95.522476 
1446.000000	95.516317 
1445.000000	95.511478 
1444.000000	95.510497 
1443.000000	95.509748 
1442.000000	95.506082 
1441.000000	95.502130 
1440.000000	95.502768 
1439.000000	95.506241 
1438.000000	95.505271 
1437.000000	95.498251 
1436.000000	95.493181 
1435.000000	95.493717 
1434.000000	95.496804 
1433.000000	95.500778 
1432.000000	95.505498 
1431.000000	95.510610 
1430.000000	95.515266 
1429.000000	95.520467 
1428.000000	95.526700 
1427.000000	95.534658 
1426.000000	95.544967 
1425.000000	95.558417 
1424.000000	95.576609 
1423.000000	95.594984 
1422.000000	95.608274 
1421.000000	95.618698 
1420.000000	95.631994 
1419.000000	95.645621 
1418.000000	95.652750 
1417.000000	95.658983 
1416.000000	95.674582 
1415.000000	95.698673 
1414.000000	95.721809 
1413.000000	95.738888 
1412.000000	95.754248 
1411.000000	95.771937 
1410.000000	95.790244 
1409.000000	95.808675 
1408.000000	95.829110 
1407.000000	95.852037 
1406.000000	95.875029 
1405.000000	95.897036 
1404.000000	95.920962 
1403.000000	95.945821 
1402.000000	95.968694 
1401.000000	95.992070 
1400.000000	96.020780 
1399.000000	96.053077 
1398.000000	96.081387 
1397.000000	96.104534 
1396.000000	96.129204 
1395.000000	96.160304 
1394.000000	96.193613 
1393.000000	96.223989 
1392.000000	96.254051 
1391.000000	96.286482 
1390.000000	96.318838 
1389.000000	96.347030 
1388.000000	96.369140 
1387.000000	96.386353 
1386.000000	96.401794 
1385.000000	96.419346 
1384.000000	96.441856 
1383.000000	96.467411 
1382.000000	96.491428 
1381.000000	96.512026 
1380.000000	96.530442 
1379.000000	96.548859 
1378.000000	96.568826 
1377.000000	96.590785 
1376.000000	96.613284 
1375.000000	96.633456 
1374.000000	96.649564 
1373.000000	96.664181 
1372.000000	96.680818 
1371.000000	96.699817 
1370.000000	96.718057 
1369.000000	96.732472 
1368.000000	96.745075 
1367.000000	96.759936 
1366.000000	96.778376 
1365.000000	96.798375 
1364.000000	96.815165 
1363.000000	96.824239 
1362.000000	96.826880 
1361.000000	96.830132 
1360.000000	96.839765 
1359.000000	96.856264 
1358.000000	96.876432 
1357.000000	96.896685 
1356.000000	96.914656 
1355.000000	96.928893 
1354.000000	96.939378 
1353.000000	96.948920 
1352.000000	96.959510 
1351.000000	96.970921 
1350.000000	96.981502 
1349.000000	96.989646 
1348.000000	96.996336 
1347.000000	97.003604 
1346.000000	97.012390 
1345.000000	97.022457 
1344.000000	97.033668 
1343.000000	97.046015 
1342.000000	97.057999 
1341.000000	97.065787 
1340.000000	97.065947 
1339.000000	97.059792 
1338.000000	97.053067 
1337.000000	97.050918 
1336.000000	97.054168 
1335.000000	97.060153 
1334.000000	97.066055 
1333.000000	97.070764 
1332.000000	97.073827 
1331.000000	97.074988 
1330.000000	97.075028 
1329.000000	97.075943 
1328.000000	97.078812 
1327.000000	97.082679 
1326.000000	97.085393 
1325.000000	97.085516 
1324.000000	97.083756 
1323.000000	97.081170 
1322.000000	97.077870 
1321.000000	97.074240 
1320.000000	97.071893 
1319.000000	97.072049 
1318.000000	97.074183 
1317.000000	97.077284 
1316.000000	97.080756 
1315.000000	97.083269 
1314.000000	97.082766 
1313.000000	97.079414 
1312.000000	97.076454 
1311.000000	97.076533 
1310.000000	97.078551 
1309.000000	97.080045 
1308.000000	97.080524 
1307.000000	97.081241 
1306.000000	97.082555 
1305.000000	97.083763 
1304.000000	97.085226 
1303.000000	97.087369 
1302.000000	97.088633 
1301.000000	97.086899 
1300.000000	97.083140 
1299.000000	97.081170 
1298.000000	97.083041 
1297.000000	97.086186 
1296.000000	97.086366 
1295.000000	97.082684 
1294.000000	97.078473 
1293.000000	97.077571 
1292.000000	97.080128 
1291.000000	97.082419 
1290.000000	97.081066 
1289.000000	97.076916 
1288.000000	97.073860 
1287.000000	97.073912 
1286.000000	97.075108 
1285.000000	97.075120 
1284.000000	97.074870 
1283.000000	97.076370 
1282.000000	97.078595 
1281.000000	97.078068 
1280.000000	97.073741 
1279.000000	97.069041 
1278.000000	97.068298 
1277.000000	97.072330 
1276.000000	97.077963 
1275.000000	97.081172 
1274.000000	97.080208 
1273.000000	97.076630 
1272.000000	97.073731 
1271.000000	97.073305 
1270.000000	97.073992 
1269.000000	97.073486 
1268.000000	97.072059 
1267.000000	97.072119 
1266.000000	97.074441 
1265.000000	97.077194 
1264.000000	97.079110 
1263.000000	97.081370 
1262.000000	97.085233 
1261.000000	97.089183 
1260.000000	97.090547 
1259.000000	97.089177 
1258.000000	97.087330 
1257.000000	97.085882 
1256.000000	97.082481 
1255.000000	97.074978 
1254.000000	97.065826 
1253.000000	97.060669 
1252.000000	97.061712 
1251.000000	97.064224 
1250.000000	97.061117 
1249.000000	97.050005 
1248.000000	97.034210 
1247.000000	97.017691 
1246.000000	97.001686 
1245.000000	96.986675 
1244.000000	96.974341 
1243.000000	96.965452 
1242.000000	96.957702 
1241.000000	96.947962 
1240.000000	96.935695 
1239.000000	96.922287 
1238.000000	96.907854 
1237.000000	96.890676 
1236.000000	96.869639 
1235.000000	96.845728 
1234.000000	96.820925 
1233.000000	96.796330 
1232.000000	96.771188 
1231.000000	96.743247 
1230.000000	96.710734 
1229.000000	96.674247 
1228.000000	96.635246 
1227.000000	96.592224 
1226.000000	96.540361 
1225.000000	96.476166 
1224.000000	96.400670 
1223.000000	96.316600 
1222.000000	96.224523 
1221.000000	96.124176 
1220.000000	96.018008 
1219.000000	95.909979 
1218.000000	95.800973 
1217.000000	95.688265 
1216.000000	95.569213 
1215.000000	95.442842 
1214.000000	95.308801 
1213.000000	95.168566 
1212.000000	95.027199 
1211.000000	94.889469 
1210.000000	94.753907 
1209.000000	94.615127 
1208.000000	94.472568 
1207.000000	94.332047 
1206.000000	94.197397 
1205.000000	94.065253 
1204.000000	93.930107 
1203.000000	93.790488 
1202.000000	93.648531 
1201.000000	93.507157 
1200.000000	93.369350 
1199.000000	93.236773 
1198.000000	93.107310 
1197.000000	92.976910 
1196.000000	92.844612 
1195.000000	92.712859 
1194.000000	92.582813 
1193.000000	92.452772 
1192.000000	92.321156 
1191.000000	92.187138 
1190.000000	92.048510 
1189.000000	91.903279 
1188.000000	91.753429 
1187.000000	91.602858 
1186.000000	91.451730 
1185.000000	91.297281 
1184.000000	91.139503 
1183.000000	90.980782 
1182.000000	90.820321 
1181.000000	90.654344 
1180.000000	90.481423 
1179.000000	90.301798 
1178.000000	90.112137 
1177.000000	89.908007 
1176.000000	89.691797 
1175.000000	89.471452 
1174.000000	89.250942 
1173.000000	89.028685 
1172.000000	88.805187 
1171.000000	88.583661 
1170.000000	88.362561 
1169.000000	88.136989 
1168.000000	87.909703 
1167.000000	87.692681 
1166.000000	87.497312 
1165.000000	87.333173 
1164.000000	87.217163 
1163.000000	87.170419 
1162.000000	87.199765 
1161.000000	87.288792 
1160.000000	87.408272 
1159.000000	87.527144 
1158.000000	87.614717 
1157.000000	87.646535 
1156.000000	87.614873 
1155.000000	87.528121 
1154.000000	87.398538 
1153.000000	87.236728 
1152.000000	87.057279 
1151.000000	86.878169 
1150.000000	86.709156 
1149.000000	86.547885 
1148.000000	86.390047 
1147.000000	86.235024 
1146.000000	86.079905 
1145.000000	85.918491 
1144.000000	85.750423 
1143.000000	85.582934 
1142.000000	85.420342 
1141.000000	85.259868 
1140.000000	85.099469 
1139.000000	84.940262 
1138.000000	84.779538 
1137.000000	84.611873 
1136.000000	84.439398 
1135.000000	84.270481 
1134.000000	84.106121 
1133.000000	83.938646 
1132.000000	83.765741 
1131.000000	83.593616 
1130.000000	83.423883 
1129.000000	83.250196 
1128.000000	83.071329 
1127.000000	82.894575 
1126.000000	82.722087 
1125.000000	82.546740 
1124.000000	82.366044 
1123.000000	82.187262 
1122.000000	82.013819 
1121.000000	81.839417 
1120.000000	81.660782 
1119.000000	81.483340 
1118.000000	81.309250 
1117.000000	81.133461 
1116.000000	80.956470 
1115.000000	80.786788 
1114.000000	80.625648 
1113.000000	80.463827 
1112.000000	80.298577 
1111.000000	80.137934 
1110.000000	79.983204 
1109.000000	79.824193 
1108.000000	79.656986 
1107.000000	79.490042 
1106.000000	79.327816 
1105.000000	79.164639 
1104.000000	78.999519 
1103.000000	78.840480 
1102.000000	78.688430 
1101.000000	78.533886 
1100.000000	78.373800 
1099.000000	78.215970 
1098.000000	78.063255 
1097.000000	77.909745 
1096.000000	77.756796 
1095.000000	77.614322 
1094.000000	77.482364 
1093.000000	77.350202 
1092.000000	77.218177 
1091.000000	77.100773 
1090.000000	77.002838 
1089.000000	76.911997 
1088.000000	76.819736 
1087.000000	76.731024 
1086.000000	76.648619 
1085.000000	76.567993 
1084.000000	76.492662 
1083.000000	76.433800 
1082.000000	76.388902 
1081.000000	76.341143 
1080.000000	76.285648 
1079.000000	76.236042 
1078.000000	76.199212 
1077.000000	76.164164 
1076.000000	76.121916 
1075.000000	76.074851 
1074.000000	76.019231 
1073.000000	75.939438 
1072.000000	75.827659 
1071.000000	75.690678 
1070.000000	75.530724 
1069.000000	75.338113 
1068.000000	75.109914 
1067.000000	74.858314 
1066.000000	74.594147 
1065.000000	74.319517 
1064.000000	74.042102 
1063.000000	73.776720 
1062.000000	73.525483 
1061.000000	73.275748 
1060.000000	73.024491 
1059.000000	72.785629 
1058.000000	72.567586 
1057.000000	72.363490 
1056.000000	72.168594 
1055.000000	71.986018 
1054.000000	71.809319 
1053.000000	71.621464 
1052.000000	71.419324 
1051.000000	71.218083 
1050.000000	71.023463 
1049.000000	70.822798 
1048.000000	70.610125 
1047.000000	70.394232 
1046.000000	70.176982 
1045.000000	69.949501 
1044.000000	69.713212 
1043.000000	69.480110 
1042.000000	69.249377 
1041.000000	69.008171 
1040.000000	68.758916 
1039.000000	68.520515 
1038.000000	68.298938 
1037.000000	68.083164 
1036.000000	67.873975 
1035.000000	67.688209 
1034.000000	67.528635 
1033.000000	67.378237 
1032.000000	67.231176 
1031.000000	67.101781 
1030.000000	66.996016 
1029.000000	66.902237 
1028.000000	66.816932 
1027.000000	66.750818 
1026.000000	66.701460 
1025.000000	66.648678 
1024.000000	66.586157 
1023.000000	66.530196 
1022.000000	66.488399 
1021.000000	66.446686 
1020.000000	66.395240 
1019.000000	66.340837 
1018.000000	66.285933 
1017.000000	66.222517 
1016.000000	66.154335 
1015.000000	66.098549 
1014.000000	66.057583 
1013.000000	66.014899 
1012.000000	65.964820 
1011.000000	65.920063 
1010.000000	65.884241 
1009.000000	65.845380 
1008.000000	65.803553 
1007.000000	65.776583 
1006.000000	65.770429 
1005.000000	65.770998 
1004.000000	65.771999 
1003.000000	65.783213 
1002.000000	65.804243 
1001.000000	65.819074 
1000.000000	65.825349 
999.000000	 65.841256 
998.000000	 65.874506 
997.000000	 65.911525 
996.000000	 65.945568 
995.000000	 65.988594 
994.000000	 66.046253 
993.000000	 66.107459 
992.000000	 66.167477 
991.000000	 66.235996 
990.000000	 66.314642 
989.000000	 66.392369 
988.000000	 66.470459 
987.000000	 66.565784 
986.000000	 66.682102 
985.000000	 66.804775 
984.000000	 66.930880 
983.000000	 67.076927 
982.000000	 67.248364 
981.000000	 67.429042 
980.000000	 67.610292 
979.000000	 67.804012 
978.000000	 68.017033 
977.000000	 68.238836 
976.000000	 68.464902 
975.000000	 68.707455 
974.000000	 68.972326 
973.000000	 69.248328 
972.000000	 69.529039 
971.000000	 69.822719 
970.000000	 70.131647 
969.000000	 70.443513 
968.000000	 70.751785 
967.000000	 71.063761 
966.000000	 71.381241 
965.000000	 71.694508 
964.000000	 72.002329 
963.000000	 72.316629 
962.000000	 72.640269 
961.000000	 72.960538 
960.000000	 73.270501 
959.000000	 73.575856 
958.000000	 73.875314 
957.000000	 74.156752 
956.000000	 74.420227 
955.000000	 74.683466 
954.000000	 74.955918 
953.000000	 75.226501 
952.000000	 75.484765 
951.000000	 75.734662 
950.000000	 75.979719 
949.000000	 76.213350 
948.000000	 76.432115 
947.000000	 76.641592 
946.000000	 76.842093 
945.000000	 77.025237 
944.000000	 77.191097 
943.000000	 77.352658 
942.000000	 77.517640 
941.000000	 77.681930 
940.000000	 77.845430 
939.000000	 78.016132 
938.000000	 78.192995 
937.000000	 78.363367 
936.000000	 78.524176 
935.000000	 78.688347 
934.000000	 78.863673 
933.000000	 79.042476 
932.000000	 79.218932 
931.000000	 79.399112 
930.000000	 79.586009 
929.000000	 79.770847 
928.000000	 79.947790 
927.000000	 80.122928 
926.000000	 80.300898 
925.000000	 80.475463 
924.000000	 80.640197 
923.000000	 80.796920 
922.000000	 80.948699 
921.000000	 81.096396 
920.000000	 81.245774 
919.000000	 81.404905 
918.000000	 81.569982 
917.000000	 81.725950 
916.000000	 81.865793 
915.000000	 81.998795 
914.000000	 82.137501 
913.000000	 82.287895 
912.000000	 82.453727 
911.000000	 82.637535 
910.000000	 82.835010 
909.000000	 83.040204 
908.000000	 83.256826 
907.000000	 83.492861 
906.000000	 83.746092 
905.000000	 84.008281 
904.000000	 84.280801 
903.000000	 84.570561 
902.000000	 84.872598 
901.000000	 85.173080 
900.000000	 85.468258 
899.000000	 85.764093 
898.000000	 86.058746 
897.000000	 86.342509 
896.000000	 86.614315 
895.000000	 86.881431 
894.000000	 87.142820 
893.000000	 87.389635 
892.000000	 87.622804 
891.000000	 87.853162 
890.000000	 88.081402 
889.000000	 88.292499 
888.000000	 88.472739 
887.000000	 88.620268 
886.000000	 88.739260 
885.000000	 88.836728 
884.000000	 88.924606 
883.000000	 89.011393 
882.000000	 89.092394 
881.000000	 89.161978 
880.000000	 89.232762 
879.000000	 89.326014 
878.000000	 89.445956 
877.000000	 89.582955 
876.000000	 89.739602 
875.000000	 89.931139 
874.000000	 90.160658 
873.000000	 90.417241 
872.000000	 90.698817 
871.000000	 91.011950 
870.000000	 91.345762 
869.000000	 91.669826 
868.000000	 91.964138 
867.000000	 92.233062 
866.000000	 92.487162 
865.000000	 92.730102 
864.000000	 92.967107 
863.000000	 93.207516 
862.000000	 93.451334 
861.000000	 93.687143 
860.000000	 93.908606 
859.000000	 94.120530 
858.000000	 94.325664 
857.000000	 94.519018 
856.000000	 94.698724 
855.000000	 94.869527 
854.000000	 95.032016 
853.000000	 95.180541 
852.000000	 95.314700 
851.000000	 95.441642 
850.000000	 95.565433 
849.000000	 95.685390 
848.000000	 95.804600 
847.000000	 95.926454 
846.000000	 96.042455 
845.000000	 96.138106 
844.000000	 96.212110 
843.000000	 96.275835 
842.000000	 96.333191 
841.000000	 96.375880 
840.000000	 96.399764 
839.000000	 96.410392 
838.000000	 96.410507 
837.000000	 96.397706 
836.000000	 96.377116 
835.000000	 96.360625 
834.000000	 96.349526 
833.000000	 96.333377 
832.000000	 96.311137 
831.000000	 96.298654 
830.000000	 96.309259 
829.000000	 96.340613 
828.000000	 96.386029 
827.000000	 96.443568 
826.000000	 96.507771 
825.000000	 96.568076 
824.000000	 96.621219 
823.000000	 96.669627 
822.000000	 96.705900 
821.000000	 96.718447 
820.000000	 96.712118 
819.000000	 96.700485 
818.000000	 96.675868 
817.000000	 96.608183 
816.000000	 96.477307 
815.000000	 96.287598 
814.000000	 96.045414 
813.000000	 95.741340 
812.000000	 95.362499 
811.000000	 94.902796 
810.000000	 94.349215 
809.000000	 93.676743 
808.000000	 92.874050 
807.000000	 91.963277 
806.000000	 90.982284 
805.000000	 89.960657 
804.000000	 88.926281 
803.000000	 87.918185 
802.000000	 86.974497 
801.000000	 86.121809 
800.000000	 85.390442 
799.000000	 84.820263 
798.000000	 84.433299 
797.000000	 84.216859 
796.000000	 84.145023 
795.000000	 84.195352 
794.000000	 84.334668 
793.000000	 84.515446 
792.000000	 84.702292 
791.000000	 84.881984 
790.000000	 85.037461 
789.000000	 85.134976 
788.000000	 85.148481 
787.000000	 85.075228 
786.000000	 84.916658 
785.000000	 84.666382 
784.000000	 84.330818 
783.000000	 83.941363 
782.000000	 83.532499 
781.000000	 83.128169 
780.000000	 82.761988 
779.000000	 82.485450 
778.000000	 82.336336 
777.000000	 82.317584 
776.000000	 82.420000 
775.000000	 82.640822 
774.000000	 82.963398 
773.000000	 83.343558 
772.000000	 83.737550 
771.000000	 84.127560 
770.000000	 84.506321 
769.000000	 84.856807 
768.000000	 85.163373 
767.000000	 85.426668 
766.000000	 85.653710 
765.000000	 85.849169 
764.000000	 86.028377 
763.000000	 86.219792 
762.000000	 86.437977 
761.000000	 86.668884 
760.000000	 86.895485 
759.000000	 87.121436 
758.000000	 87.355250 
757.000000	 87.589596 
756.000000	 87.815014 
755.000000	 88.039276 
754.000000	 88.272547 
753.000000	 88.503220 
752.000000	 88.707955 
751.000000	 88.880474 
750.000000	 89.036169 
749.000000	 89.193746 
748.000000	 89.363929 
747.000000	 89.549392 
746.000000	 89.743573 
745.000000	 89.934224 
744.000000	 90.118071 
743.000000	 90.307860 
742.000000	 90.517666 
741.000000	 90.746639 
740.000000	 90.982993 
739.000000	 91.216390 
738.000000	 91.440137 
737.000000	 91.649267 
736.000000	 91.843239 
735.000000	 92.025158 
734.000000	 92.194483 
733.000000	 92.346458 
732.000000	 92.480198 
731.000000	 92.598987 
730.000000	 92.700484 
729.000000	 92.776632 
728.000000	 92.830608 
727.000000	 92.883073 
726.000000	 92.953698 
725.000000	 93.047407 
724.000000	 93.161588 
723.000000	 93.293179 
722.000000	 93.433982 
721.000000	 93.572781 
720.000000	 93.708816 
719.000000	 93.849350 
718.000000	 93.990248 
717.000000	 94.116991 
716.000000	 94.227877 
715.000000	 94.338713 
714.000000	 94.457650 
713.000000	 94.571625 
712.000000	 94.670091 
711.000000	 94.764839 
710.000000	 94.870695 
709.000000	 94.981016 
708.000000	 95.076513 
707.000000	 95.148631 
706.000000	 95.194682 
705.000000	 95.201000 
704.000000	 95.149712 
703.000000	 95.032100 
702.000000	 94.841247 
701.000000	 94.556622 
700.000000	 94.152148 
699.000000	 93.627031 
698.000000	 93.023178 
697.000000	 92.421904 
696.000000	 91.927185 
695.000000	 91.628610 
694.000000	 91.562969 
693.000000	 91.703946 
692.000000	 91.988014 
691.000000	 92.351933 
690.000000	 92.746824 
689.000000	 93.136215 
688.000000	 93.495667 
687.000000	 93.810627 
686.000000	 94.073413 
685.000000	 94.284282 
684.000000	 94.455544 
683.000000	 94.607717 
682.000000	 94.753390 
681.000000	 94.892526 
680.000000	 95.023177 
679.000000	 95.151446 
678.000000	 95.279390 
677.000000	 95.399062 
676.000000	 95.519747 
675.000000	 95.662034 
674.000000	 95.825106 
673.000000	 95.986849 
672.000000	 96.138906 
671.000000	 96.320503 
670.000000	 96.586992 
669.000000	 96.949793 
668.000000	 97.229613 
667.000000	 97.217720 
666.000000	 97.044241 
665.000000	 96.905208 
664.000000	 96.842385 
663.000000	 96.853094 
662.000000	 96.915212 
661.000000	 96.986057 
660.000000	 97.044827 
659.000000	 97.104951 
658.000000	 97.168224 
657.000000	 97.198376 
656.000000	 97.180379 
655.000000	 97.143098 
654.000000	 97.109191 
653.000000	 97.066002 
652.000000	 97.011603 
651.000000	 96.987245 
650.000000	 97.025431 

