4000.000000	96.840115 
3999.000000	96.839497 
3998.000000	96.838341 
3997.000000	96.836834 
3996.000000	96.835408 
3995.000000	96.834556 
3994.000000	96.834539 
3993.000000	96.835098 
3992.000000	96.835524 
3991.000000	96.835218 
3990.000000	96.834202 
3989.000000	96.832971 
3988.000000	96.831913 
3987.000000	96.831157 
3986.000000	96.830932 
3985.000000	96.831598 
3984.000000	96.833126 
3983.000000	96.834790 
3982.000000	96.835837 
3981.000000	96.836154 
3980.000000	96.835960 
3979.000000	96.835139 
3978.000000	96.833417 
3977.000000	96.831117 
3976.000000	96.829204 
3975.000000	96.828272 
3974.000000	96.828010 
3973.000000	96.827732 
3972.000000	96.827043 
3971.000000	96.825958 
3970.000000	96.824699 
3969.000000	96.823682 
3968.000000	96.823312 
3967.000000	96.823659 
3966.000000	96.824327 
3965.000000	96.824602 
3964.000000	96.823783 
3963.000000	96.821607 
3962.000000	96.818602 
3961.000000	96.815926 
3960.000000	96.814385 
3959.000000	96.813850 
3958.000000	96.813729 
3957.000000	96.813822 
3956.000000	96.814149 
3955.000000	96.814326 
3954.000000	96.813742 
3953.000000	96.812171 
3952.000000	96.809981 
3951.000000	96.807656 
3950.000000	96.805436 
3949.000000	96.803370 
3948.000000	96.801532 
3947.000000	96.800192 
3946.000000	96.799564 
3945.000000	96.799331 
3944.000000	96.798748 
3943.000000	96.797642 
3942.000000	96.796876 
3941.000000	96.797291 
3940.000000	96.798560 
3939.000000	96.799503 
3938.000000	96.799360 
3937.000000	96.798646 
3936.000000	96.798041 
3935.000000	96.797026 
3934.000000	96.794606 
3933.000000	96.790997 
3932.000000	96.787890 
3931.000000	96.786253 
3930.000000	96.785551 
3929.000000	96.785385 
3928.000000	96.786222 
3927.000000	96.787986 
3926.000000	96.788906 
3925.000000	96.787806 
3924.000000	96.786104 
3923.000000	96.785540 
3922.000000	96.785557 
3921.000000	96.784754 
3920.000000	96.783310 
3919.000000	96.782452 
3918.000000	96.782064 
3917.000000	96.781168 
3916.000000	96.780010 
3915.000000	96.779812 
3914.000000	96.780619 
3913.000000	96.781380 
3912.000000	96.781423 
3911.000000	96.781115 
3910.000000	96.780630 
3909.000000	96.779812 
3908.000000	96.778602 
3907.000000	96.777153 
3906.000000	96.775327 
3905.000000	96.772886 
3904.000000	96.770254 
3903.000000	96.768256 
3902.000000	96.767212 
3901.000000	96.766797 
3900.000000	96.766576 
3899.000000	96.766407 
3898.000000	96.766213 
3897.000000	96.765832 
3896.000000	96.765232 
3895.000000	96.764556 
3894.000000	96.763896 
3893.000000	96.763257 
3892.000000	96.762628 
3891.000000	96.761992 
3890.000000	96.761342 
3889.000000	96.760685 
3888.000000	96.760022 
3887.000000	96.759349 
3886.000000	96.758665 
3885.000000	96.757978 
3884.000000	96.757293 
3883.000000	96.756607 
3882.000000	96.755917 
3881.000000	96.755235 
3880.000000	96.754585 
3879.000000	96.753980 
3878.000000	96.753412 
3877.000000	96.752860 
3876.000000	96.752311 
3875.000000	96.751762 
3874.000000	96.751225 
3873.000000	96.750713 
3872.000000	96.750226 
3871.000000	96.749759 
3870.000000	96.749323 
3869.000000	96.748945 
3868.000000	96.748637 
3867.000000	96.748381 
3866.000000	96.748155 
3865.000000	96.747959 
3864.000000	96.747807 
3863.000000	96.747693 
3862.000000	96.747587 
3861.000000	96.747470 
3860.000000	96.747335 
3859.000000	96.747179 
3858.000000	96.746996 
3857.000000	96.746785 
3856.000000	96.746561 
3855.000000	96.746334 
3854.000000	96.746118 
3853.000000	96.745924 
3852.000000	96.745753 
3851.000000	96.745598 
3850.000000	96.745455 
3849.000000	96.745328 
3848.000000	96.745220 
3847.000000	96.745127 
3846.000000	96.745036 
3845.000000	96.744940 
3844.000000	96.744835 
3843.000000	96.744730 
3842.000000	96.744638 
3841.000000	96.744574 
3840.000000	96.744542 
3839.000000	96.744537 
3838.000000	96.744549 
3837.000000	96.744572 
3836.000000	96.744615 
3835.000000	96.744689 
3834.000000	96.744805 
3833.000000	96.744964 
3832.000000	96.745157 
3831.000000	96.745371 
3830.000000	96.745590 
3829.000000	96.745804 
3828.000000	96.746006 
3827.000000	96.746187 
3826.000000	96.746338 
3825.000000	96.746461 
3824.000000	96.746560 
3823.000000	96.746635 
3822.000000	96.746683 
3821.000000	96.746716 
3820.000000	96.746766 
3819.000000	96.746854 
3818.000000	96.746974 
3817.000000	96.747108 
3816.000000	96.747250 
3815.000000	96.747407 
3814.000000	96.747573 
3813.000000	96.747726 
3812.000000	96.747856 
3811.000000	96.747976 
3810.000000	96.748105 
3809.000000	96.748245 
3808.000000	96.748382 
3807.000000	96.748501 
3806.000000	96.748613 
3805.000000	96.748734 
3804.000000	96.748877 
3803.000000	96.749043 
3802.000000	96.749232 
3801.000000	96.749452 
3800.000000	96.749696 
3799.000000	96.749937 
3798.000000	96.750152 
3797.000000	96.750338 
3796.000000	96.750503 
3795.000000	96.750643 
3794.000000	96.750731 
3793.000000	96.750747 
3792.000000	96.750683 
3791.000000	96.750538 
3790.000000	96.750308 
3789.000000	96.749998 
3788.000000	96.749621 
3787.000000	96.749190 
3786.000000	96.748715 
3785.000000	96.748204 
3784.000000	96.747670 
3783.000000	96.747115 
3782.000000	96.746536 
3781.000000	96.745934 
3780.000000	96.745323 
3779.000000	96.744715 
3778.000000	96.744105 
3777.000000	96.743465 
3776.000000	96.742754 
3775.000000	96.741975 
3774.000000	96.741169 
3773.000000	96.740387 
3772.000000	96.739636 
3771.000000	96.738880 
3770.000000	96.738118 
3769.000000	96.737427 
3768.000000	96.736808 
3767.000000	96.736113 
3766.000000	96.735221 
3765.000000	96.734204 
3764.000000	96.733296 
3763.000000	96.732600 
3762.000000	96.731923 
3761.000000	96.731033 
3760.000000	96.730031 
3759.000000	96.729192 
3758.000000	96.728295 
3757.000000	96.726949 
3756.000000	96.725325 
3755.000000	96.723877 
3754.000000	96.722580 
3753.000000	96.721094 
3752.000000	96.719814 
3751.000000	96.719259 
3750.000000	96.718555 
3749.000000	96.716864 
3748.000000	96.715334 
3747.000000	96.715300 
3746.000000	96.715799 
3745.000000	96.714756 
3744.000000	96.713326 
3743.000000	96.713471 
3742.000000	96.714020 
3741.000000	96.712991 
3740.000000	96.710662 
3739.000000	96.709610 
3738.000000	96.710751 
3737.000000	96.711350 
3736.000000	96.709466 
3735.000000	96.707682 
3734.000000	96.708989 
3733.000000	96.711706 
3732.000000	96.712776 
3731.000000	96.712261 
3730.000000	96.711742 
3729.000000	96.711073 
3728.000000	96.708480 
3727.000000	96.703910 
3726.000000	96.700548 
3725.000000	96.700355 
3724.000000	96.701319 
3723.000000	96.701117 
3722.000000	96.700323 
3721.000000	96.700043 
3720.000000	96.699276 
3719.000000	96.696763 
3718.000000	96.692132 
3717.000000	96.686812 
3716.000000	96.682878 
3715.000000	96.679821 
3714.000000	96.675268 
3713.000000	96.669389 
3712.000000	96.666341 
3711.000000	96.668192 
3710.000000	96.670915 
3709.000000	96.670188 
3708.000000	96.665227 
3707.000000	96.657875 
3706.000000	96.650990 
3705.000000	96.646179 
3704.000000	96.642426 
3703.000000	96.637070 
3702.000000	96.628104 
3701.000000	96.615782 
3700.000000	96.602615 
3699.000000	96.591604 
3698.000000	96.583144 
3697.000000	96.576037 
3696.000000	96.571268 
3695.000000	96.569185 
3694.000000	96.566230 
3693.000000	96.559709 
3692.000000	96.552881 
3691.000000	96.551216 
3690.000000	96.553848 
3689.000000	96.554789 
3688.000000	96.551143 
3687.000000	96.545558 
3686.000000	96.540392 
3685.000000	96.533697 
3684.000000	96.524100 
3683.000000	96.515292 
3682.000000	96.510117 
3681.000000	96.503414 
3680.000000	96.489996 
3679.000000	96.474514 
3678.000000	96.465349 
3677.000000	96.458054 
3676.000000	96.443302 
3675.000000	96.425663 
3674.000000	96.413555 
3673.000000	96.406464 
3672.000000	96.397143 
3671.000000	96.381445 
3670.000000	96.367443 
3669.000000	96.362296 
3668.000000	96.358906 
3667.000000	96.350014 
3666.000000	96.338546 
3665.000000	96.330391 
3664.000000	96.326487 
3663.000000	96.322497 
3662.000000	96.313096 
3661.000000	96.296888 
3660.000000	96.277816 
3659.000000	96.260014 
3658.000000	96.243597 
3657.000000	96.224501 
3656.000000	96.202441 
3655.000000	96.182310 
3654.000000	96.167229 
3653.000000	96.154334 
3652.000000	96.136584 
3651.000000	96.111897 
3650.000000	96.088459 
3649.000000	96.072303 
3648.000000	96.059636 
3647.000000	96.048704 
3646.000000	96.043098 
3645.000000	96.043624 
3644.000000	96.045885 
3643.000000	96.045448 
3642.000000	96.041100 
3641.000000	96.033932 
3640.000000	96.023407 
3639.000000	96.007966 
3638.000000	95.990106 
3637.000000	95.974767 
3636.000000	95.962275 
3635.000000	95.946503 
3634.000000	95.925384 
3633.000000	95.906367 
3632.000000	95.895848 
3631.000000	95.886490 
3630.000000	95.864202 
3629.000000	95.833960 
3628.000000	95.814442 
3627.000000	95.808703 
3626.000000	95.807588 
3625.000000	95.806643 
3624.000000	95.808571 
3623.000000	95.816769 
3622.000000	95.827400 
3621.000000	95.829953 
3620.000000	95.818236 
3619.000000	95.796892 
3618.000000	95.774632 
3617.000000	95.758755 
3616.000000	95.754891 
3615.000000	95.763620 
3614.000000	95.781122 
3613.000000	95.803535 
3612.000000	95.827484 
3611.000000	95.847769 
3610.000000	95.859315 
3609.000000	95.862495 
3608.000000	95.863729 
3607.000000	95.868326 
3606.000000	95.875549 
3605.000000	95.883588 
3604.000000	95.893567 
3603.000000	95.906974 
3602.000000	95.921929 
3601.000000	95.933290 
3600.000000	95.938469 
3599.000000	95.938246 
3598.000000	95.934343 
3597.000000	95.928782 
3596.000000	95.924457 
3595.000000	95.921960 
3594.000000	95.920468 
3593.000000	95.919599 
3592.000000	95.919917 
3591.000000	95.921499 
3590.000000	95.921496 
3589.000000	95.916272 
3588.000000	95.907708 
3587.000000	95.902962 
3586.000000	95.905595 
3585.000000	95.913290 
3584.000000	95.922951 
3583.000000	95.933023 
3582.000000	95.942789 
3581.000000	95.950816 
3580.000000	95.955714 
3579.000000	95.957053 
3578.000000	95.955719 
3577.000000	95.953376 
3576.000000	95.951463 
3575.000000	95.950186 
3574.000000	95.948495 
3573.000000	95.945707 
3572.000000	95.941980 
3571.000000	95.937924 
3570.000000	95.932845 
3569.000000	95.924602 
3568.000000	95.913741 
3567.000000	95.905669 
3566.000000	95.904283 
3565.000000	95.907856 
3564.000000	95.912917 
3563.000000	95.917715 
3562.000000	95.922035 
3561.000000	95.925936 
3560.000000	95.929121 
3559.000000	95.931397 
3558.000000	95.932774 
3557.000000	95.933413 
3556.000000	95.933456 
3555.000000	95.932958 
3554.000000	95.931716 
3553.000000	95.929651 
3552.000000	95.927158 
3551.000000	95.924672 
3550.000000	95.922368 
3549.000000	95.920505 
3548.000000	95.919692 
3547.000000	95.920159 
3546.000000	95.920863 
3545.000000	95.920571 
3544.000000	95.919789 
3543.000000	95.920149 
3542.000000	95.922101 
3541.000000	95.924704 
3540.000000	95.927150 
3539.000000	95.929311 
3538.000000	95.930906 
3537.000000	95.931342 
3536.000000	95.930609 
3535.000000	95.929324 
3534.000000	95.928171 
3533.000000	95.927489 
3532.000000	95.927579 
3531.000000	95.928665 
3530.000000	95.930393 
3529.000000	95.931760 
3528.000000	95.931937 
3527.000000	95.930970 
3526.000000	95.929521 
3525.000000	95.928339 
3524.000000	95.927970 
3523.000000	95.928652 
3522.000000	95.930115 
3521.000000	95.931669 
3520.000000	95.932719 
3519.000000	95.933189 
3518.000000	95.933418 
3517.000000	95.933654 
3516.000000	95.933777 
3515.000000	95.933591 
3514.000000	95.933262 
3513.000000	95.933112 
3512.000000	95.933041 
3511.000000	95.932523 
3510.000000	95.931300 
3509.000000	95.929858 
3508.000000	95.929044 
3507.000000	95.929241 
3506.000000	95.930062 
3505.000000	95.930785 
3504.000000	95.931168 
3503.000000	95.931612 
3502.000000	95.932512 
3501.000000	95.933649 
3500.000000	95.934375 
3499.000000	95.934297 
3498.000000	95.933676 
3497.000000	95.933207 
3496.000000	95.933276 
3495.000000	95.933559 
3494.000000	95.933498 
3493.000000	95.932990 
3492.000000	95.932255 
3491.000000	95.931315 
3490.000000	95.930162 
3489.000000	95.929205 
3488.000000	95.928961 
3487.000000	95.929225 
3486.000000	95.929086 
3485.000000	95.928012 
3484.000000	95.926439 
3483.000000	95.925063 
3482.000000	95.924123 
3481.000000	95.923670 
3480.000000	95.923971 
3479.000000	95.925063 
3478.000000	95.926206 
3477.000000	95.926312 
3476.000000	95.924889 
3475.000000	95.922302 
3474.000000	95.919316 
3473.000000	95.916679 
3472.000000	95.914885 
3471.000000	95.913920 
3470.000000	95.913308 
3469.000000	95.912573 
3468.000000	95.911614 
3467.000000	95.910634 
3466.000000	95.909751 
3465.000000	95.908758 
3464.000000	95.907271 
3463.000000	95.905077 
3462.000000	95.902354 
3461.000000	95.899587 
3460.000000	95.897181 
3459.000000	95.895102 
3458.000000	95.893023 
3457.000000	95.890758 
3456.000000	95.888529 
3455.000000	95.886748 
3454.000000	95.885667 
3453.000000	95.885179 
3452.000000	95.885041 
3451.000000	95.885029 
3450.000000	95.884791 
3449.000000	95.883784 
3448.000000	95.881630 
3447.000000	95.878570 
3446.000000	95.875349 
3445.000000	95.872646 
3444.000000	95.870673 
3443.000000	95.869267 
3442.000000	95.868076 
3441.000000	95.866677 
3440.000000	95.864801 
3439.000000	95.862568 
3438.000000	95.860453 
3437.000000	95.858861 
3436.000000	95.857791 
3435.000000	95.856966 
3434.000000	95.856163 
3433.000000	95.855285 
3432.000000	95.854294 
3431.000000	95.853158 
3430.000000	95.851855 
3429.000000	95.850377 
3428.000000	95.848688 
3427.000000	95.846791 
3426.000000	95.844883 
3425.000000	95.843370 
3424.000000	95.842543 
3423.000000	95.842193 
3422.000000	95.841682 
3421.000000	95.840582 
3420.000000	95.839107 
3419.000000	95.837833 
3418.000000	95.837062 
3417.000000	95.836631 
3416.000000	95.836213 
3415.000000	95.835570 
3414.000000	95.834526 
3413.000000	95.832967 
3412.000000	95.831021 
3411.000000	95.829129 
3410.000000	95.827760 
3409.000000	95.827120 
3408.000000	95.827085 
3407.000000	95.827302 
3406.000000	95.827361 
3405.000000	95.827061 
3404.000000	95.826550 
3403.000000	95.826145 
3402.000000	95.825976 
3401.000000	95.825870 
3400.000000	95.825583 
3399.000000	95.825011 
3398.000000	95.824165 
3397.000000	95.823122 
3396.000000	95.822048 
3395.000000	95.821188 
3394.000000	95.820672 
3393.000000	95.820349 
3392.000000	95.819883 
3391.000000	95.819107 
3390.000000	95.818317 
3389.000000	95.818137 
3388.000000	95.818988 
3387.000000	95.820666 
3386.000000	95.822420 
3385.000000	95.823472 
3384.000000	95.823511 
3383.000000	95.822770 
3382.000000	95.821922 
3381.000000	95.821693 
3380.000000	95.822250 
3379.000000	95.822977 
3378.000000	95.823169 
3377.000000	95.823059 
3376.000000	95.823626 
3375.000000	95.825233 
3374.000000	95.826908 
3373.000000	95.827386 
3372.000000	95.826563 
3371.000000	95.825573 
3370.000000	95.825564 
3369.000000	95.826659 
3368.000000	95.828055 
3367.000000	95.828734 
3366.000000	95.828150 
3365.000000	95.826585 
3364.000000	95.825037 
3363.000000	95.824530 
3362.000000	95.825358 
3361.000000	95.826998 
3360.000000	95.828717 
3359.000000	95.830187 
3358.000000	95.831525 
3357.000000	95.832948 
3356.000000	95.834518 
3355.000000	95.836216 
3354.000000	95.838203 
3353.000000	95.840866 
3352.000000	95.844406 
3351.000000	95.848344 
3350.000000	95.851614 
3349.000000	95.853350 
3348.000000	95.853657 
3347.000000	95.853630 
3346.000000	95.854438 
3345.000000	95.856160 
3344.000000	95.857552 
3343.000000	95.857218 
3342.000000	95.855175 
3341.000000	95.853189 
3340.000000	95.853061 
3339.000000	95.854756 
3338.000000	95.856674 
3337.000000	95.857535 
3336.000000	95.857608 
3335.000000	95.857959 
3334.000000	95.859083 
3333.000000	95.860665 
3332.000000	95.862204 
3331.000000	95.863426 
3330.000000	95.864206 
3329.000000	95.864588 
3328.000000	95.864937 
3327.000000	95.865772 
3326.000000	95.867305 
3325.000000	95.869221 
3324.000000	95.870929 
3323.000000	95.872012 
3322.000000	95.872566 
3321.000000	95.873138 
3320.000000	95.874287 
3319.000000	95.876155 
3318.000000	95.878469 
3317.000000	95.880829 
3316.000000	95.882925 
3315.000000	95.884580 
3314.000000	95.885784 
3313.000000	95.886740 
3312.000000	95.887750 
3311.000000	95.888984 
3310.000000	95.890440 
3309.000000	95.892056 
3308.000000	95.893634 
3307.000000	95.894697 
3306.000000	95.894767 
3305.000000	95.893905 
3304.000000	95.892891 
3303.000000	95.892686 
3302.000000	95.893670 
3301.000000	95.895491 
3300.000000	95.897401 
3299.000000	95.898771 
3298.000000	95.899425 
3297.000000	95.899722 
3296.000000	95.900363 
3295.000000	95.901960 
3294.000000	95.904635 
3293.000000	95.907905 
3292.000000	95.910941 
3291.000000	95.913101 
3290.000000	95.914311 
3289.000000	95.915020 
3288.000000	95.915806 
3287.000000	95.916900 
3286.000000	95.918068 
3285.000000	95.918900 
3284.000000	95.919224 
3283.000000	95.919357 
3282.000000	95.919952 
3281.000000	95.921407 
3280.000000	95.923288 
3279.000000	95.924556 
3278.000000	95.924627 
3277.000000	95.924030 
3276.000000	95.923854 
3275.000000	95.924563 
3274.000000	95.925793 
3273.000000	95.927241 
3272.000000	95.929101 
3271.000000	95.931514 
3270.000000	95.934067 
3269.000000	95.936089 
3268.000000	95.937255 
3267.000000	95.937807 
3266.000000	95.938417 
3265.000000	95.939827 
3264.000000	95.942327 
3263.000000	95.945433 
3262.000000	95.948300 
3261.000000	95.950574 
3260.000000	95.952438 
3259.000000	95.953928 
3258.000000	95.954752 
3257.000000	95.954949 
3256.000000	95.955238 
3255.000000	95.956279 
3254.000000	95.957892 
3253.000000	95.959417 
3252.000000	95.960618 
3251.000000	95.961848 
3250.000000	95.963427 
3249.000000	95.965234 
3248.000000	95.966905 
3247.000000	95.968192 
3246.000000	95.969088 
3245.000000	95.969833 
3244.000000	95.970808 
3243.000000	95.972297 
3242.000000	95.974288 
3241.000000	95.976504 
3240.000000	95.978632 
3239.000000	95.980562 
3238.000000	95.982464 
3237.000000	95.984647 
3236.000000	95.987235 
3235.000000	95.989951 
3234.000000	95.992313 
3233.000000	95.994100 
3232.000000	95.995507 
3231.000000	95.996943 
3230.000000	95.998688 
3229.000000	96.000732 
3228.000000	96.002906 
3227.000000	96.005057 
3226.000000	96.007167 
3225.000000	96.009290 
3224.000000	96.011442 
3223.000000	96.013567 
3222.000000	96.015608 
3221.000000	96.017579 
3220.000000	96.019550 
3219.000000	96.021577 
3218.000000	96.023665 
3217.000000	96.025799 
3216.000000	96.027964 
3215.000000	96.030163 
3214.000000	96.032393 
3213.000000	96.034636 
3212.000000	96.036851 
3211.000000	96.039000 
3210.000000	96.041088 
3209.000000	96.043176 
3208.000000	96.045347 
3207.000000	96.047626 
3206.000000	96.049966 
3205.000000	96.052298 
3204.000000	96.054598 
3203.000000	96.056886 
3202.000000	96.059171 
3201.000000	96.061418 
3200.000000	96.063581 
3199.000000	96.065641 
3198.000000	96.067633 
3197.000000	96.069641 
3196.000000	96.071754 
3195.000000	96.074015 
3194.000000	96.076417 
3193.000000	96.078932 
3192.000000	96.081511 
3191.000000	96.084025 
3190.000000	96.086292 
3189.000000	96.088210 
3188.000000	96.089856 
3187.000000	96.091487 
3186.000000	96.093394 
3185.000000	96.095733 
3184.000000	96.098458 
3183.000000	96.101351 
3182.000000	96.104181 
3181.000000	96.106811 
3180.000000	96.109146 
3179.000000	96.111073 
3178.000000	96.112558 
3177.000000	96.113800 
3176.000000	96.115142 
3175.000000	96.116829 
3174.000000	96.118921 
3173.000000	96.121413 
3172.000000	96.124266 
3171.000000	96.127272 
3170.000000	96.130039 
3169.000000	96.132252 
3168.000000	96.133887 
3167.000000	96.135145 
3166.000000	96.136242 
3165.000000	96.137346 
3164.000000	96.138612 
3163.000000	96.140203 
3162.000000	96.142333 
3161.000000	96.145214 
3160.000000	96.148816 
3159.000000	96.152683 
3158.000000	96.156209 
3157.000000	96.159131 
3156.000000	96.161531 
3155.000000	96.163361 
3154.000000	96.164418 
3153.000000	96.164972 
3152.000000	96.165915 
3151.000000	96.167807 
3150.000000	96.170107 
3149.000000	96.171738 
3148.000000	96.172309 
3147.000000	96.172462 
3146.000000	96.173132 
3145.000000	96.174686 
3144.000000	96.176816 
3143.000000	96.178907 
3142.000000	96.180522 
3141.000000	96.181805 
3140.000000	96.183426 
3139.000000	96.185984 
3138.000000	96.189461 
3137.000000	96.193180 
3136.000000	96.196120 
3135.000000	96.197440 
3134.000000	96.197097 
3133.000000	96.196151 
3132.000000	96.196083 
3131.000000	96.197529 
3130.000000	96.199975 
3129.000000	96.202707 
3128.000000	96.205669 
3127.000000	96.209207 
3126.000000	96.213297 
3125.000000	96.217371 
3124.000000	96.220768 
3123.000000	96.223149 
3122.000000	96.224613 
3121.000000	96.225725 
3120.000000	96.227224 
3119.000000	96.229422 
3118.000000	96.232033 
3117.000000	96.234677 
3116.000000	96.237293 
3115.000000	96.239898 
3114.000000	96.242256 
3113.000000	96.244140 
3112.000000	96.245768 
3111.000000	96.247676 
3110.000000	96.250081 
3109.000000	96.252615 
3108.000000	96.254839 
3107.000000	96.256825 
3106.000000	96.258903 
3105.000000	96.260842 
3104.000000	96.261707 
3103.000000	96.260817 
3102.000000	96.258713 
3101.000000	96.256928 
3100.000000	96.256588 
3099.000000	96.257668 
3098.000000	96.259826 
3097.000000	96.263396 
3096.000000	96.268816 
3095.000000	96.275269 
3094.000000	96.280816 
3093.000000	96.284128 
3092.000000	96.285466 
3091.000000	96.285776 
3090.000000	96.285434 
3089.000000	96.284242 
3088.000000	96.282300 
3087.000000	96.280452 
3086.000000	96.279888 
3085.000000	96.281222 
3084.000000	96.283689 
3083.000000	96.285488 
3082.000000	96.285533 
3081.000000	96.284818 
3080.000000	96.285278 
3079.000000	96.287472 
3078.000000	96.290318 
3077.000000	96.293071 
3076.000000	96.296342 
3075.000000	96.300643 
3074.000000	96.305088 
3073.000000	96.308382 
3072.000000	96.310417 
3071.000000	96.311974 
3070.000000	96.313379 
3069.000000	96.314319 
3068.000000	96.314710 
3067.000000	96.314916 
3066.000000	96.315191 
3065.000000	96.315537 
3064.000000	96.316002 
3063.000000	96.316638 
3062.000000	96.317323 
3061.000000	96.318010 
3060.000000	96.318929 
3059.000000	96.320270 
3058.000000	96.322029 
3057.000000	96.324391 
3056.000000	96.327640 
3055.000000	96.331184 
3054.000000	96.333447 
3053.000000	96.333590 
3052.000000	96.332917 
3051.000000	96.333654 
3050.000000	96.336322 
3049.000000	96.339291 
3048.000000	96.340897 
3047.000000	96.341028 
3046.000000	96.340423 
3045.000000	96.339500 
3044.000000	96.338539 
3043.000000	96.338360 
3042.000000	96.339784 
3041.000000	96.342322 
3040.000000	96.344066 
3039.000000	96.343444 
3038.000000	96.340749 
3037.000000	96.337752 
3036.000000	96.335872 
3035.000000	96.334984 
3034.000000	96.334274 
3033.000000	96.333671 
3032.000000	96.333847 
3031.000000	96.335013 
3030.000000	96.336430 
3029.000000	96.337237 
3028.000000	96.337115 
3027.000000	96.335891 
3026.000000	96.333237 
3025.000000	96.329363 
3024.000000	96.325608 
3023.000000	96.323472 
3022.000000	96.323199 
3021.000000	96.323948 
3020.000000	96.325095 
3019.000000	96.326654 
3018.000000	96.328308 
3017.000000	96.329004 
3016.000000	96.327979 
3015.000000	96.325695 
3014.000000	96.323474 
3013.000000	96.322365 
3012.000000	96.322381 
3011.000000	96.322481 
3010.000000	96.321303 
3009.000000	96.318334 
3008.000000	96.314377 
3007.000000	96.310656 
3006.000000	96.307563 
3005.000000	96.304761 
3004.000000	96.302219 
3003.000000	96.300461 
3002.000000	96.299896 
3001.000000	96.300534 
3000.000000	96.302175 
2999.000000	96.304099 
2998.000000	96.304835 
2997.000000	96.303256 
2996.000000	96.299981 
2995.000000	96.296895 
2994.000000	96.295116 
2993.000000	96.294179 
2992.000000	96.293136 
2991.000000	96.291589 
2990.000000	96.289491 
2989.000000	96.286904 
2988.000000	96.284379 
2987.000000	96.282903 
2986.000000	96.283166 
2985.000000	96.285232 
2984.000000	96.288844 
2983.000000	96.293417 
2982.000000	96.297780 
2981.000000	96.300615 
2980.000000	96.301347 
2979.000000	96.300201 
2978.000000	96.297635 
2977.000000	96.294438 
2976.000000	96.292161 
2975.000000	96.292393 
2974.000000	96.295483 
2973.000000	96.300565 
2972.000000	96.306701 
2971.000000	96.313179 
2970.000000	96.318785 
2969.000000	96.322141 
2968.000000	96.323213 
2967.000000	96.323561 
2966.000000	96.324549 
2965.000000	96.325973 
2964.000000	96.326898 
2963.000000	96.327148 
2962.000000	96.327444 
2961.000000	96.328612 
2960.000000	96.331228 
2959.000000	96.335539 
2958.000000	96.341120 
2957.000000	96.346754 
2956.000000	96.351126 
2955.000000	96.353571 
2954.000000	96.354132 
2953.000000	96.353444 
2952.000000	96.352795 
2951.000000	96.353642 
2950.000000	96.356333 
2949.000000	96.359553 
2948.000000	96.361587 
2947.000000	96.362077 
2946.000000	96.362173 
2945.000000	96.363053 
2944.000000	96.364714 
2943.000000	96.366291 
2942.000000	96.367098 
2941.000000	96.367175 
2940.000000	96.367152 
2939.000000	96.367799 
2938.000000	96.369532 
2937.000000	96.372094 
2936.000000	96.374636 
2935.000000	96.376254 
2934.000000	96.376549 
2933.000000	96.375787 
2932.000000	96.374737 
2931.000000	96.374299 
2930.000000	96.375120 
2929.000000	96.377392 
2928.000000	96.380854 
2927.000000	96.384854 
2926.000000	96.388445 
2925.000000	96.390721 
2924.000000	96.391380 
2923.000000	96.390963 
2922.000000	96.390324 
2921.000000	96.389787 
2920.000000	96.389145 
2919.000000	96.388511 
2918.000000	96.388629 
2917.000000	96.389936 
2916.000000	96.391617 
2915.000000	96.392266 
2914.000000	96.391577 
2913.000000	96.390779 
2912.000000	96.391048 
2911.000000	96.391904 
2910.000000	96.391829 
2909.000000	96.390417 
2908.000000	96.389214 
2907.000000	96.390004 
2906.000000	96.392745 
2905.000000	96.395638 
2904.000000	96.396912 
2903.000000	96.396578 
2902.000000	96.396108 
2901.000000	96.396727 
2900.000000	96.398609 
2899.000000	96.401310 
2898.000000	96.404780 
2897.000000	96.409267 
2896.000000	96.414267 
2895.000000	96.418246 
2894.000000	96.420121 
2893.000000	96.420708 
2892.000000	96.421924 
2891.000000	96.424460 
2890.000000	96.427053 
2889.000000	96.428472 
2888.000000	96.429290 
2887.000000	96.430860 
2886.000000	96.433152 
2885.000000	96.434863 
2884.000000	96.435621 
2883.000000	96.436761 
2882.000000	96.439433 
2881.000000	96.442973 
2880.000000	96.445992 
2879.000000	96.448446 
2878.000000	96.451504 
2877.000000	96.455535 
2876.000000	96.459290 
2875.000000	96.461464 
2874.000000	96.462161 
2873.000000	96.462407 
2872.000000	96.462845 
2871.000000	96.463482 
2870.000000	96.464416 
2869.000000	96.466055 
2868.000000	96.468500 
2867.000000	96.471210 
2866.000000	96.473519 
2865.000000	96.475258 
2864.000000	96.476731 
2863.000000	96.478370 
2862.000000	96.480540 
2861.000000	96.483395 
2860.000000	96.486646 
2859.000000	96.489673 
2858.000000	96.492125 
2857.000000	96.494308 
2856.000000	96.496826 
2855.000000	96.499851 
2854.000000	96.502923 
2853.000000	96.505466 
2852.000000	96.507324 
2851.000000	96.508737 
2850.000000	96.510003 
2849.000000	96.511276 
2848.000000	96.512618 
2847.000000	96.514105 
2846.000000	96.515884 
2845.000000	96.518108 
2844.000000	96.520790 
2843.000000	96.523742 
2842.000000	96.526676 
2841.000000	96.529322 
2840.000000	96.531402 
2839.000000	96.532643 
2838.000000	96.533085 
2837.000000	96.533348 
2836.000000	96.534343 
2835.000000	96.536555 
2834.000000	96.539773 
2833.000000	96.543392 
2832.000000	96.546860 
2831.000000	96.549773 
2830.000000	96.551792 
2829.000000	96.552756 
2828.000000	96.552925 
2827.000000	96.552952 
2826.000000	96.553546 
2825.000000	96.555096 
2824.000000	96.557472 
2823.000000	96.560012 
2822.000000	96.561916 
2821.000000	96.562871 
2820.000000	96.563180 
2819.000000	96.563308 
2818.000000	96.563417 
2817.000000	96.563511 
2816.000000	96.563830 
2815.000000	96.564793 
2814.000000	96.566516 
2813.000000	96.568598 
2812.000000	96.570420 
2811.000000	96.571640 
2810.000000	96.572356 
2809.000000	96.572915 
2808.000000	96.573643 
2807.000000	96.574668 
2806.000000	96.575924 
2805.000000	96.577264 
2804.000000	96.578537 
2803.000000	96.579601 
2802.000000	96.580367 
2801.000000	96.580960 
2800.000000	96.581744 
2799.000000	96.583013 
2798.000000	96.584675 
2797.000000	96.586278 
2796.000000	96.587429 
2795.000000	96.588121 
2794.000000	96.588618 
2793.000000	96.589206 
2792.000000	96.590063 
2791.000000	96.591215 
2790.000000	96.592510 
2789.000000	96.593721 
2788.000000	96.594737 
2787.000000	96.595656 
2786.000000	96.596632 
2785.000000	96.597681 
2784.000000	96.598698 
2783.000000	96.599655 
2782.000000	96.600695 
2781.000000	96.601970 
2780.000000	96.603488 
2779.000000	96.605171 
2778.000000	96.606911 
2777.000000	96.608513 
2776.000000	96.609680 
2775.000000	96.610251 
2774.000000	96.610424 
2773.000000	96.610593 
2772.000000	96.610969 
2771.000000	96.611502 
2770.000000	96.612175 
2769.000000	96.613148 
2768.000000	96.614550 
2767.000000	96.616287 
2766.000000	96.618163 
2765.000000	96.620041 
2764.000000	96.621745 
2763.000000	96.622974 
2762.000000	96.623484 
2761.000000	96.623340 
2760.000000	96.622924 
2759.000000	96.622734 
2758.000000	96.623168 
2757.000000	96.624309 
2756.000000	96.625713 
2755.000000	96.626598 
2754.000000	96.626550 
2753.000000	96.625935 
2752.000000	96.625536 
2751.000000	96.625825 
2750.000000	96.626873 
2749.000000	96.628726 
2748.000000	96.631355 
2747.000000	96.634190 
2746.000000	96.636217 
2745.000000	96.636914 
2744.000000	96.636700 
2743.000000	96.636456 
2742.000000	96.636631 
2741.000000	96.637068 
2740.000000	96.637436 
2739.000000	96.637504 
2738.000000	96.637218 
2737.000000	96.636842 
2736.000000	96.636902 
2735.000000	96.637693 
2734.000000	96.638920 
2733.000000	96.640011 
2732.000000	96.640724 
2731.000000	96.641262 
2730.000000	96.641895 
2729.000000	96.642726 
2728.000000	96.643750 
2727.000000	96.644898 
2726.000000	96.646004 
2725.000000	96.646923 
2724.000000	96.647676 
2723.000000	96.648314 
2722.000000	96.648703 
2721.000000	96.648697 
2720.000000	96.648483 
2719.000000	96.648516 
2718.000000	96.649018 
2717.000000	96.649800 
2716.000000	96.650540 
2715.000000	96.651118 
2714.000000	96.651614 
2713.000000	96.652088 
2712.000000	96.652510 
2711.000000	96.652882 
2710.000000	96.653310 
2709.000000	96.653907 
2708.000000	96.654687 
2707.000000	96.655574 
2706.000000	96.656473 
2705.000000	96.657287 
2704.000000	96.657909 
2703.000000	96.658251 
2702.000000	96.658328 
2701.000000	96.658329 
2700.000000	96.658544 
2699.000000	96.659164 
2698.000000	96.660109 
2697.000000	96.661023 
2696.000000	96.661566 
2695.000000	96.661767 
2694.000000	96.662039 
2693.000000	96.662783 
2692.000000	96.663974 
2691.000000	96.665165 
2690.000000	96.665920 
2689.000000	96.666175 
2688.000000	96.666150 
2687.000000	96.666043 
2686.000000	96.665997 
2685.000000	96.666289 
2684.000000	96.667193 
2683.000000	96.668494 
2682.000000	96.669381 
2681.000000	96.669146 
2680.000000	96.667915 
2679.000000	96.666631 
2678.000000	96.666268 
2677.000000	96.667250 
2676.000000	96.669500 
2675.000000	96.672476 
2674.000000	96.675029 
2673.000000	96.675879 
2672.000000	96.674685 
2671.000000	96.672504 
2670.000000	96.670803 
2669.000000	96.670096 
2668.000000	96.669895 
2667.000000	96.669731 
2666.000000	96.669704 
2665.000000	96.670026 
2664.000000	96.670432 
2663.000000	96.670188 
2662.000000	96.668598 
2661.000000	96.665571 
2660.000000	96.661781 
2659.000000	96.658105 
2658.000000	96.654877 
2657.000000	96.652057 
2656.000000	96.650108 
2655.000000	96.650081 
2654.000000	96.652515 
2653.000000	96.656494 
2652.000000	96.660287 
2651.000000	96.662776 
2650.000000	96.663660 
2649.000000	96.662825 
2648.000000	96.660304 
2647.000000	96.656815 
2646.000000	96.653703 
2645.000000	96.651779 
2644.000000	96.650620 
2643.000000	96.649253 
2642.000000	96.647264 
2641.000000	96.645047 
2640.000000	96.643176 
2639.000000	96.641970 
2638.000000	96.641656 
2637.000000	96.642388 
2636.000000	96.644126 
2635.000000	96.646558 
2634.000000	96.649062 
2633.000000	96.650968 
2632.000000	96.651941 
2631.000000	96.652070 
2630.000000	96.651616 
2629.000000	96.650749 
2628.000000	96.649610 
2627.000000	96.648524 
2626.000000	96.647898 
2625.000000	96.647840 
2624.000000	96.648062 
2623.000000	96.648149 
2622.000000	96.647895 
2621.000000	96.647400 
2620.000000	96.646867 
2619.000000	96.646439 
2618.000000	96.646135 
2617.000000	96.645905 
2616.000000	96.645703 
2615.000000	96.645528 
2614.000000	96.645364 
2613.000000	96.645184 
2612.000000	96.644964 
2611.000000	96.644685 
2610.000000	96.644350 
2609.000000	96.643983 
2608.000000	96.643625 
2607.000000	96.643308 
2606.000000	96.643041 
2605.000000	96.642808 
2604.000000	96.642584 
2603.000000	96.642352 
2602.000000	96.642110 
2601.000000	96.641865 
2600.000000	96.641613 
2599.000000	96.641341 
2598.000000	96.641038 
2597.000000	96.640706 
2596.000000	96.640365 
2595.000000	96.640028 
2594.000000	96.639687 
2593.000000	96.639320 
2592.000000	96.638907 
2591.000000	96.638451 
2590.000000	96.637974 
2589.000000	96.637505 
2588.000000	96.637063 
2587.000000	96.636657 
2586.000000	96.636286 
2585.000000	96.635951 
2584.000000	96.635648 
2583.000000	96.635361 
2582.000000	96.635074 
2581.000000	96.634779 
2580.000000	96.634486 
2579.000000	96.634218 
2578.000000	96.633993 
2577.000000	96.633814 
2576.000000	96.633668 
2575.000000	96.633533 
2574.000000	96.633388 
2573.000000	96.633227 
2572.000000	96.633052 
2571.000000	96.632874 
2570.000000	96.632703 
2569.000000	96.632549 
2568.000000	96.632422 
2567.000000	96.632323 
2566.000000	96.632240 
2565.000000	96.632150 
2564.000000	96.632036 
2563.000000	96.631895 
2562.000000	96.631740 
2561.000000	96.631590 
2560.000000	96.631458 
2559.000000	96.631344 
2558.000000	96.631239 
2557.000000	96.631154 
2556.000000	96.631071 
2555.000000	96.630915 
2554.000000	96.630664 
2553.000000	96.630366 
2552.000000	96.629985 
2551.000000	96.629431 
2550.000000	96.628844 
2549.000000	96.628612 
2548.000000	96.628885 
2547.000000	96.629340 
2546.000000	96.629618 
2545.000000	96.629779 
2544.000000	96.630027 
2543.000000	96.630104 
2542.000000	96.629439 
2541.000000	96.628024 
2540.000000	96.626753 
2539.000000	96.626513 
2538.000000	96.627254 
2537.000000	96.628418 
2536.000000	96.630107 
2535.000000	96.632952 
2534.000000	96.636509 
2533.000000	96.638670 
2532.000000	96.637599 
2531.000000	96.633772 
2530.000000	96.629584 
2529.000000	96.626594 
2528.000000	96.624216 
2527.000000	96.621602 
2526.000000	96.619626 
2525.000000	96.619869 
2524.000000	96.622314 
2523.000000	96.625321 
2522.000000	96.627822 
2521.000000	96.630134 
2520.000000	96.632331 
2519.000000	96.633387 
2518.000000	96.632618 
2517.000000	96.630722 
2516.000000	96.628499 
2515.000000	96.625601 
2514.000000	96.621864 
2513.000000	96.618959 
2512.000000	96.618917 
2511.000000	96.621665 
2510.000000	96.625340 
2509.000000	96.628628 
2508.000000	96.631421 
2507.000000	96.633422 
2506.000000	96.634100 
2505.000000	96.634278 
2504.000000	96.635994 
2503.000000	96.640000 
2502.000000	96.644548 
2501.000000	96.647349 
2500.000000	96.647911 
2499.000000	96.647209 
2498.000000	96.646036 
2497.000000	96.644660 
2496.000000	96.643682 
2495.000000	96.643957 
2494.000000	96.645456 
2493.000000	96.646981 
2492.000000	96.647450 
2491.000000	96.647198 
2490.000000	96.647617 
2489.000000	96.649449 
2488.000000	96.651733 
2487.000000	96.652844 
2486.000000	96.652433 
2485.000000	96.651833 
2484.000000	96.652460 
2483.000000	96.654291 
2482.000000	96.656235 
2481.000000	96.657511 
2480.000000	96.658157 
2479.000000	96.658462 
2478.000000	96.658672 
2477.000000	96.659150 
2476.000000	96.660002 
2475.000000	96.660450 
2474.000000	96.659439 
2473.000000	96.657028 
2472.000000	96.654571 
2471.000000	96.653254 
2470.000000	96.653098 
2469.000000	96.653659 
2468.000000	96.654849 
2467.000000	96.656583 
2466.000000	96.658120 
2465.000000	96.658549 
2464.000000	96.657891 
2463.000000	96.657214 
2462.000000	96.657607 
2461.000000	96.659307 
2460.000000	96.661690 
2459.000000	96.663730 
2458.000000	96.664491 
2457.000000	96.663522 
2456.000000	96.661027 
2455.000000	96.657759 
2454.000000	96.654749 
2453.000000	96.652779 
2452.000000	96.651868 
2451.000000	96.651461 
2450.000000	96.651490 
2449.000000	96.652795 
2448.000000	96.655786 
2447.000000	96.659071 
2446.000000	96.660387 
2445.000000	96.659017 
2444.000000	96.656418 
2443.000000	96.654474 
2442.000000	96.653776 
2441.000000	96.653942 
2440.000000	96.654715 
2439.000000	96.656276 
2438.000000	96.658972 
2437.000000	96.662976 
2436.000000	96.667741 
2435.000000	96.671765 
2434.000000	96.673710 
2433.000000	96.673741 
2432.000000	96.673281 
2431.000000	96.673441 
2430.000000	96.674329 
2429.000000	96.675805 
2428.000000	96.677779 
2427.000000	96.679521 
2426.000000	96.679793 
2425.000000	96.678285 
2424.000000	96.676297 
2423.000000	96.675334 
2422.000000	96.675678 
2421.000000	96.677059 
2420.000000	96.679563 
2419.000000	96.682807 
2418.000000	96.685443 
2417.000000	96.686848 
2416.000000	96.688173 
2415.000000	96.690476 
2414.000000	96.692946 
2413.000000	96.694547 
2412.000000	96.696071 
2411.000000	96.698566 
2410.000000	96.701151 
2409.000000	96.702501 
2408.000000	96.703349 
2407.000000	96.705290 
2406.000000	96.707946 
2405.000000	96.709408 
2404.000000	96.709030 
2403.000000	96.707901 
2402.000000	96.707035 
2401.000000	96.706891 
2400.000000	96.708338 
2399.000000	96.712280 
2398.000000	96.718298 
2397.000000	96.725108 
2396.000000	96.731874 
2395.000000	96.737642 
2394.000000	96.740407 
2393.000000	96.738781 
2392.000000	96.734496 
2391.000000	96.731397 
2390.000000	96.731378 
2389.000000	96.732792 
2388.000000	96.733104 
2387.000000	96.731568 
2386.000000	96.729221 
2385.000000	96.727723 
2384.000000	96.728758 
2383.000000	96.733526 
2382.000000	96.742291 
2381.000000	96.754884 
2380.000000	96.771362 
2379.000000	96.790791 
2378.000000	96.809269 
2377.000000	96.821111 
2376.000000	96.823233 
2375.000000	96.817346 
2374.000000	96.807530 
2373.000000	96.796768 
2372.000000	96.787089 
2371.000000	96.781521 
2370.000000	96.782783 
2369.000000	96.789647 
2368.000000	96.796517 
2367.000000	96.798318 
2366.000000	96.795192 
2365.000000	96.791290 
2364.000000	96.789987 
2363.000000	96.791536 
2362.000000	96.794508 
2361.000000	96.797481 
2360.000000	96.798109 
2359.000000	96.794144 
2358.000000	96.787196 
2357.000000	96.782907 
2356.000000	96.785516 
2355.000000	96.793666 
2354.000000	96.801727 
2353.000000	96.803964 
2352.000000	96.798531 
2351.000000	96.787449 
2350.000000	96.774352 
2349.000000	96.764016 
2348.000000	96.760946 
2347.000000	96.763983 
2346.000000	96.764655 
2345.000000	96.757233 
2344.000000	96.745540 
2343.000000	96.735855 
2342.000000	96.730415 
2341.000000	96.728672 
2340.000000	96.728529 
2339.000000	96.726891 
2338.000000	96.722442 
2337.000000	96.717139 
2336.000000	96.713908 
2335.000000	96.713266 
2334.000000	96.713452 
2333.000000	96.712368 
2332.000000	96.709083 
2331.000000	96.703159 
2330.000000	96.693440 
2329.000000	96.678699 
2328.000000	96.659324 
2327.000000	96.637191 
2326.000000	96.614833 
2325.000000	96.596144 
2324.000000	96.585920 
2323.000000	96.584696 
2322.000000	96.585230 
2321.000000	96.579459 
2320.000000	96.568992 
2319.000000	96.562589 
2318.000000	96.564310 
2317.000000	96.570993 
2316.000000	96.579287 
2315.000000	96.588851 
2314.000000	96.597314 
2313.000000	96.599428 
2312.000000	96.593609 
2311.000000	96.584752 
2310.000000	96.576956 
2309.000000	96.568797 
2308.000000	96.558878 
2307.000000	96.551216 
2306.000000	96.550071 
2305.000000	96.553137 
2304.000000	96.555018 
2303.000000	96.555270 
2302.000000	96.557816 
2301.000000	96.563479 
2300.000000	96.568135 
2299.000000	96.567889 
2298.000000	96.562523 
2297.000000	96.553525 
2296.000000	96.542348 
2295.000000	96.531870 
2294.000000	96.526047 
2293.000000	96.526459 
2292.000000	96.530480 
2291.000000	96.534384 
2290.000000	96.537106 
2289.000000	96.540144 
2288.000000	96.544334 
2287.000000	96.548411 
2286.000000	96.550715 
2285.000000	96.551528 
2284.000000	96.552683 
2283.000000	96.554711 
2282.000000	96.555560 
2281.000000	96.553107 
2280.000000	96.548187 
2279.000000	96.543564 
2278.000000	96.540417 
2277.000000	96.537625 
2276.000000	96.534829 
2275.000000	96.534020 
2274.000000	96.536962 
2273.000000	96.542702 
2272.000000	96.548900 
2271.000000	96.554461 
2270.000000	96.559185 
2269.000000	96.561941 
2268.000000	96.561463 
2267.000000	96.558541 
2266.000000	96.555609 
2265.000000	96.553958 
2264.000000	96.552580 
2263.000000	96.549941 
2262.000000	96.545724 
2261.000000	96.540768 
2260.000000	96.536213 
2259.000000	96.532703 
2258.000000	96.530274 
2257.000000	96.529260 
2256.000000	96.530940 
2255.000000	96.536028 
2254.000000	96.542204 
2253.000000	96.544899 
2252.000000	96.541945 
2251.000000	96.535533 
2250.000000	96.529286 
2249.000000	96.524150 
2248.000000	96.519105 
2247.000000	96.514438 
2246.000000	96.511656 
2245.000000	96.510499 
2244.000000	96.508432 
2243.000000	96.503902 
2242.000000	96.498577 
2241.000000	96.495381 
2240.000000	96.495165 
2239.000000	96.496330 
2238.000000	96.496750 
2237.000000	96.495528 
2236.000000	96.493039 
2235.000000	96.490139 
2234.000000	96.487577 
2233.000000	96.485765 
2232.000000	96.484830 
2231.000000	96.484563 
2230.000000	96.484193 
2229.000000	96.482649 
2228.000000	96.479596 
2227.000000	96.476012 
2226.000000	96.473079 
2225.000000	96.470626 
2224.000000	96.467462 
2223.000000	96.463213 
2222.000000	96.459140 
2221.000000	96.456681 
2220.000000	96.455720 
2219.000000	96.454826 
2218.000000	96.452783 
2217.000000	96.449560 
2216.000000	96.445834 
2215.000000	96.442073 
2214.000000	96.438275 
2213.000000	96.434534 
2212.000000	96.431478 
2211.000000	96.429859 
2210.000000	96.429756 
2209.000000	96.430289 
2208.000000	96.430313 
2207.000000	96.429302 
2206.000000	96.427446 
2205.000000	96.425267 
2204.000000	96.423218 
2203.000000	96.421663 
2202.000000	96.420878 
2201.000000	96.420400 
2200.000000	96.418501 
2199.000000	96.413434 
2198.000000	96.405605 
2197.000000	96.397945 
2196.000000	96.393279 
2195.000000	96.391368 
2194.000000	96.389386 
2193.000000	96.385721 
2192.000000	96.382226 
2191.000000	96.381571 
2190.000000	96.383582 
2189.000000	96.385863 
2188.000000	96.387180 
2187.000000	96.387569 
2186.000000	96.385397 
2185.000000	96.378177 
2184.000000	96.368055 
2183.000000	96.362904 
2182.000000	96.368159 
2181.000000	96.379255 
2180.000000	96.385447 
2179.000000	96.381794 
2178.000000	96.373609 
2177.000000	96.369232 
2176.000000	96.371133 
2175.000000	96.375240 
2174.000000	96.376626 
2173.000000	96.374316 
2172.000000	96.371604 
2171.000000	96.372728 
2170.000000	96.378499 
2169.000000	96.384663 
2168.000000	96.385636 
2167.000000	96.380122 
2166.000000	96.371444 
2165.000000	96.362148 
2164.000000	96.350859 
2163.000000	96.336826 
2162.000000	96.326219 
2161.000000	96.330112 
2160.000000	96.354836 
2159.000000	96.395019 
2158.000000	96.435960 
2157.000000	96.465166 
2156.000000	96.480649 
2155.000000	96.487750 
2154.000000	96.491801 
2153.000000	96.494787 
2152.000000	96.496660 
2151.000000	96.497140 
2150.000000	96.496231 
2149.000000	96.494916 
2148.000000	96.495863 
2147.000000	96.501820 
2146.000000	96.512485 
2145.000000	96.524338 
2144.000000	96.534527 
2143.000000	96.543444 
2142.000000	96.552296 
2141.000000	96.559948 
2140.000000	96.564347 
2139.000000	96.566564 
2138.000000	96.571194 
2137.000000	96.581780 
2136.000000	96.596271 
2135.000000	96.607526 
2134.000000	96.609059 
2133.000000	96.601305 
2132.000000	96.592097 
2131.000000	96.589630 
2130.000000	96.595015 
2129.000000	96.602674 
2128.000000	96.607415 
2127.000000	96.609278 
2126.000000	96.611151 
2125.000000	96.614136 
2124.000000	96.616929 
2123.000000	96.618123 
2122.000000	96.617011 
2121.000000	96.612765 
2120.000000	96.604714 
2119.000000	96.593793 
2118.000000	96.583101 
2117.000000	96.576377 
2116.000000	96.575021 
2115.000000	96.576362 
2114.000000	96.575266 
2113.000000	96.568865 
2112.000000	96.559943 
2111.000000	96.554001 
2110.000000	96.553126 
2109.000000	96.554685 
2108.000000	96.555993 
2107.000000	96.557607 
2106.000000	96.560928 
2105.000000	96.565328 
2104.000000	96.569463 
2103.000000	96.573116 
2102.000000	96.575631 
2101.000000	96.574711 
2100.000000	96.569565 
2099.000000	96.563900 
2098.000000	96.562916 
2097.000000	96.567570 
2096.000000	96.573936 
2095.000000	96.578030 
2094.000000	96.579158 
2093.000000	96.578512 
2092.000000	96.576952 
2091.000000	96.575200 
2090.000000	96.574589 
2089.000000	96.575870 
2088.000000	96.577408 
2087.000000	96.575834 
2086.000000	96.569043 
2085.000000	96.558313 
2084.000000	96.547747 
2083.000000	96.541057 
2082.000000	96.538907 
2081.000000	96.539459 
2080.000000	96.540806 
2079.000000	96.542371 
2078.000000	96.543817 
2077.000000	96.543805 
2076.000000	96.541107 
2075.000000	96.536394 
2074.000000	96.531512 
2073.000000	96.527032 
2072.000000	96.521841 
2071.000000	96.515408 
2070.000000	96.509167 
2069.000000	96.505076 
2068.000000	96.503580 
2067.000000	96.503353 
2066.000000	96.502392 
2065.000000	96.499051 
2064.000000	96.492710 
2063.000000	96.484248 
2062.000000	96.476091 
2061.000000	96.470943 
2060.000000	96.469826 
2059.000000	96.471484 
2058.000000	96.473286 
2057.000000	96.473098 
2056.000000	96.470279 
2055.000000	96.464977 
2054.000000	96.457550 
2053.000000	96.448942 
2052.000000	96.441023 
2051.000000	96.435458 
2050.000000	96.432269 
2049.000000	96.430154 
2048.000000	96.428137 
2047.000000	96.426309 
2046.000000	96.424777 
2045.000000	96.422981 
2044.000000	96.420613 
2043.000000	96.418359 
2042.000000	96.417055 
2041.000000	96.416531 
2040.000000	96.416014 
2039.000000	96.415457 
2038.000000	96.415421 
2037.000000	96.415701 
2036.000000	96.415166 
2035.000000	96.413213 
2034.000000	96.410832 
2033.000000	96.409965 
2032.000000	96.411769 
2031.000000	96.415150 
2030.000000	96.416859 
2029.000000	96.414062 
2028.000000	96.407396 
2027.000000	96.400846 
2026.000000	96.397671 
2025.000000	96.397764 
2024.000000	96.399747 
2023.000000	96.404045 
2022.000000	96.411919 
2021.000000	96.421773 
2020.000000	96.428733 
2019.000000	96.428811 
2018.000000	96.422008 
2017.000000	96.412043 
2016.000000	96.403934 
2015.000000	96.401063 
2014.000000	96.402786 
2013.000000	96.404074 
2012.000000	96.400102 
2011.000000	96.392467 
2010.000000	96.388383 
2009.000000	96.392467 
2008.000000	96.402002 
2007.000000	96.411574 
2006.000000	96.419615 
2005.000000	96.427419 
2004.000000	96.434734 
2003.000000	96.440181 
2002.000000	96.444388 
2001.000000	96.448305 
2000.000000	96.449239 
1999.000000	96.442224 
1998.000000	96.425989 
1997.000000	96.406164 
1996.000000	96.391211 
1995.000000	96.385376 
1994.000000	96.386476 
1993.000000	96.388801 
1992.000000	96.387871 
1991.000000	96.384137 
1990.000000	96.382492 
1989.000000	96.387287 
1988.000000	96.397076 
1987.000000	96.404362 
1986.000000	96.401873 
1985.000000	96.389285 
1984.000000	96.373244 
1983.000000	96.360891 
1982.000000	96.354533 
1981.000000	96.352820 
1980.000000	96.355252 
1979.000000	96.362869 
1978.000000	96.374434 
1977.000000	96.385175 
1976.000000	96.391107 
1975.000000	96.393329 
1974.000000	96.396413 
1973.000000	96.403738 
1972.000000	96.415084 
1971.000000	96.427586 
1970.000000	96.437609 
1969.000000	96.442012 
1968.000000	96.439255 
1967.000000	96.430746 
1966.000000	96.421309 
1965.000000	96.416649 
1964.000000	96.419635 
1963.000000	96.429453 
1962.000000	96.443346 
1961.000000	96.458108 
1960.000000	96.470317 
1959.000000	96.477157 
1958.000000	96.478736 
1957.000000	96.478862 
1956.000000	96.481356 
1955.000000	96.485567 
1954.000000	96.487528 
1953.000000	96.485581 
1952.000000	96.482451 
1951.000000	96.481607 
1950.000000	96.484054 
1949.000000	96.489206 
1948.000000	96.496502 
1947.000000	96.504663 
1946.000000	96.510838 
1945.000000	96.512669 
1944.000000	96.510596 
1943.000000	96.507420 
1942.000000	96.505889 
1941.000000	96.506954 
1940.000000	96.510283 
1939.000000	96.515044 
1938.000000	96.520262 
1937.000000	96.525354 
1936.000000	96.530174 
1935.000000	96.534245 
1934.000000	96.536650 
1933.000000	96.537450 
1932.000000	96.538346 
1931.000000	96.540889 
1930.000000	96.544601 
1929.000000	96.547593 
1928.000000	96.549301 
1927.000000	96.550910 
1926.000000	96.553039 
1925.000000	96.554515 
1924.000000	96.554144 
1923.000000	96.552682 
1922.000000	96.551811 
1921.000000	96.552076 
1920.000000	96.553112 
1919.000000	96.554831 
1918.000000	96.557252 
1917.000000	96.559570 
1916.000000	96.560756 
1915.000000	96.560903 
1914.000000	96.560766 
1913.000000	96.560791 
1912.000000	96.561010 
1911.000000	96.561511 
1910.000000	96.562457 
1909.000000	96.563663 
1908.000000	96.564966 
1907.000000	96.566445 
1906.000000	96.567827 
1905.000000	96.568103 
1904.000000	96.566548 
1903.000000	96.564064 
1902.000000	96.562406 
1901.000000	96.562042 
1900.000000	96.562175 
1899.000000	96.562267 
1898.000000	96.562579 
1897.000000	96.563308 
1896.000000	96.563937 
1895.000000	96.563919 
1894.000000	96.563227 
1893.000000	96.562082 
1892.000000	96.560810 
1891.000000	96.559949 
1890.000000	96.559904 
1889.000000	96.560512 
1888.000000	96.561409 
1887.000000	96.562682 
1886.000000	96.564371 
1885.000000	96.565677 
1884.000000	96.565607 
1883.000000	96.564279 
1882.000000	96.563005 
1881.000000	96.562890 
1880.000000	96.563916 
1879.000000	96.565301 
1878.000000	96.566320 
1877.000000	96.567038 
1876.000000	96.568137 
1875.000000	96.570156 
1874.000000	96.572911 
1873.000000	96.575495 
1872.000000	96.577131 
1871.000000	96.577807 
1870.000000	96.577943 
1869.000000	96.577950 
1868.000000	96.578327 
1867.000000	96.579800 
1866.000000	96.582519 
1865.000000	96.585417 
1864.000000	96.587254 
1863.000000	96.588103 
1862.000000	96.589108 
1861.000000	96.590920 
1860.000000	96.593099 
1859.000000	96.595274 
1858.000000	96.597867 
1857.000000	96.601231 
1856.000000	96.605101 
1855.000000	96.608953 
1854.000000	96.612325 
1853.000000	96.614744 
1852.000000	96.616385 
1851.000000	96.618273 
1850.000000	96.621027 
1849.000000	96.624131 
1848.000000	96.626631 
1847.000000	96.628426 
1846.000000	96.630257 
1845.000000	96.632773 
1844.000000	96.636019 
1843.000000	96.639491 
1842.000000	96.642614 
1841.000000	96.645126 
1840.000000	96.647484 
1839.000000	96.650389 
1838.000000	96.653718 
1837.000000	96.656169 
1836.000000	96.656836 
1835.000000	96.656801 
1834.000000	96.657921 
1833.000000	96.660443 
1832.000000	96.663246 
1831.000000	96.665261 
1830.000000	96.666405 
1829.000000	96.667439 
1828.000000	96.668744 
1827.000000	96.670298 
1826.000000	96.672101 
1825.000000	96.674356 
1824.000000	96.676889 
1823.000000	96.679202 
1822.000000	96.681294 
1821.000000	96.683079 
1820.000000	96.684024 
1819.000000	96.684142 
1818.000000	96.685242 
1817.000000	96.688605 
1816.000000	96.692159 
1815.000000	96.693864 
1814.000000	96.694612 
1813.000000	96.696476 
1812.000000	96.698988 
1811.000000	96.699399 
1810.000000	96.697850 
1809.000000	96.696531 
1808.000000	96.695571 
1807.000000	96.694513 
1806.000000	96.694541 
1805.000000	96.696317 
1804.000000	96.697656 
1803.000000	96.696655 
1802.000000	96.694038 
1801.000000	96.692205 
1800.000000	96.691645 
1799.000000	96.691058 
1798.000000	96.690713 
1797.000000	96.690205 
1796.000000	96.687604 
1795.000000	96.683452 
1794.000000	96.681249 
1793.000000	96.683446 
1792.000000	96.687374 
1791.000000	96.689171 
1790.000000	96.690584 
1789.000000	96.694602 
1788.000000	96.700432 
1787.000000	96.705293 
1786.000000	96.707939 
1785.000000	96.708883 
1784.000000	96.708667 
1783.000000	96.708724 
1782.000000	96.709954 
1781.000000	96.712331 
1780.000000	96.715550 
1779.000000	96.719001 
1778.000000	96.722820 
1777.000000	96.726427 
1776.000000	96.728729 
1775.000000	96.729298 
1774.000000	96.728775 
1773.000000	96.729356 
1772.000000	96.732522 
1771.000000	96.736262 
1770.000000	96.738716 
1769.000000	96.740550 
1768.000000	96.742833 
1767.000000	96.745698 
1766.000000	96.748459 
1765.000000	96.750828 
1764.000000	96.752864 
1763.000000	96.754428 
1762.000000	96.755539 
1761.000000	96.757099 
1760.000000	96.759622 
1759.000000	96.762406 
1758.000000	96.764478 
1757.000000	96.765637 
1756.000000	96.767252 
1755.000000	96.769726 
1754.000000	96.771556 
1753.000000	96.771366 
1752.000000	96.769712 
1751.000000	96.768962 
1750.000000	96.770673 
1749.000000	96.774146 
1748.000000	96.777777 
1747.000000	96.780835 
1746.000000	96.782732 
1745.000000	96.783714 
1744.000000	96.784674 
1743.000000	96.785342 
1742.000000	96.784955 
1741.000000	96.784392 
1740.000000	96.785437 
1739.000000	96.788257 
1738.000000	96.791144 
1737.000000	96.792968 
1736.000000	96.793482 
1735.000000	96.792844 
1734.000000	96.792453 
1733.000000	96.791988 
1732.000000	96.791503 
1731.000000	96.792689 
1730.000000	96.795751 
1729.000000	96.798771 
1728.000000	96.800874 
1727.000000	96.802900 
1726.000000	96.805029 
1725.000000	96.806868 
1724.000000	96.807520 
1723.000000	96.806402 
1722.000000	96.804609 
1721.000000	96.803164 
1720.000000	96.802034 
1719.000000	96.800441 
1718.000000	96.798474 
1717.000000	96.796258 
1716.000000	96.792277 
1715.000000	96.787865 
1714.000000	96.786126 
1713.000000	96.786405 
1712.000000	96.785487 
1711.000000	96.782870 
1710.000000	96.780208 
1709.000000	96.777704 
1708.000000	96.774511 
1707.000000	96.771228 
1706.000000	96.769492 
1705.000000	96.768650 
1704.000000	96.765708 
1703.000000	96.760059 
1702.000000	96.753545 
1701.000000	96.749275 
1700.000000	96.748201 
1699.000000	96.746747 
1698.000000	96.744334 
1697.000000	96.742021 
1696.000000	96.739477 
1695.000000	96.736653 
1694.000000	96.733886 
1693.000000	96.731258 
1692.000000	96.728440 
1691.000000	96.725148 
1690.000000	96.721463 
1689.000000	96.717581 
1688.000000	96.713743 
1687.000000	96.710015 
1686.000000	96.706376 
1685.000000	96.702945 
1684.000000	96.699564 
1683.000000	96.695951 
1682.000000	96.692260 
1681.000000	96.688602 
1680.000000	96.685036 
1679.000000	96.681552 
1678.000000	96.678021 
1677.000000	96.674297 
1676.000000	96.670472 
1675.000000	96.666875 
1674.000000	96.663170 
1673.000000	96.658918 
1672.000000	96.654573 
1671.000000	96.650944 
1670.000000	96.648111 
1669.000000	96.644965 
1668.000000	96.641524 
1667.000000	96.638781 
1666.000000	96.636120 
1665.000000	96.632792 
1664.000000	96.629733 
1663.000000	96.628723 
1662.000000	96.628024 
1661.000000	96.623869 
1660.000000	96.618150 
1659.000000	96.615300 
1658.000000	96.615335 
1657.000000	96.614752 
1656.000000	96.610961 
1655.000000	96.602599 
1654.000000	96.590947 
1653.000000	96.584694 
1652.000000	96.580503 
1651.000000	96.575793 
1650.000000	96.572037 
1649.000000	96.570466 
1648.000000	96.568926 
1647.000000	96.566269 
1646.000000	96.563595 
1645.000000	96.562184 
1644.000000	96.561620 
1643.000000	96.561620 
1642.000000	96.562301 
1641.000000	96.562291 
1640.000000	96.561349 
1639.000000	96.558908 
1638.000000	96.554486 
1637.000000	96.548466 
1636.000000	96.544157 
1635.000000	96.544431 
1634.000000	96.546518 
1633.000000	96.547627 
1632.000000	96.546387 
1631.000000	96.544554 
1630.000000	96.544700 
1629.000000	96.547279 
1628.000000	96.550633 
1627.000000	96.553879 
1626.000000	96.556100 
1625.000000	96.557015 
1624.000000	96.559623 
1623.000000	96.567166 
1622.000000	96.576378 
1621.000000	96.580941 
1620.000000	96.581203 
1619.000000	96.581393 
1618.000000	96.584091 
1617.000000	96.587739 
1616.000000	96.589408 
1615.000000	96.590020 
1614.000000	96.591501 
1613.000000	96.592686 
1612.000000	96.592528 
1611.000000	96.592814 
1610.000000	96.594618 
1609.000000	96.597473 
1608.000000	96.602889 
1607.000000	96.612228 
1606.000000	96.621420 
1605.000000	96.625988 
1604.000000	96.628660 
1603.000000	96.633747 
1602.000000	96.640478 
1601.000000	96.645779 
1600.000000	96.649972 
1599.000000	96.655129 
1598.000000	96.660531 
1597.000000	96.664467 
1596.000000	96.667600 
1595.000000	96.671842 
1594.000000	96.677044 
1593.000000	96.681479 
1592.000000	96.685124 
1591.000000	96.689441 
1590.000000	96.694254 
1589.000000	96.697981 
1588.000000	96.701132 
1587.000000	96.705753 
1586.000000	96.711563 
1585.000000	96.715418 
1584.000000	96.717516 
1583.000000	96.721347 
1582.000000	96.726910 
1581.000000	96.731255 
1580.000000	96.734177 
1579.000000	96.737884 
1578.000000	96.742915 
1577.000000	96.749314 
1576.000000	96.757266 
1575.000000	96.763885 
1574.000000	96.765812 
1573.000000	96.764335 
1572.000000	96.763672 
1571.000000	96.767073 
1570.000000	96.772970 
1569.000000	96.774834 
1568.000000	96.773315 
1567.000000	96.773587 
1566.000000	96.775658 
1565.000000	96.776942 
1564.000000	96.778338 
1563.000000	96.779151 
1562.000000	96.776599 
1561.000000	96.765052 
1560.000000	96.755118 
1559.000000	96.758593 
1558.000000	96.762521 
1557.000000	96.761548 
1556.000000	96.762667 
1555.000000	96.767044 
1554.000000	96.770613 
1553.000000	96.770835 
1552.000000	96.769018 
1551.000000	96.764383 
1550.000000	96.756703 
1549.000000	96.748847 
1548.000000	96.744219 
1547.000000	96.742860 
1546.000000	96.740869 
1545.000000	96.735347 
1544.000000	96.728276 
1543.000000	96.722987 
1542.000000	96.721412 
1541.000000	96.722955 
1540.000000	96.720745 
1539.000000	96.711337 
1538.000000	96.698360 
1537.000000	96.684858 
1536.000000	96.672173 
1535.000000	96.662387 
1534.000000	96.656363 
1533.000000	96.652043 
1532.000000	96.646460 
1531.000000	96.639581 
1530.000000	96.633224 
1529.000000	96.627372 
1528.000000	96.619968 
1527.000000	96.610565 
1526.000000	96.600877 
1525.000000	96.592521 
1524.000000	96.586009 
1523.000000	96.581075 
1522.000000	96.576286 
1521.000000	96.568281 
1520.000000	96.555604 
1519.000000	96.541394 
1518.000000	96.528777 
1517.000000	96.518199 
1516.000000	96.508721 
1515.000000	96.500465 
1514.000000	96.494066 
1513.000000	96.489013 
1512.000000	96.483146 
1511.000000	96.474296 
1510.000000	96.462965 
1509.000000	96.450777 
1508.000000	96.439189 
1507.000000	96.428622 
1506.000000	96.420000 
1505.000000	96.412290 
1504.000000	96.403802 
1503.000000	96.394067 
1502.000000	96.383403 
1501.000000	96.372555 
1500.000000	96.362560 
1499.000000	96.353467 
1498.000000	96.344279 
1497.000000	96.334863 
1496.000000	96.325596 
1495.000000	96.316905 
1494.000000	96.309690 
1493.000000	96.304483 
1492.000000	96.300297 
1491.000000	96.294929 
1490.000000	96.286680 
1489.000000	96.276065 
1488.000000	96.264075 
1487.000000	96.251698 
1486.000000	96.240967 
1485.000000	96.230914 
1484.000000	96.219951 
1483.000000	96.209044 
1482.000000	96.199846 
1481.000000	96.192945 
1480.000000	96.186642 
1479.000000	96.179463 
1478.000000	96.171233 
1477.000000	96.162028 
1476.000000	96.150428 
1475.000000	96.135999 
1474.000000	96.121198 
1473.000000	96.109748 
1472.000000	96.103123 
1471.000000	96.098376 
1470.000000	96.093093 
1469.000000	96.086353 
1468.000000	96.076644 
1467.000000	96.063792 
1466.000000	96.051085 
1465.000000	96.042270 
1464.000000	96.037621 
1463.000000	96.032271 
1462.000000	96.023443 
1461.000000	96.013684 
1460.000000	96.006700 
1459.000000	96.001306 
1458.000000	95.989879 
1457.000000	95.971036 
1456.000000	95.955096 
1455.000000	95.946329 
1454.000000	95.940165 
1453.000000	95.935358 
1452.000000	95.933460 
1451.000000	95.934290 
1450.000000	95.936583 
1449.000000	95.940125 
1448.000000	95.942603 
1447.000000	95.941417 
1446.000000	95.936727 
1445.000000	95.932672 
1444.000000	95.933684 
1443.000000	95.937114 
1442.000000	95.938334 
1441.000000	95.936646 
1440.000000	95.933932 
1439.000000	95.928480 
1438.000000	95.917565 
1437.000000	95.905538 
1436.000000	95.900048 
1435.000000	95.899631 
1434.000000	95.899933 
1433.000000	95.901955 
1432.000000	95.907503 
1431.000000	95.915086 
1430.000000	95.921454 
1429.000000	95.927049 
1428.000000	95.933081 
1427.000000	95.939685 
1426.000000	95.946148 
1425.000000	95.953016 
1424.000000	95.962669 
1423.000000	95.971709 
1422.000000	95.975844 
1421.000000	95.977387 
1420.000000	95.981810 
1419.000000	95.985821 
1418.000000	95.982594 
1417.000000	95.979820 
1416.000000	95.988453 
1415.000000	96.006191 
1414.000000	96.022286 
1413.000000	96.031145 
1412.000000	96.037039 
1411.000000	96.044328 
1410.000000	96.052155 
1409.000000	96.060247 
1408.000000	96.069705 
1407.000000	96.080665 
1406.000000	96.092117 
1405.000000	96.104944 
1404.000000	96.121791 
1403.000000	96.139187 
1402.000000	96.151697 
1401.000000	96.161194 
1400.000000	96.174195 
1399.000000	96.191641 
1398.000000	96.207227 
1397.000000	96.218289 
1396.000000	96.228926 
1395.000000	96.243063 
1394.000000	96.258621 
1393.000000	96.273315 
1392.000000	96.289851 
1391.000000	96.309244 
1390.000000	96.328249 
1389.000000	96.343389 
1388.000000	96.353821 
1387.000000	96.361030 
1386.000000	96.367616 
1385.000000	96.377017 
1384.000000	96.392065 
1383.000000	96.411244 
1382.000000	96.429627 
1381.000000	96.444015 
1380.000000	96.455001 
1379.000000	96.465307 
1378.000000	96.476874 
1377.000000	96.489807 
1376.000000	96.502903 
1375.000000	96.514666 
1374.000000	96.524196 
1373.000000	96.533164 
1372.000000	96.544040 
1371.000000	96.557212 
1370.000000	96.570424 
1369.000000	96.581082 
1368.000000	96.590253 
1367.000000	96.600469 
1366.000000	96.612382 
1365.000000	96.625044 
1364.000000	96.636243 
1363.000000	96.643363 
1362.000000	96.646945 
1361.000000	96.651829 
1360.000000	96.662258 
1359.000000	96.677768 
1358.000000	96.694008 
1357.000000	96.706810 
1356.000000	96.715281 
1355.000000	96.721015 
1354.000000	96.726094 
1353.000000	96.732998 
1352.000000	96.742235 
1351.000000	96.752714 
1350.000000	96.762659 
1349.000000	96.770145 
1348.000000	96.775666 
1347.000000	96.781171 
1346.000000	96.787919 
1345.000000	96.795805 
1344.000000	96.804241 
1343.000000	96.812701 
1342.000000	96.820308 
1341.000000	96.825526 
1340.000000	96.827160 
1339.000000	96.825909 
1338.000000	96.824052 
1337.000000	96.823910 
1336.000000	96.826384 
1335.000000	96.830260 
1334.000000	96.833384 
1333.000000	96.834754 
1332.000000	96.834902 
1331.000000	96.835086 
1330.000000	96.836152 
1329.000000	96.838316 
1328.000000	96.841119 
1327.000000	96.843897 
1326.000000	96.845647 
1325.000000	96.845240 
1324.000000	96.842960 
1323.000000	96.839877 
1322.000000	96.836859 
1321.000000	96.834885 
1320.000000	96.834987 
1319.000000	96.836725 
1318.000000	96.838134 
1317.000000	96.838207 
1316.000000	96.837619 
1315.000000	96.836566 
1314.000000	96.834245 
1313.000000	96.831637 
1312.000000	96.831711 
1311.000000	96.835283 
1310.000000	96.838934 
1309.000000	96.839453 
1308.000000	96.837817 
1307.000000	96.837465 
1306.000000	96.839657 
1305.000000	96.842754 
1304.000000	96.845395 
1303.000000	96.846942 
1302.000000	96.846434 
1301.000000	96.843661 
1300.000000	96.840828 
1299.000000	96.840638 
1298.000000	96.842870 
1297.000000	96.844628 
1296.000000	96.843822 
1295.000000	96.841149 
1294.000000	96.838684 
1293.000000	96.838040 
1292.000000	96.839553 
1291.000000	96.841927 
1290.000000	96.843070 
1289.000000	96.842236 
1288.000000	96.840811 
1287.000000	96.840256 
1286.000000	96.840083 
1285.000000	96.839155 
1284.000000	96.837964 
1283.000000	96.837705 
1282.000000	96.837943 
1281.000000	96.836801 
1280.000000	96.833658 
1279.000000	96.830346 
1278.000000	96.829460 
1277.000000	96.832142 
1276.000000	96.837133 
1275.000000	96.841602 
1274.000000	96.843263 
1273.000000	96.842501 
1272.000000	96.842008 
1271.000000	96.843617 
1270.000000	96.846173 
1269.000000	96.847179 
1268.000000	96.845701 
1267.000000	96.842288 
1266.000000	96.837256 
1265.000000	96.831184 
1264.000000	96.826263 
1263.000000	96.824892 
1262.000000	96.827020 
1261.000000	96.830179 
1260.000000	96.832740 
1259.000000	96.835811 
1258.000000	96.841098 
1257.000000	96.847713 
1256.000000	96.851883 
1255.000000	96.850677 
1254.000000	96.846129 
1253.000000	96.843793 
1252.000000	96.845680 
1251.000000	96.846619 
1250.000000	96.840507 
1249.000000	96.828980 
1248.000000	96.820150 
1247.000000	96.818390 
1246.000000	96.819572 
1245.000000	96.818099 
1244.000000	96.814119 
1243.000000	96.810890 
1242.000000	96.808728 
1241.000000	96.805479 
1240.000000	96.800652 
1239.000000	96.795184 
1238.000000	96.788472 
1237.000000	96.779097 
1236.000000	96.767731 
1235.000000	96.756340 
1234.000000	96.744927 
1233.000000	96.731633 
1232.000000	96.715666 
1231.000000	96.697845 
1230.000000	96.678825 
1229.000000	96.658775 
1228.000000	96.637883 
1227.000000	96.615089 
1226.000000	96.587179 
1225.000000	96.551539 
1224.000000	96.509603 
1223.000000	96.465689 
1222.000000	96.422433 
1221.000000	96.378626 
1220.000000	96.331068 
1219.000000	96.276998 
1218.000000	96.215378 
1217.000000	96.147653 
1216.000000	96.076832 
1215.000000	96.004716 
1214.000000	95.931090 
1213.000000	95.856796 
1212.000000	95.784989 
1211.000000	95.716437 
1210.000000	95.645970 
1209.000000	95.567714 
1208.000000	95.482732 
1207.000000	95.397662 
1206.000000	95.316378 
1205.000000	95.236720 
1204.000000	95.155214 
1203.000000	95.070981 
1202.000000	94.984775 
1201.000000	94.897698 
1200.000000	94.811628 
1199.000000	94.728182 
1198.000000	94.646574 
1197.000000	94.564777 
1196.000000	94.482419 
1195.000000	94.400187 
1194.000000	94.317163 
1193.000000	94.231496 
1192.000000	94.143119 
1191.000000	94.053014 
1190.000000	93.960568 
1189.000000	93.864624 
1188.000000	93.766337 
1187.000000	93.667954 
1186.000000	93.569666 
1185.000000	93.470577 
1184.000000	93.371302 
1183.000000	93.272216 
1182.000000	93.170850 
1181.000000	93.064799 
1180.000000	92.955437 
1179.000000	92.844543 
1178.000000	92.729157 
1177.000000	92.604936 
1176.000000	92.473022 
1175.000000	92.338194 
1174.000000	92.201616 
1173.000000	92.061428 
1172.000000	91.919570 
1171.000000	91.780968 
1170.000000	91.645977 
1169.000000	91.510708 
1168.000000	91.375732 
1167.000000	91.248133 
1166.000000	91.134797 
1165.000000	91.040991 
1164.000000	90.975999 
1163.000000	90.951165 
1162.000000	90.968420 
1161.000000	91.015200 
1160.000000	91.071709 
1159.000000	91.118971 
1158.000000	91.141431 
1157.000000	91.130137 
1156.000000	91.086111 
1155.000000	91.016671 
1154.000000	90.928008 
1153.000000	90.824823 
1152.000000	90.714881 
1151.000000	90.606453 
1150.000000	90.500962 
1149.000000	90.395027 
1148.000000	90.289752 
1147.000000	90.190324 
1146.000000	90.095947 
1145.000000	89.998598 
1144.000000	89.893788 
1143.000000	89.785342 
1142.000000	89.677836 
1141.000000	89.571374 
1140.000000	89.465643 
1139.000000	89.362013 
1138.000000	89.259541 
1137.000000	89.155289 
1136.000000	89.049827 
1135.000000	88.945954 
1134.000000	88.841558 
1133.000000	88.731235 
1132.000000	88.615552 
1131.000000	88.500763 
1130.000000	88.388581 
1129.000000	88.274555 
1128.000000	88.157665 
1127.000000	88.042641 
1126.000000	87.930931 
1125.000000	87.817892 
1124.000000	87.700980 
1123.000000	87.582740 
1122.000000	87.464170 
1121.000000	87.343584 
1120.000000	87.223355 
1119.000000	87.108609 
1118.000000	86.997840 
1117.000000	86.884634 
1116.000000	86.769917 
1115.000000	86.662096 
1114.000000	86.563477 
1113.000000	86.467481 
1112.000000	86.371084 
1111.000000	86.278420 
1110.000000	86.189618 
1109.000000	86.098017 
1108.000000	86.001034 
1107.000000	85.902861 
1106.000000	85.804573 
1105.000000	85.702299 
1104.000000	85.596755 
1103.000000	85.493929 
1102.000000	85.394362 
1101.000000	85.293627 
1100.000000	85.192961 
1099.000000	85.098273 
1098.000000	85.008770 
1097.000000	84.917891 
1096.000000	84.826417 
1095.000000	84.740962 
1094.000000	84.659618 
1093.000000	84.573608 
1092.000000	84.484597 
1091.000000	84.405551 
1090.000000	84.342035 
1089.000000	84.286386 
1088.000000	84.232033 
1087.000000	84.179342 
1086.000000	84.126023 
1085.000000	84.067202 
1084.000000	84.007501 
1083.000000	83.958172 
1082.000000	83.919233 
1081.000000	83.878556 
1080.000000	83.830846 
1079.000000	83.782792 
1078.000000	83.737212 
1077.000000	83.687082 
1076.000000	83.628101 
1075.000000	83.562377 
1074.000000	83.487127 
1073.000000	83.394511 
1072.000000	83.284858 
1071.000000	83.165263 
1070.000000	83.032831 
1069.000000	82.874783 
1068.000000	82.688336 
1067.000000	82.485924 
1066.000000	82.278159 
1065.000000	82.066638 
1064.000000	81.856257 
1063.000000	81.656928 
1062.000000	81.467341 
1061.000000	81.273247 
1060.000000	81.068002 
1059.000000	80.860604 
1058.000000	80.658995 
1057.000000	80.459964 
1056.000000	80.259715 
1055.000000	80.059331 
1054.000000	79.855445 
1053.000000	79.640708 
1052.000000	79.418450 
1051.000000	79.201766 
1050.000000	78.993601 
1049.000000	78.784493 
1048.000000	78.572324 
1047.000000	78.364450 
1046.000000	78.159131 
1045.000000	77.945690 
1044.000000	77.724326 
1043.000000	77.506387 
1042.000000	77.293759 
1041.000000	77.077408 
1040.000000	76.858449 
1039.000000	76.650515 
1038.000000	76.457901 
1037.000000	76.271363 
1036.000000	76.089005 
1035.000000	75.921242 
1034.000000	75.771527 
1033.000000	75.632704 
1032.000000	75.505748 
1031.000000	75.400843 
1030.000000	75.315817 
1029.000000	75.234789 
1028.000000	75.152943 
1027.000000	75.081887 
1026.000000	75.026120 
1025.000000	74.975402 
1024.000000	74.924829 
1023.000000	74.881240 
1022.000000	74.844570 
1021.000000	74.803488 
1020.000000	74.754619 
1019.000000	74.706613 
1018.000000	74.661376 
1017.000000	74.611207 
1016.000000	74.557642 
1015.000000	74.512475 
1014.000000	74.476514 
1013.000000	74.437938 
1012.000000	74.395016 
1011.000000	74.359570 
1010.000000	74.334655 
1009.000000	74.310348 
1008.000000	74.285469 
1007.000000	74.272172 
1006.000000	74.274942 
1005.000000	74.285752 
1004.000000	74.303056 
1003.000000	74.334084 
1002.000000	74.375014 
1001.000000	74.411346 
1000.000000	74.442608 
999.000000	 74.484860 
998.000000	 74.543874 
997.000000	 74.607375 
996.000000	 74.668668 
995.000000	 74.736711 
994.000000	 74.816876 
993.000000	 74.902059 
992.000000	 74.988369 
991.000000	 75.080517 
990.000000	 75.177066 
989.000000	 75.269669 
988.000000	 75.361106 
987.000000	 75.464863 
986.000000	 75.583337 
985.000000	 75.705889 
984.000000	 75.831348 
983.000000	 75.971849 
982.000000	 76.130416 
981.000000	 76.295314 
980.000000	 76.460851 
979.000000	 76.633801 
978.000000	 76.814937 
977.000000	 76.994826 
976.000000	 77.173020 
975.000000	 77.361548 
974.000000	 77.563680 
973.000000	 77.768066 
972.000000	 77.969398 
971.000000	 78.176604 
970.000000	 78.394722 
969.000000	 78.616044 
968.000000	 78.834782 
967.000000	 79.054310 
966.000000	 79.275105 
965.000000	 79.491311 
964.000000	 79.703424 
963.000000	 79.919017 
962.000000	 80.137458 
961.000000	 80.349232 
960.000000	 80.553103 
959.000000	 80.758048 
958.000000	 80.965427 
957.000000	 81.165321 
956.000000	 81.353711 
955.000000	 81.537606 
954.000000	 81.720223 
953.000000	 81.896377 
952.000000	 82.065299 
951.000000	 82.232421 
950.000000	 82.395813 
949.000000	 82.546583 
948.000000	 82.685527 
947.000000	 82.823730 
946.000000	 82.963619 
945.000000	 83.095089 
944.000000	 83.213807 
943.000000	 83.327634 
942.000000	 83.441118 
941.000000	 83.549014 
940.000000	 83.650059 
939.000000	 83.752562 
938.000000	 83.861141 
937.000000	 83.971049 
936.000000	 84.079989 
935.000000	 84.192457 
934.000000	 84.308618 
933.000000	 84.422049 
932.000000	 84.532122 
931.000000	 84.645823 
930.000000	 84.763961 
929.000000	 84.878438 
928.000000	 84.986464 
927.000000	 85.094560 
926.000000	 85.204814 
925.000000	 85.309511 
924.000000	 85.403321 
923.000000	 85.489727 
922.000000	 85.572443 
921.000000	 85.651290 
920.000000	 85.728798 
919.000000	 85.809772 
918.000000	 85.891804 
917.000000	 85.966660 
916.000000	 86.033269 
915.000000	 86.100082 
914.000000	 86.174354 
913.000000	 86.259068 
912.000000	 86.359388 
911.000000	 86.480215 
910.000000	 86.617387 
909.000000	 86.762871 
908.000000	 86.917908 
907.000000	 87.089464 
906.000000	 87.275932 
905.000000	 87.469089 
904.000000	 87.667864 
903.000000	 87.876663 
902.000000	 88.092438 
901.000000	 88.307371 
900.000000	 88.522212 
899.000000	 88.742946 
898.000000	 88.966182 
897.000000	 89.181441 
896.000000	 89.385531 
895.000000	 89.581486 
894.000000	 89.766783 
893.000000	 89.936922 
892.000000	 90.097623 
891.000000	 90.258847 
890.000000	 90.418575 
889.000000	 90.565864 
888.000000	 90.696761 
887.000000	 90.813769 
886.000000	 90.914633 
885.000000	 90.997513 
884.000000	 91.072842 
883.000000	 91.152563 
882.000000	 91.231355 
881.000000	 91.298130 
880.000000	 91.362901 
879.000000	 91.449645 
878.000000	 91.562582 
877.000000	 91.683029 
876.000000	 91.801778 
875.000000	 91.931115 
874.000000	 92.080832 
873.000000	 92.245749 
872.000000	 92.422171 
871.000000	 92.614164 
870.000000	 92.816462 
869.000000	 93.011154 
868.000000	 93.188967 
867.000000	 93.357527 
866.000000	 93.523403 
865.000000	 93.682317 
864.000000	 93.832941 
863.000000	 93.984501 
862.000000	 94.142631 
861.000000	 94.300385 
860.000000	 94.450419 
859.000000	 94.594736 
858.000000	 94.736181 
857.000000	 94.870762 
856.000000	 94.994565 
855.000000	 95.109517 
854.000000	 95.217464 
853.000000	 95.316260 
852.000000	 95.405184 
851.000000	 95.487393 
850.000000	 95.565840 
849.000000	 95.643842 
848.000000	 95.728108 
847.000000	 95.820954 
846.000000	 95.910849 
845.000000	 95.982829 
844.000000	 96.038047 
843.000000	 96.091155 
842.000000	 96.148558 
841.000000	 96.201761 
840.000000	 96.242247 
839.000000	 96.268987 
838.000000	 96.280234 
837.000000	 96.272644 
836.000000	 96.252914 
835.000000	 96.238277 
834.000000	 96.239938 
833.000000	 96.254668 
832.000000	 96.275060 
831.000000	 96.297735 
830.000000	 96.319552 
829.000000	 96.337640 
828.000000	 96.357253 
827.000000	 96.389054 
826.000000	 96.435220 
825.000000	 96.488561 
824.000000	 96.545772 
823.000000	 96.607301 
822.000000	 96.664426 
821.000000	 96.703791 
820.000000	 96.725534 
819.000000	 96.740722 
818.000000	 96.749782 
817.000000	 96.737203 
816.000000	 96.689110 
815.000000	 96.604406 
814.000000	 96.486960 
813.000000	 96.337662 
812.000000	 96.155843 
811.000000	 95.936676 
810.000000	 95.663709 
809.000000	 95.315502 
808.000000	 94.885595 
807.000000	 94.389544 
806.000000	 93.851272 
805.000000	 93.291718 
804.000000	 92.731794 
803.000000	 92.193179 
802.000000	 91.691877 
801.000000	 91.242856 
800.000000	 90.872085 
799.000000	 90.607154 
798.000000	 90.451681 
797.000000	 90.383829 
796.000000	 90.381054 
795.000000	 90.428863 
794.000000	 90.506557 
793.000000	 90.588358 
792.000000	 90.663692 
791.000000	 90.736738 
790.000000	 90.802037 
789.000000	 90.839122 
788.000000	 90.833973 
787.000000	 90.786690 
786.000000	 90.695346 
785.000000	 90.552305 
784.000000	 90.361820 
783.000000	 90.143721 
782.000000	 89.916122 
781.000000	 89.693274 
780.000000	 89.502765 
779.000000	 89.380817 
778.000000	 89.341761 
777.000000	 89.371104 
776.000000	 89.453733 
775.000000	 89.587267 
774.000000	 89.761985 
773.000000	 89.952365 
772.000000	 90.139347 
771.000000	 90.321380 
770.000000	 90.495311 
769.000000	 90.646912 
768.000000	 90.769551 
767.000000	 90.873009 
766.000000	 90.964551 
765.000000	 91.039909 
764.000000	 91.102417 
763.000000	 91.171758 
762.000000	 91.261447 
761.000000	 91.363516 
760.000000	 91.465900 
759.000000	 91.568852 
758.000000	 91.674073 
757.000000	 91.775219 
756.000000	 91.872450 
755.000000	 91.981444 
754.000000	 92.112756 
753.000000	 92.251926 
752.000000	 92.372342 
751.000000	 92.461187 
750.000000	 92.526471 
749.000000	 92.587828 
748.000000	 92.665490 
747.000000	 92.766830 
746.000000	 92.876977 
745.000000	 92.972733 
744.000000	 93.050971 
743.000000	 93.132866 
742.000000	 93.236501 
741.000000	 93.358125 
740.000000	 93.484905 
739.000000	 93.611447 
738.000000	 93.736170 
737.000000	 93.853660 
736.000000	 93.959097 
735.000000	 94.052341 
734.000000	 94.133134 
733.000000	 94.200657 
732.000000	 94.259535 
731.000000	 94.316142 
730.000000	 94.367060 
729.000000	 94.402043 
728.000000	 94.422186 
727.000000	 94.443075 
726.000000	 94.477376 
725.000000	 94.527982 
724.000000	 94.597289 
723.000000	 94.685685 
722.000000	 94.779011 
721.000000	 94.856299 
720.000000	 94.916473 
719.000000	 94.979295 
718.000000	 95.053712 
717.000000	 95.126367 
716.000000	 95.186742 
715.000000	 95.243261 
714.000000	 95.306931 
713.000000	 95.375765 
712.000000	 95.445395 
711.000000	 95.518472 
710.000000	 95.592716 
709.000000	 95.654496 
708.000000	 95.695606 
707.000000	 95.724287 
706.000000	 95.747065 
705.000000	 95.754355 
704.000000	 95.734591 
703.000000	 95.686487 
702.000000	 95.607399 
701.000000	 95.481874 
700.000000	 95.293707 
699.000000	 95.044359 
698.000000	 94.752929 
697.000000	 94.453164 
696.000000	 94.196831 
695.000000	 94.038412 
694.000000	 94.002898 
693.000000	 94.071609 
692.000000	 94.204021 
691.000000	 94.367749 
690.000000	 94.543286 
689.000000	 94.717467 
688.000000	 94.882797 
687.000000	 95.033803 
686.000000	 95.161921 
685.000000	 95.262766 
684.000000	 95.348438 
683.000000	 95.439030 
682.000000	 95.538589 
681.000000	 95.635292 
680.000000	 95.724195 
679.000000	 95.813912 
678.000000	 95.902527 
677.000000	 95.974360 
676.000000	 96.034407 
675.000000	 96.106434 
674.000000	 96.196261 
673.000000	 96.283482 
672.000000	 96.353375 
671.000000	 96.424205 
670.000000	 96.535452 
669.000000	 96.694515 
668.000000	 96.793645 
667.000000	 96.773520 
666.000000	 96.735867 
665.000000	 96.718212 
664.000000	 96.705496 
663.000000	 96.710182 
662.000000	 96.752273 
661.000000	 96.812838 
660.000000	 96.867593 
659.000000	 96.918660 
658.000000	 96.969585 
657.000000	 96.995621 
656.000000	 96.976718 
655.000000	 96.920416 
654.000000	 96.844987 
653.000000	 96.765877 
652.000000	 96.711471 
651.000000	 96.717796 
650.000000	 96.781316 

