4000.000000	95.993514 
3999.000000	95.990593 
3998.000000	95.985352 
3997.000000	95.979402 
3996.000000	95.974617 
3995.000000	95.972124 
3994.000000	95.972138 
3993.000000	95.973919 
3992.000000	95.975954 
3991.000000	95.977007 
3990.000000	95.977117 
3989.000000	95.977104 
3988.000000	95.977323 
3987.000000	95.977491 
3986.000000	95.977464 
3985.000000	95.977548 
3984.000000	95.977896 
3983.000000	95.978210 
3982.000000	95.978402 
3981.000000	95.978842 
3980.000000	95.979567 
3979.000000	95.979786 
3978.000000	95.978763 
3977.000000	95.976853 
3976.000000	95.975224 
3975.000000	95.974463 
3974.000000	95.974043 
3973.000000	95.973192 
3972.000000	95.971660 
3971.000000	95.969712 
3970.000000	95.967809 
3969.000000	95.966474 
3968.000000	95.965998 
3967.000000	95.966170 
3966.000000	95.966508 
3965.000000	95.966605 
3964.000000	95.966305 
3963.000000	95.965676 
3962.000000	95.964951 
3961.000000	95.964385 
3960.000000	95.964031 
3959.000000	95.963770 
3958.000000	95.963527 
3957.000000	95.963317 
3956.000000	95.963104 
3955.000000	95.962827 
3954.000000	95.962498 
3953.000000	95.962163 
3952.000000	95.961805 
3951.000000	95.961425 
3950.000000	95.961038 
3949.000000	95.960660 
3948.000000	95.960305 
3947.000000	95.959976 
3946.000000	95.959661 
3945.000000	95.959346 
3944.000000	95.959019 
3943.000000	95.958682 
3942.000000	95.958343 
3941.000000	95.958009 
3940.000000	95.957680 
3939.000000	95.957353 
3938.000000	95.957029 
3937.000000	95.956712 
3936.000000	95.956409 
3935.000000	95.956117 
3934.000000	95.955830 
3933.000000	95.955539 
3932.000000	95.955247 
3931.000000	95.954965 
3930.000000	95.954704 
3929.000000	95.954470 
3928.000000	95.954249 
3927.000000	95.954020 
3926.000000	95.953768 
3925.000000	95.953494 
3924.000000	95.953208 
3923.000000	95.952914 
3922.000000	95.952606 
3921.000000	95.952280 
3920.000000	95.951942 
3919.000000	95.951605 
3918.000000	95.951271 
3917.000000	95.950934 
3916.000000	95.950590 
3915.000000	95.950243 
3914.000000	95.949904 
3913.000000	95.949573 
3912.000000	95.949242 
3911.000000	95.948909 
3910.000000	95.948581 
3909.000000	95.948271 
3908.000000	95.947972 
3907.000000	95.947660 
3906.000000	95.947311 
3905.000000	95.946916 
3904.000000	95.946491 
3903.000000	95.946061 
3902.000000	95.945645 
3901.000000	95.945250 
3900.000000	95.944879 
3899.000000	95.944534 
3898.000000	95.944223 
3897.000000	95.943944 
3896.000000	95.943683 
3895.000000	95.943428 
3894.000000	95.943176 
3893.000000	95.942928 
3892.000000	95.942676 
3891.000000	95.942417 
3890.000000	95.942162 
3889.000000	95.941925 
3888.000000	95.941705 
3887.000000	95.941488 
3886.000000	95.941265 
3885.000000	95.941047 
3884.000000	95.940844 
3883.000000	95.940645 
3882.000000	95.940437 
3881.000000	95.940227 
3880.000000	95.940043 
3879.000000	95.939912 
3878.000000	95.939832 
3877.000000	95.939780 
3876.000000	95.939733 
3875.000000	95.939681 
3874.000000	95.939632 
3873.000000	95.939595 
3872.000000	95.939564 
3871.000000	95.939523 
3870.000000	95.939481 
3869.000000	95.939465 
3868.000000	95.939486 
3867.000000	95.939520 
3866.000000	95.939537 
3865.000000	95.939547 
3864.000000	95.939580 
3863.000000	95.939642 
3862.000000	95.939719 
3861.000000	95.939801 
3860.000000	95.939892 
3859.000000	95.939993 
3858.000000	95.940089 
3857.000000	95.940169 
3856.000000	95.940229 
3855.000000	95.940264 
3854.000000	95.940279 
3853.000000	95.940287 
3852.000000	95.940297 
3851.000000	95.940303 
3850.000000	95.940307 
3849.000000	95.940316 
3848.000000	95.940337 
3847.000000	95.940370 
3846.000000	95.940406 
3845.000000	95.940439 
3844.000000	95.940465 
3843.000000	95.940487 
3842.000000	95.940518 
3841.000000	95.940568 
3840.000000	95.940639 
3839.000000	95.940717 
3838.000000	95.940780 
3837.000000	95.940808 
3836.000000	95.940799 
3835.000000	95.940768 
3834.000000	95.940733 
3833.000000	95.940707 
3832.000000	95.940696 
3831.000000	95.940703 
3830.000000	95.940727 
3829.000000	95.940770 
3828.000000	95.940830 
3827.000000	95.940894 
3826.000000	95.940949 
3825.000000	95.940996 
3824.000000	95.941047 
3823.000000	95.941096 
3822.000000	95.941130 
3821.000000	95.941153 
3820.000000	95.941191 
3819.000000	95.941258 
3818.000000	95.941336 
3817.000000	95.941398 
3816.000000	95.941445 
3815.000000	95.941497 
3814.000000	95.941560 
3813.000000	95.941615 
3812.000000	95.941656 
3811.000000	95.941695 
3810.000000	95.941754 
3809.000000	95.941835 
3808.000000	95.941916 
3807.000000	95.941983 
3806.000000	95.942038 
3805.000000	95.942096 
3804.000000	95.942154 
3803.000000	95.942201 
3802.000000	95.942233 
3801.000000	95.942271 
3800.000000	95.942322 
3799.000000	95.942362 
3798.000000	95.942368 
3797.000000	95.942346 
3796.000000	95.942324 
3795.000000	95.942313 
3794.000000	95.942298 
3793.000000	95.942263 
3792.000000	95.942203 
3791.000000	95.942118 
3790.000000	95.942001 
3789.000000	95.941850 
3788.000000	95.941661 
3787.000000	95.941429 
3786.000000	95.941143 
3785.000000	95.940810 
3784.000000	95.940446 
3783.000000	95.940060 
3782.000000	95.939644 
3781.000000	95.939199 
3780.000000	95.938744 
3779.000000	95.938296 
3778.000000	95.937845 
3777.000000	95.937365 
3776.000000	95.936848 
3775.000000	95.936317 
3774.000000	95.935798 
3773.000000	95.935299 
3772.000000	95.934814 
3771.000000	95.934343 
3770.000000	95.933895 
3769.000000	95.933465 
3768.000000	95.933030 
3767.000000	95.932568 
3766.000000	95.932081 
3765.000000	95.931589 
3764.000000	95.931112 
3763.000000	95.930645 
3762.000000	95.930170 
3761.000000	95.929677 
3760.000000	95.929168 
3759.000000	95.928641 
3758.000000	95.928081 
3757.000000	95.927483 
3756.000000	95.926867 
3755.000000	95.926249 
3754.000000	95.925624 
3753.000000	95.924986 
3752.000000	95.924340 
3751.000000	95.923682 
3750.000000	95.923016 
3749.000000	95.922224 
3748.000000	95.921339 
3747.000000	95.920732 
3746.000000	95.920273 
3745.000000	95.919043 
3744.000000	95.917450 
3743.000000	95.916902 
3742.000000	95.916852 
3741.000000	95.915507 
3740.000000	95.912717 
3739.000000	95.911022 
3738.000000	95.911768 
3737.000000	95.911903 
3736.000000	95.908807 
3735.000000	95.905842 
3734.000000	95.907281 
3733.000000	95.910531 
3732.000000	95.910940 
3731.000000	95.909082 
3730.000000	95.908279 
3729.000000	95.908584 
3728.000000	95.906326 
3727.000000	95.900151 
3726.000000	95.894637 
3725.000000	95.893269 
3724.000000	95.893091 
3723.000000	95.890529 
3722.000000	95.887156 
3721.000000	95.885676 
3720.000000	95.884621 
3719.000000	95.880960 
3718.000000	95.873189 
3717.000000	95.864291 
3716.000000	95.859377 
3715.000000	95.858235 
3714.000000	95.855172 
3713.000000	95.847174 
3712.000000	95.839193 
3711.000000	95.836220 
3710.000000	95.834696 
3709.000000	95.829230 
3708.000000	95.818245 
3707.000000	95.803845 
3706.000000	95.790225 
3705.000000	95.780281 
3704.000000	95.773001 
3703.000000	95.764293 
3702.000000	95.750382 
3701.000000	95.730687 
3700.000000	95.708525 
3699.000000	95.688421 
3698.000000	95.671086 
3697.000000	95.655272 
3696.000000	95.643973 
3695.000000	95.639022 
3694.000000	95.635575 
3693.000000	95.629430 
3692.000000	95.624362 
3691.000000	95.626230 
3690.000000	95.631882 
3689.000000	95.633999 
3688.000000	95.631107 
3687.000000	95.626710 
3686.000000	95.621297 
3685.000000	95.610326 
3684.000000	95.593210 
3683.000000	95.578493 
3682.000000	95.571639 
3681.000000	95.563486 
3680.000000	95.544790 
3679.000000	95.522610 
3678.000000	95.509022 
3677.000000	95.494340 
3676.000000	95.464335 
3675.000000	95.431643 
3674.000000	95.412284 
3673.000000	95.402123 
3672.000000	95.385478 
3671.000000	95.354718 
3670.000000	95.325527 
3669.000000	95.311728 
3668.000000	95.299771 
3667.000000	95.274650 
3666.000000	95.240817 
3665.000000	95.211027 
3664.000000	95.191094 
3663.000000	95.176269 
3662.000000	95.157109 
3661.000000	95.129526 
3660.000000	95.099073 
3659.000000	95.072516 
3658.000000	95.049341 
3657.000000	95.021497 
3656.000000	94.987308 
3655.000000	94.953946 
3654.000000	94.926416 
3653.000000	94.901597 
3652.000000	94.871419 
3651.000000	94.835584 
3650.000000	94.806615 
3649.000000	94.788886 
3648.000000	94.770246 
3647.000000	94.745995 
3646.000000	94.724529 
3645.000000	94.710350 
3644.000000	94.697893 
3643.000000	94.680893 
3642.000000	94.659559 
3641.000000	94.638537 
3640.000000	94.617820 
3639.000000	94.592459 
3638.000000	94.562617 
3637.000000	94.534428 
3636.000000	94.509849 
3635.000000	94.481712 
3634.000000	94.447235 
3633.000000	94.416097 
3632.000000	94.397498 
3631.000000	94.383502 
3630.000000	94.358436 
3629.000000	94.331872 
3628.000000	94.323026 
3627.000000	94.322627 
3626.000000	94.311756 
3625.000000	94.289825 
3624.000000	94.270881 
3623.000000	94.267448 
3622.000000	94.277030 
3621.000000	94.285129 
3620.000000	94.283586 
3619.000000	94.278754 
3618.000000	94.277913 
3617.000000	94.282837 
3616.000000	94.294988 
3615.000000	94.313243 
3614.000000	94.334636 
3613.000000	94.359046 
3612.000000	94.386850 
3611.000000	94.413052 
3610.000000	94.430185 
3609.000000	94.437910 
3608.000000	94.445001 
3607.000000	94.458530 
3606.000000	94.476001 
3605.000000	94.493266 
3604.000000	94.511412 
3603.000000	94.533373 
3602.000000	94.557944 
3601.000000	94.578924 
3600.000000	94.592733 
3599.000000	94.599905 
3598.000000	94.603139 
3597.000000	94.606945 
3596.000000	94.616449 
3595.000000	94.630050 
3594.000000	94.641279 
3593.000000	94.645551 
3592.000000	94.645036 
3591.000000	94.646100 
3590.000000	94.651015 
3589.000000	94.655903 
3588.000000	94.658278 
3587.000000	94.660832 
3586.000000	94.664725 
3585.000000	94.668553 
3584.000000	94.673358 
3583.000000	94.681816 
3582.000000	94.694272 
3581.000000	94.706152 
3580.000000	94.711900 
3579.000000	94.709816 
3578.000000	94.703237 
3577.000000	94.697123 
3576.000000	94.694265 
3575.000000	94.694125 
3574.000000	94.694445 
3573.000000	94.694076 
3572.000000	94.693113 
3571.000000	94.692217 
3570.000000	94.690225 
3569.000000	94.683783 
3568.000000	94.673097 
3567.000000	94.665181 
3566.000000	94.664680 
3565.000000	94.667801 
3564.000000	94.668849 
3563.000000	94.666355 
3562.000000	94.662826 
3561.000000	94.661458 
3560.000000	94.662858 
3559.000000	94.664850 
3558.000000	94.664869 
3557.000000	94.662894 
3556.000000	94.661305 
3555.000000	94.661985 
3554.000000	94.663992 
3553.000000	94.665212 
3552.000000	94.665193 
3551.000000	94.664868 
3550.000000	94.664544 
3549.000000	94.663585 
3548.000000	94.661665 
3547.000000	94.658998 
3546.000000	94.655542 
3545.000000	94.651604 
3544.000000	94.648931 
3543.000000	94.649305 
3542.000000	94.652286 
3541.000000	94.655748 
3540.000000	94.658075 
3539.000000	94.659077 
3538.000000	94.659143 
3537.000000	94.658632 
3536.000000	94.657958 
3535.000000	94.657358 
3534.000000	94.656793 
3533.000000	94.656154 
3532.000000	94.655589 
3531.000000	94.655357 
3530.000000	94.655469 
3529.000000	94.655625 
3528.000000	94.655496 
3527.000000	94.654978 
3526.000000	94.654143 
3525.000000	94.653147 
3524.000000	94.652266 
3523.000000	94.651805 
3522.000000	94.651836 
3521.000000	94.652145 
3520.000000	94.652418 
3519.000000	94.652484 
3518.000000	94.652324 
3517.000000	94.651930 
3516.000000	94.651305 
3515.000000	94.650552 
3514.000000	94.649905 
3513.000000	94.649523 
3512.000000	94.649299 
3511.000000	94.648914 
3510.000000	94.648158 
3509.000000	94.647106 
3508.000000	94.646052 
3507.000000	94.645236 
3506.000000	94.644682 
3505.000000	94.644249 
3504.000000	94.643768 
3503.000000	94.643161 
3502.000000	94.642426 
3501.000000	94.641558 
3500.000000	94.640551 
3499.000000	94.639462 
3498.000000	94.638410 
3497.000000	94.637478 
3496.000000	94.636529 
3495.000000	94.635222 
3494.000000	94.633363 
3493.000000	94.631232 
3492.000000	94.629364 
3491.000000	94.627952 
3490.000000	94.626671 
3489.000000	94.625133 
3488.000000	94.623390 
3487.000000	94.621815 
3486.000000	94.620594 
3485.000000	94.619618 
3484.000000	94.618720 
3483.000000	94.617686 
3482.000000	94.616197 
3481.000000	94.614121 
3480.000000	94.611857 
3479.000000	94.609993 
3478.000000	94.608543 
3477.000000	94.606883 
3476.000000	94.604463 
3475.000000	94.601381 
3474.000000	94.598194 
3473.000000	94.595491 
3472.000000	94.593602 
3471.000000	94.592377 
3470.000000	94.591197 
3469.000000	94.589459 
3468.000000	94.587159 
3467.000000	94.585009 
3466.000000	94.583776 
3465.000000	94.583329 
3464.000000	94.582495 
3463.000000	94.580038 
3462.000000	94.575694 
3461.000000	94.570288 
3460.000000	94.565052 
3459.000000	94.560712 
3458.000000	94.557180 
3457.000000	94.553829 
3456.000000	94.550054 
3455.000000	94.545779 
3454.000000	94.541644 
3453.000000	94.538511 
3452.000000	94.536921 
3451.000000	94.536735 
3450.000000	94.537003 
3449.000000	94.536333 
3448.000000	94.533701 
3447.000000	94.529061 
3446.000000	94.523069 
3445.000000	94.516546 
3444.000000	94.510330 
3443.000000	94.505283 
3442.000000	94.501844 
3441.000000	94.499469 
3440.000000	94.496923 
3439.000000	94.493348 
3438.000000	94.488942 
3437.000000	94.484521 
3436.000000	94.480785 
3435.000000	94.478037 
3434.000000	94.476204 
3433.000000	94.474712 
3432.000000	94.472784 
3431.000000	94.470018 
3430.000000	94.466565 
3429.000000	94.462792 
3428.000000	94.458862 
3427.000000	94.454855 
3426.000000	94.451185 
3425.000000	94.448627 
3424.000000	94.447459 
3423.000000	94.446538 
3422.000000	94.443954 
3421.000000	94.439193 
3420.000000	94.434186 
3419.000000	94.431352 
3418.000000	94.430948 
3417.000000	94.431174 
3416.000000	94.430626 
3415.000000	94.429610 
3414.000000	94.428664 
3413.000000	94.426986 
3412.000000	94.423276 
3411.000000	94.417701 
3410.000000	94.412210 
3409.000000	94.408859 
3408.000000	94.408192 
3407.000000	94.409132 
3406.000000	94.410135 
3405.000000	94.410571 
3404.000000	94.410980 
3403.000000	94.411947 
3402.000000	94.413152 
3401.000000	94.413638 
3400.000000	94.412681 
3399.000000	94.410085 
3398.000000	94.406250 
3397.000000	94.402453 
3396.000000	94.400411 
3395.000000	94.400884 
3394.000000	94.402936 
3393.000000	94.404973 
3392.000000	94.406324 
3391.000000	94.407350 
3390.000000	94.408404 
3389.000000	94.409434 
3388.000000	94.410407 
3387.000000	94.411386 
3386.000000	94.412157 
3385.000000	94.412254 
3384.000000	94.411511 
3383.000000	94.410377 
3382.000000	94.409874 
3381.000000	94.411135 
3380.000000	94.414510 
3379.000000	94.418832 
3378.000000	94.422252 
3377.000000	94.424351 
3376.000000	94.426566 
3375.000000	94.430060 
3374.000000	94.433938 
3373.000000	94.436362 
3372.000000	94.436960 
3371.000000	94.437215 
3370.000000	94.438549 
3369.000000	94.440826 
3368.000000	94.443008 
3367.000000	94.444584 
3366.000000	94.445808 
3365.000000	94.446857 
3364.000000	94.447412 
3363.000000	94.447223 
3362.000000	94.446795 
3361.000000	94.447211 
3360.000000	94.449222 
3359.000000	94.452659 
3358.000000	94.456637 
3357.000000	94.460281 
3356.000000	94.463275 
3355.000000	94.465868 
3354.000000	94.468532 
3353.000000	94.471613 
3352.000000	94.475063 
3351.000000	94.478439 
3350.000000	94.481243 
3349.000000	94.483310 
3348.000000	94.484916 
3347.000000	94.486542 
3346.000000	94.488541 
3345.000000	94.490925 
3344.000000	94.493371 
3343.000000	94.495506 
3342.000000	94.497309 
3341.000000	94.499159 
3340.000000	94.501380 
3339.000000	94.503864 
3338.000000	94.506242 
3337.000000	94.508315 
3336.000000	94.510213 
3335.000000	94.512190 
3334.000000	94.514368 
3333.000000	94.516682 
3332.000000	94.519004 
3331.000000	94.521261 
3330.000000	94.523475 
3329.000000	94.525706 
3328.000000	94.527986 
3327.000000	94.530299 
3326.000000	94.532602 
3325.000000	94.534862 
3324.000000	94.537067 
3323.000000	94.539230 
3322.000000	94.541376 
3321.000000	94.543528 
3320.000000	94.545694 
3319.000000	94.547871 
3318.000000	94.550050 
3317.000000	94.552226 
3316.000000	94.554396 
3315.000000	94.556563 
3314.000000	94.558728 
3313.000000	94.560894 
3312.000000	94.563063 
3311.000000	94.565235 
3310.000000	94.567409 
3309.000000	94.569585 
3308.000000	94.571757 
3307.000000	94.573925 
3306.000000	94.576094 
3305.000000	94.578275 
3304.000000	94.580483 
3303.000000	94.582727 
3302.000000	94.585006 
3301.000000	94.587310 
3300.000000	94.589625 
3299.000000	94.591939 
3298.000000	94.594247 
3297.000000	94.596556 
3296.000000	94.598882 
3295.000000	94.601242 
3294.000000	94.603637 
3293.000000	94.606061 
3292.000000	94.608499 
3291.000000	94.610940 
3290.000000	94.613380 
3289.000000	94.615818 
3288.000000	94.618256 
3287.000000	94.620697 
3286.000000	94.623145 
3285.000000	94.625604 
3284.000000	94.628077 
3283.000000	94.630569 
3282.000000	94.633087 
3281.000000	94.635637 
3280.000000	94.638220 
3279.000000	94.640829 
3278.000000	94.643459 
3277.000000	94.646111 
3276.000000	94.648791 
3275.000000	94.651502 
3274.000000	94.654242 
3273.000000	94.657002 
3272.000000	94.659778 
3271.000000	94.662567 
3270.000000	94.665368 
3269.000000	94.668176 
3268.000000	94.670990 
3267.000000	94.673813 
3266.000000	94.676659 
3265.000000	94.679536 
3264.000000	94.682444 
3263.000000	94.685372 
3262.000000	94.688300 
3261.000000	94.691216 
3260.000000	94.694118 
3259.000000	94.697010 
3258.000000	94.699900 
3257.000000	94.702799 
3256.000000	94.705717 
3255.000000	94.708655 
3254.000000	94.711603 
3253.000000	94.714546 
3252.000000	94.717479 
3251.000000	94.720405 
3250.000000	94.723335 
3249.000000	94.726270 
3248.000000	94.729212 
3247.000000	94.732162 
3246.000000	94.735121 
3245.000000	94.738093 
3244.000000	94.741076 
3243.000000	94.744069 
3242.000000	94.747071 
3241.000000	94.750085 
3240.000000	94.753126 
3239.000000	94.756211 
3238.000000	94.759342 
3237.000000	94.762518 
3236.000000	94.765732 
3235.000000	94.768965 
3234.000000	94.772170 
3233.000000	94.775315 
3232.000000	94.778399 
3231.000000	94.781475 
3230.000000	94.784600 
3229.000000	94.787781 
3228.000000	94.790984 
3227.000000	94.794175 
3226.000000	94.797374 
3225.000000	94.800626 
3224.000000	94.803922 
3223.000000	94.807188 
3222.000000	94.810382 
3221.000000	94.813563 
3220.000000	94.816818 
3219.000000	94.820144 
3218.000000	94.823474 
3217.000000	94.826780 
3216.000000	94.830107 
3215.000000	94.833479 
3214.000000	94.836859 
3213.000000	94.840224 
3212.000000	94.843617 
3211.000000	94.847091 
3210.000000	94.850647 
3209.000000	94.854246 
3208.000000	94.857862 
3207.000000	94.861453 
3206.000000	94.864921 
3205.000000	94.868214 
3204.000000	94.871494 
3203.000000	94.875089 
3202.000000	94.879201 
3201.000000	94.883682 
3200.000000	94.888122 
3199.000000	94.892224 
3198.000000	94.896063 
3197.000000	94.899912 
3196.000000	94.903828 
3195.000000	94.907554 
3194.000000	94.910927 
3193.000000	94.914244 
3192.000000	94.918024 
3191.000000	94.922357 
3190.000000	94.926669 
3189.000000	94.930255 
3188.000000	94.932949 
3187.000000	94.935291 
3186.000000	94.938101 
3185.000000	94.941769 
3184.000000	94.946094 
3183.000000	94.950645 
3182.000000	94.955234 
3181.000000	94.959833 
3180.000000	94.964173 
3179.000000	94.967875 
3178.000000	94.971009 
3177.000000	94.974175 
3176.000000	94.977793 
3175.000000	94.981711 
3174.000000	94.985753 
3173.000000	94.990236 
3172.000000	94.995456 
3171.000000	95.000893 
3170.000000	95.005542 
3169.000000	95.008991 
3168.000000	95.011617 
3167.000000	95.013934 
3166.000000	95.016224 
3165.000000	95.018768 
3164.000000	95.021804 
3163.000000	95.025159 
3162.000000	95.028362 
3161.000000	95.031207 
3160.000000	95.033896 
3159.000000	95.036653 
3158.000000	95.039619 
3157.000000	95.043119 
3156.000000	95.047475 
3155.000000	95.052457 
3154.000000	95.057399 
3153.000000	95.061970 
3152.000000	95.066359 
3151.000000	95.070571 
3150.000000	95.074082 
3149.000000	95.076501 
3148.000000	95.078201 
3147.000000	95.080044 
3146.000000	95.082731 
3145.000000	95.086552 
3144.000000	95.091356 
3143.000000	95.096445 
3142.000000	95.100830 
3141.000000	95.104095 
3140.000000	95.106735 
3139.000000	95.109571 
3138.000000	95.112957 
3137.000000	95.116669 
3136.000000	95.120220 
3135.000000	95.123114 
3134.000000	95.125178 
3133.000000	95.126955 
3132.000000	95.129405 
3131.000000	95.132936 
3130.000000	95.137073 
3129.000000	95.141228 
3128.000000	95.145453 
3127.000000	95.150046 
3126.000000	95.154802 
3125.000000	95.159171 
3124.000000	95.162979 
3123.000000	95.166502 
3122.000000	95.169884 
3121.000000	95.173010 
3120.000000	95.175945 
3119.000000	95.178992 
3118.000000	95.182275 
3117.000000	95.185561 
3116.000000	95.188565 
3115.000000	95.191252 
3114.000000	95.193818 
3113.000000	95.196524 
3112.000000	95.199579 
3111.000000	95.202991 
3110.000000	95.206474 
3109.000000	95.209582 
3108.000000	95.212100 
3107.000000	95.214313 
3106.000000	95.216767 
3105.000000	95.219650 
3104.000000	95.222545 
3103.000000	95.224865 
3102.000000	95.226430 
3101.000000	95.227538 
3100.000000	95.228502 
3099.000000	95.229494 
3098.000000	95.231018 
3097.000000	95.233949 
3096.000000	95.238627 
3095.000000	95.244071 
3094.000000	95.248674 
3093.000000	95.251807 
3092.000000	95.254090 
3091.000000	95.256324 
3090.000000	95.258651 
3089.000000	95.260831 
3088.000000	95.262769 
3087.000000	95.264597 
3086.000000	95.266625 
3085.000000	95.269275 
3084.000000	95.272610 
3083.000000	95.275903 
3082.000000	95.278268 
3081.000000	95.279859 
3080.000000	95.281806 
3079.000000	95.284664 
3078.000000	95.287691 
3077.000000	95.290164 
3076.000000	95.292487 
3075.000000	95.295225 
3074.000000	95.297839 
3073.000000	95.299466 
3072.000000	95.300425 
3071.000000	95.301782 
3070.000000	95.303805 
3069.000000	95.306009 
3068.000000	95.308419 
3067.000000	95.311468 
3066.000000	95.314703 
3065.000000	95.316881 
3064.000000	95.317479 
3063.000000	95.317044 
3062.000000	95.316079 
3061.000000	95.314730 
3060.000000	95.313654 
3059.000000	95.314005 
3058.000000	95.316221 
3057.000000	95.319657 
3056.000000	95.323492 
3055.000000	95.327130 
3054.000000	95.329641 
3053.000000	95.330100 
3052.000000	95.329095 
3051.000000	95.328848 
3050.000000	95.331060 
3049.000000	95.335315 
3048.000000	95.340001 
3047.000000	95.344008 
3046.000000	95.346850 
3045.000000	95.348067 
3044.000000	95.347736 
3043.000000	95.347200 
3042.000000	95.348056 
3041.000000	95.350130 
3040.000000	95.351292 
3039.000000	95.349860 
3038.000000	95.346648 
3037.000000	95.344195 
3036.000000	95.344023 
3035.000000	95.345084 
3034.000000	95.345210 
3033.000000	95.343598 
3032.000000	95.341354 
3031.000000	95.339912 
3030.000000	95.339584 
3029.000000	95.339692 
3028.000000	95.339320 
3027.000000	95.337680 
3026.000000	95.334555 
3025.000000	95.330916 
3024.000000	95.328529 
3023.000000	95.328203 
3022.000000	95.328814 
3021.000000	95.328711 
3020.000000	95.327729 
3019.000000	95.327012 
3018.000000	95.327213 
3017.000000	95.327804 
3016.000000	95.328079 
3015.000000	95.327930 
3014.000000	95.327539 
3013.000000	95.326949 
3012.000000	95.325956 
3011.000000	95.324043 
3010.000000	95.320680 
3009.000000	95.316150 
3008.000000	95.311677 
3007.000000	95.308166 
3006.000000	95.305176 
3005.000000	95.301876 
3004.000000	95.298642 
3003.000000	95.296787 
3002.000000	95.296930 
3001.000000	95.298485 
3000.000000	95.300493 
2999.000000	95.301948 
2998.000000	95.301436 
2997.000000	95.297690 
2996.000000	95.290937 
2995.000000	95.283219 
2994.000000	95.276974 
2993.000000	95.273506 
2992.000000	95.272548 
2991.000000	95.272551 
2990.000000	95.271488 
2989.000000	95.268349 
2988.000000	95.264178 
2987.000000	95.261189 
2986.000000	95.260933 
2985.000000	95.263673 
2984.000000	95.268875 
2983.000000	95.275352 
2982.000000	95.281227 
2981.000000	95.284922 
2980.000000	95.286368 
2979.000000	95.286444 
2978.000000	95.285374 
2977.000000	95.282777 
2976.000000	95.279353 
2975.000000	95.277127 
2974.000000	95.277403 
2973.000000	95.279489 
2972.000000	95.281943 
2971.000000	95.284136 
2970.000000	95.285873 
2969.000000	95.286371 
2968.000000	95.284735 
2967.000000	95.281269 
2966.000000	95.277656 
2965.000000	95.275855 
2964.000000	95.277018 
2963.000000	95.281106 
2962.000000	95.287070 
2961.000000	95.293626 
2960.000000	95.300272 
2959.000000	95.307408 
2958.000000	95.315335 
2957.000000	95.323458 
2956.000000	95.330602 
2955.000000	95.335684 
2954.000000	95.338050 
2953.000000	95.337974 
2952.000000	95.337295 
2951.000000	95.338689 
2950.000000	95.343202 
2949.000000	95.348752 
2948.000000	95.352050 
2947.000000	95.351926 
2946.000000	95.350060 
2945.000000	95.348521 
2944.000000	95.347568 
2943.000000	95.346401 
2942.000000	95.344996 
2941.000000	95.344024 
2940.000000	95.343365 
2939.000000	95.341967 
2938.000000	95.339392 
2937.000000	95.336533 
2936.000000	95.334314 
2935.000000	95.332466 
2934.000000	95.330232 
2933.000000	95.327668 
2932.000000	95.325486 
2931.000000	95.324101 
2930.000000	95.323690 
2929.000000	95.324720 
2928.000000	95.327238 
2927.000000	95.329698 
2926.000000	95.329900 
2925.000000	95.327629 
2924.000000	95.325312 
2923.000000	95.325429 
2922.000000	95.328181 
2921.000000	95.332227 
2920.000000	95.336814 
2919.000000	95.342217 
2918.000000	95.348383 
2917.000000	95.354160 
2916.000000	95.358135 
2915.000000	95.359954 
2914.000000	95.360768 
2913.000000	95.362358 
2912.000000	95.365458 
2911.000000	95.368795 
2910.000000	95.370272 
2909.000000	95.369404 
2908.000000	95.368109 
2907.000000	95.368682 
2906.000000	95.371322 
2905.000000	95.374251 
2904.000000	95.375759 
2903.000000	95.376135 
2902.000000	95.377230 
2901.000000	95.380433 
2900.000000	95.385528 
2899.000000	95.390858 
2898.000000	95.394995 
2897.000000	95.397981 
2896.000000	95.400815 
2895.000000	95.403905 
2894.000000	95.406685 
2893.000000	95.408902 
2892.000000	95.411488 
2891.000000	95.415488 
2890.000000	95.420590 
2889.000000	95.425407 
2888.000000	95.429050 
2887.000000	95.431689 
2886.000000	95.433661 
2885.000000	95.434959 
2884.000000	95.435948 
2883.000000	95.437774 
2882.000000	95.441307 
2881.000000	95.446032 
2880.000000	95.450593 
2879.000000	95.454388 
2878.000000	95.457970 
2877.000000	95.461828 
2876.000000	95.465538 
2875.000000	95.468608 
2874.000000	95.471547 
2873.000000	95.475165 
2872.000000	95.478924 
2871.000000	95.481073 
2870.000000	95.480780 
2869.000000	95.479499 
2868.000000	95.479702 
2867.000000	95.482355 
2866.000000	95.486206 
2865.000000	95.489227 
2864.000000	95.490497 
2863.000000	95.490936 
2862.000000	95.492560 
2861.000000	95.496719 
2860.000000	95.502556 
2859.000000	95.507382 
2858.000000	95.509395 
2857.000000	95.509851 
2856.000000	95.511810 
2855.000000	95.516780 
2854.000000	95.523406 
2853.000000	95.529319 
2852.000000	95.533570 
2851.000000	95.536910 
2850.000000	95.540478 
2849.000000	95.544845 
2848.000000	95.549848 
2847.000000	95.554751 
2846.000000	95.558764 
2845.000000	95.561746 
2844.000000	95.564389 
2843.000000	95.567650 
2842.000000	95.572242 
2841.000000	95.578488 
2840.000000	95.586030 
2839.000000	95.593506 
2838.000000	95.599328 
2837.000000	95.603099 
2836.000000	95.605792 
2835.000000	95.608391 
2834.000000	95.611032 
2833.000000	95.613792 
2832.000000	95.617292 
2831.000000	95.621618 
2830.000000	95.625388 
2829.000000	95.627070 
2828.000000	95.627011 
2827.000000	95.627334 
2826.000000	95.629750 
2825.000000	95.634056 
2824.000000	95.638751 
2823.000000	95.642327 
2822.000000	95.643953 
2821.000000	95.643770 
2820.000000	95.642923 
2819.000000	95.642872 
2818.000000	95.644352 
2817.000000	95.647076 
2816.000000	95.650407 
2815.000000	95.653918 
2814.000000	95.657254 
2813.000000	95.659906 
2812.000000	95.661545 
2811.000000	95.662475 
2810.000000	95.663440 
2809.000000	95.664958 
2808.000000	95.667007 
2807.000000	95.669366 
2806.000000	95.671940 
2805.000000	95.674588 
2804.000000	95.676884 
2803.000000	95.678431 
2802.000000	95.679399 
2801.000000	95.680487 
2800.000000	95.682173 
2799.000000	95.684235 
2798.000000	95.686109 
2797.000000	95.687540 
2796.000000	95.688723 
2795.000000	95.689967 
2794.000000	95.691424 
2793.000000	95.693037 
2792.000000	95.694680 
2791.000000	95.696292 
2790.000000	95.697886 
2789.000000	95.699483 
2788.000000	95.701085 
2787.000000	95.702692 
2786.000000	95.704301 
2785.000000	95.705906 
2784.000000	95.707501 
2783.000000	95.709078 
2782.000000	95.710633 
2781.000000	95.712169 
2780.000000	95.713695 
2779.000000	95.715219 
2778.000000	95.716739 
2777.000000	95.718248 
2776.000000	95.719741 
2775.000000	95.721208 
2774.000000	95.722641 
2773.000000	95.724043 
2772.000000	95.725424 
2771.000000	95.726793 
2770.000000	95.728149 
2769.000000	95.729505 
2768.000000	95.730915 
2767.000000	95.732425 
2766.000000	95.734025 
2765.000000	95.735633 
2764.000000	95.737154 
2763.000000	95.738528 
2762.000000	95.739735 
2761.000000	95.740826 
2760.000000	95.741958 
2759.000000	95.743325 
2758.000000	95.745009 
2757.000000	95.746847 
2756.000000	95.748497 
2755.000000	95.749720 
2754.000000	95.750581 
2753.000000	95.751459 
2752.000000	95.752729 
2751.000000	95.754458 
2750.000000	95.756418 
2749.000000	95.758327 
2748.000000	95.759967 
2747.000000	95.761086 
2746.000000	95.761486 
2745.000000	95.761349 
2744.000000	95.761281 
2743.000000	95.761759 
2742.000000	95.762670 
2741.000000	95.763562 
2740.000000	95.764256 
2739.000000	95.764985 
2738.000000	95.765964 
2737.000000	95.767067 
2736.000000	95.768041 
2735.000000	95.768847 
2734.000000	95.769733 
2733.000000	95.770988 
2732.000000	95.772631 
2731.000000	95.774361 
2730.000000	95.775875 
2729.000000	95.777235 
2728.000000	95.778737 
2727.000000	95.780358 
2726.000000	95.781617 
2725.000000	95.782182 
2724.000000	95.782312 
2723.000000	95.782513 
2722.000000	95.782907 
2721.000000	95.783294 
2720.000000	95.783696 
2719.000000	95.784436 
2718.000000	95.785651 
2717.000000	95.787044 
2716.000000	95.788189 
2715.000000	95.789001 
2714.000000	95.789789 
2713.000000	95.790881 
2712.000000	95.792247 
2711.000000	95.793559 
2710.000000	95.794573 
2709.000000	95.795380 
2708.000000	95.796250 
2707.000000	95.797273 
2706.000000	95.798296 
2705.000000	95.799173 
2704.000000	95.799940 
2703.000000	95.800696 
2702.000000	95.801470 
2701.000000	95.802270 
2700.000000	95.803144 
2699.000000	95.804124 
2698.000000	95.805133 
2697.000000	95.806021 
2696.000000	95.806704 
2695.000000	95.807230 
2694.000000	95.807710 
2693.000000	95.808221 
2692.000000	95.808772 
2691.000000	95.809337 
2690.000000	95.809904 
2689.000000	95.810464 
2688.000000	95.811002 
2687.000000	95.811490 
2686.000000	95.811929 
2685.000000	95.812362 
2684.000000	95.812831 
2683.000000	95.813333 
2682.000000	95.813827 
2681.000000	95.814250 
2680.000000	95.814569 
2679.000000	95.814795 
2678.000000	95.814990 
2677.000000	95.815213 
2676.000000	95.815469 
2675.000000	95.815680 
2674.000000	95.815726 
2673.000000	95.815585 
2672.000000	95.815380 
2671.000000	95.815239 
2670.000000	95.815174 
2669.000000	95.815114 
2668.000000	95.814987 
2667.000000	95.814758 
2666.000000	95.814416 
2665.000000	95.813988 
2664.000000	95.813560 
2663.000000	95.813224 
2662.000000	95.813000 
2661.000000	95.812822 
2660.000000	95.812573 
2659.000000	95.812198 
2658.000000	95.811730 
2657.000000	95.811244 
2656.000000	95.810785 
2655.000000	95.810330 
2654.000000	95.809816 
2653.000000	95.809209 
2652.000000	95.808547 
2651.000000	95.807918 
2650.000000	95.807381 
2649.000000	95.806918 
2648.000000	95.806463 
2647.000000	95.805956 
2646.000000	95.805360 
2645.000000	95.804643 
2644.000000	95.803786 
2643.000000	95.802815 
2642.000000	95.801816 
2641.000000	95.800907 
2640.000000	95.800169 
2639.000000	95.799605 
2638.000000	95.799134 
2637.000000	95.798652 
2636.000000	95.798144 
2635.000000	95.797717 
2634.000000	95.797444 
2633.000000	95.797238 
2632.000000	95.796925 
2631.000000	95.796430 
2630.000000	95.795830 
2629.000000	95.795262 
2628.000000	95.794828 
2627.000000	95.794509 
2626.000000	95.794216 
2625.000000	95.793888 
2624.000000	95.793551 
2623.000000	95.793274 
2622.000000	95.793075 
2621.000000	95.792889 
2620.000000	95.792618 
2619.000000	95.792217 
2618.000000	95.791727 
2617.000000	95.791245 
2616.000000	95.790848 
2615.000000	95.790547 
2614.000000	95.790320 
2613.000000	95.790157 
2612.000000	95.790063 
2611.000000	95.790013 
2610.000000	95.789964 
2609.000000	95.789897 
2608.000000	95.789816 
2607.000000	95.789722 
2606.000000	95.789613 
2605.000000	95.789490 
2604.000000	95.789361 
2603.000000	95.789227 
2602.000000	95.789089 
2601.000000	95.788949 
2600.000000	95.788813 
2599.000000	95.788684 
2598.000000	95.788556 
2597.000000	95.788419 
2596.000000	95.788266 
2595.000000	95.788097 
2594.000000	95.787917 
2593.000000	95.787740 
2592.000000	95.787583 
2591.000000	95.787472 
2590.000000	95.787419 
2589.000000	95.787371 
2588.000000	95.787242 
2587.000000	95.787037 
2586.000000	95.786849 
2585.000000	95.786668 
2584.000000	95.786422 
2583.000000	95.786115 
2582.000000	95.785807 
2581.000000	95.785508 
2580.000000	95.785202 
2579.000000	95.784911 
2578.000000	95.784641 
2577.000000	95.784344 
2576.000000	95.784005 
2575.000000	95.783668 
2574.000000	95.783297 
2573.000000	95.782800 
2572.000000	95.782234 
2571.000000	95.781724 
2570.000000	95.781155 
2569.000000	95.780258 
2568.000000	95.779137 
2567.000000	95.778300 
2566.000000	95.777883 
2565.000000	95.777271 
2564.000000	95.775919 
2563.000000	95.774166 
2562.000000	95.772700 
2561.000000	95.771670 
2560.000000	95.771016 
2559.000000	95.771249 
2558.000000	95.772927 
2557.000000	95.775419 
2556.000000	95.777051 
2555.000000	95.776854 
2554.000000	95.775495 
2553.000000	95.774252 
2552.000000	95.773559 
2551.000000	95.773220 
2550.000000	95.773576 
2549.000000	95.775245 
2548.000000	95.777550 
2547.000000	95.778423 
2546.000000	95.776677 
2545.000000	95.773681 
2544.000000	95.771469 
2543.000000	95.769879 
2542.000000	95.767022 
2541.000000	95.762310 
2540.000000	95.757647 
2539.000000	95.755092 
2538.000000	95.754545 
2537.000000	95.754659 
2536.000000	95.755086 
2535.000000	95.756529 
2534.000000	95.758828 
2533.000000	95.760359 
2532.000000	95.759756 
2531.000000	95.757355 
2530.000000	95.754548 
2529.000000	95.752166 
2528.000000	95.749961 
2527.000000	95.747514 
2526.000000	95.745183 
2525.000000	95.743939 
2524.000000	95.744360 
2523.000000	95.746020 
2522.000000	95.747973 
2521.000000	95.749627 
2520.000000	95.750835 
2519.000000	95.751279 
2518.000000	95.750360 
2517.000000	95.747890 
2516.000000	95.744579 
2515.000000	95.741596 
2514.000000	95.739886 
2513.000000	95.740006 
2512.000000	95.742074 
2511.000000	95.745557 
2510.000000	95.749397 
2509.000000	95.752538 
2508.000000	95.754244 
2507.000000	95.754163 
2506.000000	95.752780 
2505.000000	95.751793 
2504.000000	95.753002 
2503.000000	95.756442 
2502.000000	95.760115 
2501.000000	95.762026 
2500.000000	95.762080 
2499.000000	95.761553 
2498.000000	95.761375 
2497.000000	95.761579 
2496.000000	95.762074 
2495.000000	95.762979 
2494.000000	95.764279 
2493.000000	95.765850 
2492.000000	95.767815 
2491.000000	95.770294 
2490.000000	95.772854 
2489.000000	95.774718 
2488.000000	95.775536 
2487.000000	95.775558 
2486.000000	95.775231 
2485.000000	95.775097 
2484.000000	95.775871 
2483.000000	95.778072 
2482.000000	95.781543 
2481.000000	95.785616 
2480.000000	95.789650 
2479.000000	95.793096 
2478.000000	95.795309 
2477.000000	95.795866 
2476.000000	95.795030 
2475.000000	95.793454 
2474.000000	95.791564 
2473.000000	95.789645 
2472.000000	95.788189 
2471.000000	95.787661 
2470.000000	95.788069 
2469.000000	95.789131 
2468.000000	95.790632 
2467.000000	95.792294 
2466.000000	95.793553 
2465.000000	95.794031 
2464.000000	95.794158 
2463.000000	95.794886 
2462.000000	95.796798 
2461.000000	95.799735 
2460.000000	95.803079 
2459.000000	95.805991 
2458.000000	95.807514 
2457.000000	95.807062 
2456.000000	95.804985 
2455.000000	95.802536 
2454.000000	95.801031 
2453.000000	95.800888 
2452.000000	95.801507 
2451.000000	95.802006 
2450.000000	95.802211 
2449.000000	95.802795 
2448.000000	95.804293 
2447.000000	95.806236 
2446.000000	95.807573 
2445.000000	95.807835 
2444.000000	95.807412 
2443.000000	95.806827 
2442.000000	95.806280 
2441.000000	95.805938 
2440.000000	95.806163 
2439.000000	95.807224 
2438.000000	95.809087 
2437.000000	95.811566 
2436.000000	95.814248 
2435.000000	95.816376 
2434.000000	95.817335 
2433.000000	95.817306 
2432.000000	95.817166 
2431.000000	95.817598 
2430.000000	95.818582 
2429.000000	95.819843 
2428.000000	95.821261 
2427.000000	95.822620 
2426.000000	95.823478 
2425.000000	95.823631 
2424.000000	95.823437 
2423.000000	95.823402 
2422.000000	95.823655 
2421.000000	95.824129 
2420.000000	95.824986 
2419.000000	95.826393 
2418.000000	95.828086 
2417.000000	95.829770 
2416.000000	95.831590 
2415.000000	95.833695 
2414.000000	95.835754 
2413.000000	95.837377 
2412.000000	95.838665 
2411.000000	95.839842 
2410.000000	95.840669 
2409.000000	95.840929 
2408.000000	95.841124 
2407.000000	95.841917 
2406.000000	95.843169 
2405.000000	95.844105 
2404.000000	95.844255 
2403.000000	95.843825 
2402.000000	95.843393 
2401.000000	95.843697 
2400.000000	95.845417 
2399.000000	95.848555 
2398.000000	95.852077 
2397.000000	95.854770 
2396.000000	95.856331 
2395.000000	95.857176 
2394.000000	95.857568 
2393.000000	95.857543 
2392.000000	95.857535 
2391.000000	95.858308 
2390.000000	95.859975 
2389.000000	95.861672 
2388.000000	95.862460 
2387.000000	95.862094 
2386.000000	95.860911 
2385.000000	95.859520 
2384.000000	95.858728 
2383.000000	95.859265 
2382.000000	95.861437 
2381.000000	95.865291 
2380.000000	95.870913 
2379.000000	95.877947 
2378.000000	95.884667 
2377.000000	95.888342 
2376.000000	95.887316 
2375.000000	95.882255 
2374.000000	95.875431 
2373.000000	95.868966 
2372.000000	95.864152 
2371.000000	95.862137 
2370.000000	95.863926 
2369.000000	95.869197 
2368.000000	95.875501 
2367.000000	95.879742 
2366.000000	95.880805 
2365.000000	95.879964 
2364.000000	95.879068 
2363.000000	95.878845 
2362.000000	95.878824 
2361.000000	95.878818 
2360.000000	95.878752 
2359.000000	95.877855 
2358.000000	95.876361 
2357.000000	95.876014 
2356.000000	95.878376 
2355.000000	95.883336 
2354.000000	95.889235 
2353.000000	95.893288 
2352.000000	95.892246 
2351.000000	95.885020 
2350.000000	95.873732 
2349.000000	95.863150 
2348.000000	95.858488 
2347.000000	95.860182 
2346.000000	95.862495 
2345.000000	95.859477 
2344.000000	95.852029 
2343.000000	95.845458 
2342.000000	95.843075 
2341.000000	95.845942 
2340.000000	95.851955 
2339.000000	95.856776 
2338.000000	95.857094 
2337.000000	95.853477 
2336.000000	95.849132 
2335.000000	95.846272 
2334.000000	95.844668 
2333.000000	95.842862 
2332.000000	95.839615 
2331.000000	95.834290 
2330.000000	95.825727 
2329.000000	95.812100 
2328.000000	95.795255 
2327.000000	95.778965 
2326.000000	95.766886 
2325.000000	95.759330 
2324.000000	95.756484 
2323.000000	95.758831 
2322.000000	95.763514 
2321.000000	95.765493 
2320.000000	95.762755 
2319.000000	95.759952 
2318.000000	95.761634 
2317.000000	95.767569 
2316.000000	95.774299 
2315.000000	95.779294 
2314.000000	95.781507 
2313.000000	95.780156 
2312.000000	95.776197 
2311.000000	95.772311 
2310.000000	95.770664 
2309.000000	95.770054 
2308.000000	95.768959 
2307.000000	95.767756 
2306.000000	95.767641 
2305.000000	95.767296 
2304.000000	95.765152 
2303.000000	95.762937 
2302.000000	95.764839 
2301.000000	95.771777 
2300.000000	95.779505 
2299.000000	95.782356 
2298.000000	95.778876 
2297.000000	95.772148 
2296.000000	95.766391 
2295.000000	95.763448 
2294.000000	95.762977 
2293.000000	95.764146 
2292.000000	95.766582 
2291.000000	95.769875 
2290.000000	95.773254 
2289.000000	95.775861 
2288.000000	95.777133 
2287.000000	95.776986 
2286.000000	95.775981 
2285.000000	95.775305 
2284.000000	95.775800 
2283.000000	95.777116 
2282.000000	95.778251 
2281.000000	95.778698 
2280.000000	95.778659 
2279.000000	95.778437 
2278.000000	95.778098 
2277.000000	95.777662 
2276.000000	95.777322 
2275.000000	95.777305 
2274.000000	95.777605 
2273.000000	95.778035 
2272.000000	95.778532 
2271.000000	95.779131 
2270.000000	95.779616 
2269.000000	95.779555 
2268.000000	95.778827 
2267.000000	95.777803 
2266.000000	95.776919 
2265.000000	95.776271 
2264.000000	95.775734 
2263.000000	95.775176 
2262.000000	95.774509 
2261.000000	95.773691 
2260.000000	95.772757 
2259.000000	95.771759 
2258.000000	95.770710 
2257.000000	95.769641 
2256.000000	95.768669 
2255.000000	95.767873 
2254.000000	95.767169 
2253.000000	95.766381 
2252.000000	95.765376 
2251.000000	95.764151 
2250.000000	95.762769 
2249.000000	95.761314 
2248.000000	95.759856 
2247.000000	95.758412 
2246.000000	95.756969 
2245.000000	95.755527 
2244.000000	95.754087 
2243.000000	95.752642 
2242.000000	95.751198 
2241.000000	95.749765 
2240.000000	95.748353 
2239.000000	95.746963 
2238.000000	95.745586 
2237.000000	95.744207 
2236.000000	95.742815 
2235.000000	95.741406 
2234.000000	95.739985 
2233.000000	95.738556 
2232.000000	95.737122 
2231.000000	95.735684 
2230.000000	95.734239 
2229.000000	95.732790 
2228.000000	95.731354 
2227.000000	95.729958 
2226.000000	95.728615 
2225.000000	95.727316 
2224.000000	95.726036 
2223.000000	95.724755 
2222.000000	95.723470 
2221.000000	95.722180 
2220.000000	95.720879 
2219.000000	95.719561 
2218.000000	95.718226 
2217.000000	95.716891 
2216.000000	95.715578 
2215.000000	95.714293 
2214.000000	95.713024 
2213.000000	95.711752 
2212.000000	95.710482 
2211.000000	95.709240 
2210.000000	95.708050 
2209.000000	95.706913 
2208.000000	95.705808 
2207.000000	95.704709 
2206.000000	95.703598 
2205.000000	95.702464 
2204.000000	95.701301 
2203.000000	95.700111 
2202.000000	95.698899 
2201.000000	95.697668 
2200.000000	95.696417 
2199.000000	95.695232 
2198.000000	95.693904 
2197.000000	95.692238 
2196.000000	95.690674 
2195.000000	95.689814 
2194.000000	95.689561 
2193.000000	95.689257 
2192.000000	95.688716 
2191.000000	95.688275 
2190.000000	95.687814 
2189.000000	95.686927 
2188.000000	95.686150 
2187.000000	95.686337 
2186.000000	95.686432 
2185.000000	95.683884 
2184.000000	95.678251 
2183.000000	95.672864 
2182.000000	95.671379 
2181.000000	95.673898 
2180.000000	95.677325 
2179.000000	95.678497 
2178.000000	95.676537 
2177.000000	95.673485 
2176.000000	95.673116 
2175.000000	95.677042 
2174.000000	95.681789 
2173.000000	95.682439 
2172.000000	95.679749 
2171.000000	95.679859 
2170.000000	95.685536 
2169.000000	95.691393 
2168.000000	95.690336 
2167.000000	95.681969 
2166.000000	95.671603 
2165.000000	95.663132 
2164.000000	95.656265 
2163.000000	95.650119 
2162.000000	95.646564 
2161.000000	95.649451 
2160.000000	95.661064 
2159.000000	95.678584 
2158.000000	95.694816 
2157.000000	95.705261 
2156.000000	95.712763 
2155.000000	95.721959 
2154.000000	95.732213 
2153.000000	95.739948 
2152.000000	95.745280 
2151.000000	95.750754 
2150.000000	95.754913 
2149.000000	95.753791 
2148.000000	95.749109 
2147.000000	95.748381 
2146.000000	95.754990 
2145.000000	95.764070 
2144.000000	95.770673 
2143.000000	95.776509 
2142.000000	95.784929 
2141.000000	95.794093 
2140.000000	95.799635 
2139.000000	95.801285 
2138.000000	95.803093 
2137.000000	95.808708 
2136.000000	95.818440 
2135.000000	95.828924 
2134.000000	95.834614 
2133.000000	95.832441 
2132.000000	95.826293 
2131.000000	95.824042 
2130.000000	95.828626 
2129.000000	95.835213 
2128.000000	95.838426 
2127.000000	95.839231 
2126.000000	95.842260 
2125.000000	95.848678 
2124.000000	95.854891 
2123.000000	95.857264 
2122.000000	95.855341 
2121.000000	95.850879 
2120.000000	95.845662 
2119.000000	95.840552 
2118.000000	95.835984 
2117.000000	95.832848 
2116.000000	95.832210 
2115.000000	95.833625 
2114.000000	95.834492 
2113.000000	95.832674 
2112.000000	95.829665 
2111.000000	95.829171 
2110.000000	95.832608 
2109.000000	95.837957 
2108.000000	95.842919 
2107.000000	95.846964 
2106.000000	95.850098 
2105.000000	95.852118 
2104.000000	95.853627 
2103.000000	95.855473 
2102.000000	95.856466 
2101.000000	95.853946 
2100.000000	95.847796 
2099.000000	95.842089 
2098.000000	95.841176 
2097.000000	95.845420 
2096.000000	95.851741 
2095.000000	95.856959 
2094.000000	95.859890 
2093.000000	95.860974 
2092.000000	95.861454 
2091.000000	95.862611 
2090.000000	95.864789 
2089.000000	95.867188 
2088.000000	95.868844 
2087.000000	95.869343 
2086.000000	95.868455 
2085.000000	95.866089 
2084.000000	95.863095 
2083.000000	95.860987 
2082.000000	95.860344 
2081.000000	95.860422 
2080.000000	95.860837 
2079.000000	95.862365 
2078.000000	95.865210 
2077.000000	95.867855 
2076.000000	95.869023 
2075.000000	95.869728 
2074.000000	95.871539 
2073.000000	95.873429 
2072.000000	95.872490 
2071.000000	95.867620 
2070.000000	95.860902 
2069.000000	95.855577 
2068.000000	95.853346 
2067.000000	95.853904 
2066.000000	95.855759 
2065.000000	95.857088 
2064.000000	95.856813 
2063.000000	95.855339 
2062.000000	95.854112 
2061.000000	95.854369 
2060.000000	95.856329 
2059.000000	95.859394 
2058.000000	95.862523 
2057.000000	95.864667 
2056.000000	95.865339 
2055.000000	95.864717 
2054.000000	95.863423 
2053.000000	95.862088 
2052.000000	95.861053 
2051.000000	95.860284 
2050.000000	95.859601 
2049.000000	95.859085 
2048.000000	95.859137 
2047.000000	95.859952 
2046.000000	95.861194 
2045.000000	95.862334 
2044.000000	95.863136 
2043.000000	95.863653 
2042.000000	95.863999 
2041.000000	95.864394 
2040.000000	95.865257 
2039.000000	95.866855 
2038.000000	95.868903 
2037.000000	95.870670 
2036.000000	95.871667 
2035.000000	95.871978 
2034.000000	95.872053 
2033.000000	95.872378 
2032.000000	95.873250 
2031.000000	95.874605 
2030.000000	95.875890 
2029.000000	95.876443 
2028.000000	95.876155 
2027.000000	95.875577 
2026.000000	95.875281 
2025.000000	95.875411 
2024.000000	95.876007 
2023.000000	95.877364 
2022.000000	95.879704 
2021.000000	95.882537 
2020.000000	95.884678 
2019.000000	95.885133 
2018.000000	95.883697 
2017.000000	95.881216 
2016.000000	95.879235 
2015.000000	95.878773 
2014.000000	95.879442 
2013.000000	95.879736 
2012.000000	95.878705 
2011.000000	95.877074 
2010.000000	95.876215 
2009.000000	95.876377 
2008.000000	95.876754 
2007.000000	95.877030 
2006.000000	95.877802 
2005.000000	95.879377 
2004.000000	95.881176 
2003.000000	95.882546 
2002.000000	95.883463 
2001.000000	95.883896 
2000.000000	95.883145 
1999.000000	95.880332 
1998.000000	95.875377 
1997.000000	95.869611 
1996.000000	95.865242 
1995.000000	95.863668 
1994.000000	95.864409 
1993.000000	95.865682 
1992.000000	95.866129 
1991.000000	95.865885 
1990.000000	95.865800 
1989.000000	95.866249 
1988.000000	95.866807 
1987.000000	95.866501 
1986.000000	95.864453 
1985.000000	95.860909 
1984.000000	95.857706 
1983.000000	95.856789 
1982.000000	95.858243 
1981.000000	95.860307 
1980.000000	95.861504 
1979.000000	95.862109 
1978.000000	95.862989 
1977.000000	95.864187 
1976.000000	95.865093 
1975.000000	95.865433 
1974.000000	95.865599 
1973.000000	95.866267 
1972.000000	95.867783 
1971.000000	95.869780 
1970.000000	95.871373 
1969.000000	95.871926 
1968.000000	95.871565 
1967.000000	95.870930 
1966.000000	95.870691 
1965.000000	95.871168 
1964.000000	95.872326 
1963.000000	95.873895 
1962.000000	95.875447 
1961.000000	95.876632 
1960.000000	95.877370 
1959.000000	95.877795 
1958.000000	95.878146 
1957.000000	95.878681 
1956.000000	95.879541 
1955.000000	95.880645 
1954.000000	95.881686 
1953.000000	95.882419 
1952.000000	95.882872 
1951.000000	95.883231 
1950.000000	95.883624 
1949.000000	95.884118 
1948.000000	95.884785 
1947.000000	95.885620 
1946.000000	95.886394 
1945.000000	95.886813 
1944.000000	95.886813 
1943.000000	95.886608 
1942.000000	95.886464 
1941.000000	95.886466 
1940.000000	95.886599 
1939.000000	95.886767 
1938.000000	95.886778 
1937.000000	95.886557 
1936.000000	95.886384 
1935.000000	95.886568 
1934.000000	95.886933 
1933.000000	95.887115 
1932.000000	95.887327 
1931.000000	95.888187 
1930.000000	95.889679 
1929.000000	95.890723 
1928.000000	95.890664 
1927.000000	95.890147 
1926.000000	95.890068 
1925.000000	95.890242 
1924.000000	95.889731 
1923.000000	95.888310 
1922.000000	95.886523 
1921.000000	95.884783 
1920.000000	95.883309 
1919.000000	95.882207 
1918.000000	95.881158 
1917.000000	95.879569 
1916.000000	95.877645 
1915.000000	95.876546 
1914.000000	95.876716 
1913.000000	95.877246 
1912.000000	95.877152 
1911.000000	95.876464 
1910.000000	95.875504 
1909.000000	95.874188 
1908.000000	95.872919 
1907.000000	95.872445 
1906.000000	95.872639 
1905.000000	95.872343 
1904.000000	95.870813 
1903.000000	95.868825 
1902.000000	95.867445 
1901.000000	95.866556 
1900.000000	95.865588 
1899.000000	95.864535 
1898.000000	95.863667 
1897.000000	95.862951 
1896.000000	95.862124 
1895.000000	95.861159 
1894.000000	95.860157 
1893.000000	95.859101 
1892.000000	95.858054 
1891.000000	95.857234 
1890.000000	95.856680 
1889.000000	95.856160 
1888.000000	95.855585 
1887.000000	95.855181 
1886.000000	95.855039 
1885.000000	95.854906 
1884.000000	95.854538 
1883.000000	95.854016 
1882.000000	95.853634 
1881.000000	95.853560 
1880.000000	95.853741 
1879.000000	95.853987 
1878.000000	95.854088 
1877.000000	95.853998 
1876.000000	95.853945 
1875.000000	95.854249 
1874.000000	95.855033 
1873.000000	95.856098 
1872.000000	95.857139 
1871.000000	95.858012 
1870.000000	95.858617 
1869.000000	95.858832 
1868.000000	95.858804 
1867.000000	95.859123 
1866.000000	95.860118 
1865.000000	95.861350 
1864.000000	95.862165 
1863.000000	95.862708 
1862.000000	95.863716 
1861.000000	95.865395 
1860.000000	95.867230 
1859.000000	95.868926 
1858.000000	95.870722 
1857.000000	95.872668 
1856.000000	95.874460 
1855.000000	95.875968 
1854.000000	95.877379 
1853.000000	95.878718 
1852.000000	95.880206 
1851.000000	95.882459 
1850.000000	95.885454 
1849.000000	95.888279 
1848.000000	95.890212 
1847.000000	95.891636 
1846.000000	95.893028 
1845.000000	95.893941 
1844.000000	95.894206 
1843.000000	95.894897 
1842.000000	95.896719 
1841.000000	95.898934 
1840.000000	95.901192 
1839.000000	95.904233 
1838.000000	95.908127 
1837.000000	95.910710 
1836.000000	95.910029 
1835.000000	95.908180 
1834.000000	95.909044 
1833.000000	95.912653 
1832.000000	95.915674 
1831.000000	95.915292 
1830.000000	95.911773 
1829.000000	95.908770 
1828.000000	95.909591 
1827.000000	95.914709 
1826.000000	95.921412 
1825.000000	95.925739 
1824.000000	95.925563 
1823.000000	95.922320 
1822.000000	95.919092 
1821.000000	95.916934 
1820.000000	95.915093 
1819.000000	95.913445 
1818.000000	95.914177 
1817.000000	95.918026 
1816.000000	95.921191 
1815.000000	95.922003 
1814.000000	95.923428 
1813.000000	95.927992 
1812.000000	95.932247 
1811.000000	95.929587 
1810.000000	95.920805 
1809.000000	95.912048 
1808.000000	95.905691 
1807.000000	95.901349 
1806.000000	95.899860 
1805.000000	95.901010 
1804.000000	95.900194 
1803.000000	95.893372 
1802.000000	95.880769 
1801.000000	95.867136 
1800.000000	95.856905 
1799.000000	95.850674 
1798.000000	95.847998 
1797.000000	95.845778 
1796.000000	95.840384 
1795.000000	95.834116 
1794.000000	95.832328 
1793.000000	95.835935 
1792.000000	95.839153 
1791.000000	95.839029 
1790.000000	95.842307 
1789.000000	95.853494 
1788.000000	95.868405 
1787.000000	95.880402 
1786.000000	95.887117 
1785.000000	95.890155 
1784.000000	95.891583 
1783.000000	95.895630 
1782.000000	95.902753 
1781.000000	95.909256 
1780.000000	95.913922 
1779.000000	95.919027 
1778.000000	95.928561 
1777.000000	95.940702 
1776.000000	95.950786 
1775.000000	95.957124 
1774.000000	95.960048 
1773.000000	95.961807 
1772.000000	95.964997 
1771.000000	95.967053 
1770.000000	95.966660 
1769.000000	95.966761 
1768.000000	95.968996 
1767.000000	95.972650 
1766.000000	95.975841 
1765.000000	95.978666 
1764.000000	95.981784 
1763.000000	95.983708 
1762.000000	95.982089 
1761.000000	95.979375 
1760.000000	95.979538 
1759.000000	95.982464 
1758.000000	95.984922 
1757.000000	95.984012 
1756.000000	95.983308 
1755.000000	95.985331 
1754.000000	95.986759 
1753.000000	95.984018 
1752.000000	95.979240 
1751.000000	95.977991 
1750.000000	95.981767 
1749.000000	95.986569 
1748.000000	95.988980 
1747.000000	95.989868 
1746.000000	95.989614 
1745.000000	95.989285 
1744.000000	95.990774 
1743.000000	95.992728 
1742.000000	95.992101 
1741.000000	95.989051 
1740.000000	95.986362 
1739.000000	95.986028 
1738.000000	95.987628 
1737.000000	95.989974 
1736.000000	95.991310 
1735.000000	95.988784 
1734.000000	95.982231 
1733.000000	95.973811 
1732.000000	95.968877 
1731.000000	95.971056 
1730.000000	95.978530 
1729.000000	95.986117 
1728.000000	95.991778 
1727.000000	95.996701 
1726.000000	95.999730 
1725.000000	95.999233 
1724.000000	95.995089 
1723.000000	95.989364 
1722.000000	95.986161 
1721.000000	95.986513 
1720.000000	95.987980 
1719.000000	95.987148 
1718.000000	95.983985 
1717.000000	95.980508 
1716.000000	95.973903 
1715.000000	95.964763 
1714.000000	95.959069 
1713.000000	95.958004 
1712.000000	95.957206 
1711.000000	95.955838 
1710.000000	95.955984 
1709.000000	95.956218 
1708.000000	95.953700 
1707.000000	95.949129 
1706.000000	95.945436 
1705.000000	95.941713 
1704.000000	95.932847 
1703.000000	95.918824 
1702.000000	95.903907 
1701.000000	95.893777 
1700.000000	95.890735 
1699.000000	95.887525 
1698.000000	95.885600 
1697.000000	95.885153 
1696.000000	95.880182 
1695.000000	95.871044 
1694.000000	95.863654 
1693.000000	95.859917 
1692.000000	95.856994 
1691.000000	95.852332 
1690.000000	95.845487 
1689.000000	95.836655 
1688.000000	95.827624 
1687.000000	95.820090 
1686.000000	95.814382 
1685.000000	95.810194 
1684.000000	95.804847 
1683.000000	95.797493 
1682.000000	95.791554 
1681.000000	95.786754 
1680.000000	95.782584 
1679.000000	95.779063 
1678.000000	95.774918 
1677.000000	95.768660 
1676.000000	95.761332 
1675.000000	95.755665 
1674.000000	95.749320 
1673.000000	95.740960 
1672.000000	95.733975 
1671.000000	95.731215 
1670.000000	95.730443 
1669.000000	95.725284 
1668.000000	95.716973 
1667.000000	95.711415 
1666.000000	95.707625 
1665.000000	95.702663 
1664.000000	95.697346 
1663.000000	95.695305 
1662.000000	95.693842 
1661.000000	95.685950 
1660.000000	95.675417 
1659.000000	95.669836 
1658.000000	95.668029 
1657.000000	95.664440 
1656.000000	95.657864 
1655.000000	95.649455 
1654.000000	95.636106 
1653.000000	95.619858 
1652.000000	95.600079 
1651.000000	95.588062 
1650.000000	95.584281 
1649.000000	95.584052 
1648.000000	95.582103 
1647.000000	95.578838 
1646.000000	95.576739 
1645.000000	95.575163 
1644.000000	95.572214 
1643.000000	95.569228 
1642.000000	95.568711 
1641.000000	95.568765 
1640.000000	95.568476 
1639.000000	95.567079 
1638.000000	95.564958 
1637.000000	95.562637 
1636.000000	95.561768 
1635.000000	95.563534 
1634.000000	95.564921 
1633.000000	95.564858 
1632.000000	95.562411 
1631.000000	95.560840 
1630.000000	95.563686 
1629.000000	95.569855 
1628.000000	95.575944 
1627.000000	95.582513 
1626.000000	95.589871 
1625.000000	95.596343 
1624.000000	95.603390 
1623.000000	95.613888 
1622.000000	95.624245 
1621.000000	95.628394 
1620.000000	95.629887 
1619.000000	95.635896 
1618.000000	95.647805 
1617.000000	95.658379 
1616.000000	95.663116 
1615.000000	95.668741 
1614.000000	95.679246 
1613.000000	95.689466 
1612.000000	95.696101 
1611.000000	95.703111 
1610.000000	95.712864 
1609.000000	95.722881 
1608.000000	95.734081 
1607.000000	95.749737 
1606.000000	95.765037 
1605.000000	95.773144 
1604.000000	95.778318 
1603.000000	95.787205 
1602.000000	95.797472 
1601.000000	95.803909 
1600.000000	95.808846 
1599.000000	95.817507 
1598.000000	95.827429 
1597.000000	95.833153 
1596.000000	95.835968 
1595.000000	95.841816 
1594.000000	95.851624 
1593.000000	95.860860 
1592.000000	95.867923 
1591.000000	95.874772 
1590.000000	95.880500 
1589.000000	95.882804 
1588.000000	95.885488 
1587.000000	95.894278 
1586.000000	95.906585 
1585.000000	95.912984 
1584.000000	95.914210 
1583.000000	95.919703 
1582.000000	95.929462 
1581.000000	95.936417 
1580.000000	95.941613 
1579.000000	95.951356 
1578.000000	95.964005 
1577.000000	95.972857 
1576.000000	95.977026 
1575.000000	95.980672 
1574.000000	95.983344 
1573.000000	95.983703 
1572.000000	95.985615 
1571.000000	95.992456 
1570.000000	95.997634 
1569.000000	95.989063 
1568.000000	95.976377 
1567.000000	95.975278 
1566.000000	95.981536 
1565.000000	95.983135 
1564.000000	95.981158 
1563.000000	95.978479 
1562.000000	95.972359 
1561.000000	95.951339 
1560.000000	95.935492 
1559.000000	95.939941 
1558.000000	95.933308 
1557.000000	95.913209 
1556.000000	95.898562 
1555.000000	95.890054 
1554.000000	95.878153 
1553.000000	95.859706 
1552.000000	95.841205 
1551.000000	95.819874 
1550.000000	95.789358 
1549.000000	95.752515 
1548.000000	95.720834 
1547.000000	95.699531 
1546.000000	95.678641 
1545.000000	95.646679 
1544.000000	95.607682 
1543.000000	95.573787 
1542.000000	95.549776 
1541.000000	95.527067 
1540.000000	95.486076 
1539.000000	95.429155 
1538.000000	95.374418 
1537.000000	95.325846 
1536.000000	95.280624 
1535.000000	95.240475 
1534.000000	95.203714 
1533.000000	95.164719 
1532.000000	95.122507 
1531.000000	95.080446 
1530.000000	95.038902 
1529.000000	94.993506 
1528.000000	94.940606 
1527.000000	94.884698 
1526.000000	94.832346 
1525.000000	94.785557 
1524.000000	94.744233 
1523.000000	94.706321 
1522.000000	94.663571 
1521.000000	94.605864 
1520.000000	94.537465 
1519.000000	94.472360 
1518.000000	94.412092 
1517.000000	94.349909 
1516.000000	94.285519 
1515.000000	94.227239 
1514.000000	94.177428 
1513.000000	94.130357 
1512.000000	94.079570 
1511.000000	94.020919 
1510.000000	93.956993 
1509.000000	93.891314 
1508.000000	93.827869 
1507.000000	93.763489 
1506.000000	93.699265 
1505.000000	93.636966 
1504.000000	93.575836 
1503.000000	93.513224 
1502.000000	93.447143 
1501.000000	93.378563 
1500.000000	93.312565 
1499.000000	93.249996 
1498.000000	93.184955 
1497.000000	93.117992 
1496.000000	93.055638 
1495.000000	93.000973 
1494.000000	92.951338 
1493.000000	92.902452 
1492.000000	92.852085 
1491.000000	92.799299 
1490.000000	92.741564 
1489.000000	92.678191 
1488.000000	92.610316 
1487.000000	92.539802 
1486.000000	92.470071 
1485.000000	92.398431 
1484.000000	92.325844 
1483.000000	92.258628 
1482.000000	92.196779 
1481.000000	92.135308 
1480.000000	92.071090 
1479.000000	92.006749 
1478.000000	91.943857 
1477.000000	91.880286 
1476.000000	91.812689 
1475.000000	91.743100 
1474.000000	91.676636 
1473.000000	91.616073 
1472.000000	91.562144 
1471.000000	91.511337 
1470.000000	91.459014 
1469.000000	91.401962 
1468.000000	91.339607 
1467.000000	91.275109 
1466.000000	91.213125 
1465.000000	91.155188 
1464.000000	91.101018 
1463.000000	91.045704 
1462.000000	90.984021 
1461.000000	90.916350 
1460.000000	90.848480 
1459.000000	90.784128 
1458.000000	90.719431 
1457.000000	90.655534 
1456.000000	90.602176 
1455.000000	90.556847 
1454.000000	90.507466 
1453.000000	90.453910 
1452.000000	90.405802 
1451.000000	90.367528 
1450.000000	90.335591 
1449.000000	90.308689 
1448.000000	90.286160 
1447.000000	90.262611 
1446.000000	90.230519 
1445.000000	90.192963 
1444.000000	90.162572 
1443.000000	90.140942 
1442.000000	90.118702 
1441.000000	90.089506 
1440.000000	90.056085 
1439.000000	90.020293 
1438.000000	89.982951 
1437.000000	89.953557 
1436.000000	89.939170 
1435.000000	89.925656 
1434.000000	89.898307 
1433.000000	89.862454 
1432.000000	89.833390 
1431.000000	89.818668 
1430.000000	89.811567 
1429.000000	89.805937 
1428.000000	89.801753 
1427.000000	89.800136 
1426.000000	89.800568 
1425.000000	89.807313 
1424.000000	89.827768 
1423.000000	89.851321 
1422.000000	89.862523 
1421.000000	89.871330 
1420.000000	89.910691 
1419.000000	89.987549 
1418.000000	90.063739 
1417.000000	90.120645 
1416.000000	90.178871 
1415.000000	90.252063 
1414.000000	90.333322 
1413.000000	90.417191 
1412.000000	90.511657 
1411.000000	90.619757 
1410.000000	90.729972 
1409.000000	90.835064 
1408.000000	90.938647 
1407.000000	91.044921 
1406.000000	91.152380 
1405.000000	91.259569 
1404.000000	91.366509 
1403.000000	91.463190 
1402.000000	91.541545 
1401.000000	91.613932 
1400.000000	91.702100 
1399.000000	91.807002 
1398.000000	91.906664 
1397.000000	91.992790 
1396.000000	92.081483 
1395.000000	92.187011 
1394.000000	92.301755 
1393.000000	92.413752 
1392.000000	92.524786 
1391.000000	92.636550 
1390.000000	92.745199 
1389.000000	92.851681 
1388.000000	92.962145 
1387.000000	93.075169 
1386.000000	93.181099 
1385.000000	93.278577 
1384.000000	93.375981 
1383.000000	93.474081 
1382.000000	93.564370 
1381.000000	93.643452 
1380.000000	93.717188 
1379.000000	93.791656 
1378.000000	93.866828 
1377.000000	93.940769 
1376.000000	94.013049 
1375.000000	94.081685 
1374.000000	94.141909 
1373.000000	94.194567 
1372.000000	94.246214 
1371.000000	94.300967 
1370.000000	94.357071 
1369.000000	94.411032 
1368.000000	94.463342 
1367.000000	94.514531 
1366.000000	94.563401 
1365.000000	94.610771 
1364.000000	94.657802 
1363.000000	94.702189 
1362.000000	94.742140 
1361.000000	94.781619 
1360.000000	94.825576 
1359.000000	94.873881 
1358.000000	94.922796 
1357.000000	94.969575 
1356.000000	95.013261 
1355.000000	95.052411 
1354.000000	95.086489 
1353.000000	95.119762 
1352.000000	95.155832 
1351.000000	95.194772 
1350.000000	95.234166 
1349.000000	95.270473 
1348.000000	95.302279 
1347.000000	95.330036 
1346.000000	95.356113 
1345.000000	95.383444 
1344.000000	95.412364 
1343.000000	95.440321 
1342.000000	95.465720 
1341.000000	95.489520 
1340.000000	95.511964 
1339.000000	95.531085 
1338.000000	95.546421 
1337.000000	95.561637 
1336.000000	95.580071 
1335.000000	95.600348 
1334.000000	95.619442 
1333.000000	95.637310 
1332.000000	95.655342 
1331.000000	95.673274 
1330.000000	95.689925 
1329.000000	95.705693 
1328.000000	95.721535 
1327.000000	95.737541 
1326.000000	95.752899 
1325.000000	95.766376 
1324.000000	95.777155 
1323.000000	95.784500 
1322.000000	95.789205 
1321.000000	95.794463 
1320.000000	95.802954 
1319.000000	95.813929 
1318.000000	95.825565 
1317.000000	95.838296 
1316.000000	95.852263 
1315.000000	95.863881 
1314.000000	95.869446 
1313.000000	95.871484 
1312.000000	95.876710 
1311.000000	95.887790 
1310.000000	95.900963 
1309.000000	95.912294 
1308.000000	95.921757 
1307.000000	95.931607 
1306.000000	95.943071 
1305.000000	95.955409 
1304.000000	95.966888 
1303.000000	95.974890 
1302.000000	95.977651 
1301.000000	95.976380 
1300.000000	95.974543 
1299.000000	95.974866 
1298.000000	95.978091 
1297.000000	95.983454 
1296.000000	95.988659 
1295.000000	95.990824 
1294.000000	95.989223 
1293.000000	95.986707 
1292.000000	95.986663 
1291.000000	95.989301 
1290.000000	95.992670 
1289.000000	95.995590 
1288.000000	95.997352 
1287.000000	95.996347 
1286.000000	95.992024 
1285.000000	95.987317 
1284.000000	95.986075 
1283.000000	95.988187 
1282.000000	95.990036 
1281.000000	95.989181 
1280.000000	95.986374 
1279.000000	95.983481 
1278.000000	95.981927 
1277.000000	95.982937 
1276.000000	95.986572 
1275.000000	95.990711 
1274.000000	95.992950 
1273.000000	95.993529 
1272.000000	95.994489 
1271.000000	95.996205 
1270.000000	95.996958 
1269.000000	95.995678 
1268.000000	95.993073 
1267.000000	95.989692 
1266.000000	95.985075 
1265.000000	95.979782 
1264.000000	95.976127 
1263.000000	95.975825 
1262.000000	95.978266 
1261.000000	95.981448 
1260.000000	95.984258 
1259.000000	95.987508 
1258.000000	95.992548 
1257.000000	95.998662 
1256.000000	96.002140 
1255.000000	96.000015 
1254.000000	95.995117 
1253.000000	95.994123 
1252.000000	95.998846 
1251.000000	96.002979 
1250.000000	96.000325 
1249.000000	95.993158 
1248.000000	95.988826 
1247.000000	95.990141 
1246.000000	95.993423 
1245.000000	95.995029 
1244.000000	95.994895 
1243.000000	95.993925 
1242.000000	95.992466 
1241.000000	95.991868 
1240.000000	95.993594 
1239.000000	95.995971 
1238.000000	95.995188 
1237.000000	95.990247 
1236.000000	95.983961 
1235.000000	95.978599 
1234.000000	95.973423 
1233.000000	95.966978 
1232.000000	95.958758 
1231.000000	95.947892 
1230.000000	95.933399 
1229.000000	95.916669 
1228.000000	95.900426 
1227.000000	95.883888 
1226.000000	95.861693 
1225.000000	95.829189 
1224.000000	95.786863 
1223.000000	95.738619 
1222.000000	95.687621 
1221.000000	95.634712 
1220.000000	95.579103 
1219.000000	95.519220 
1218.000000	95.453817 
1217.000000	95.383015 
1216.000000	95.307204 
1215.000000	95.225323 
1214.000000	95.136644 
1213.000000	95.044596 
1212.000000	94.955416 
1211.000000	94.870872 
1210.000000	94.785109 
1209.000000	94.691407 
1208.000000	94.590056 
1207.000000	94.487121 
1206.000000	94.387147 
1205.000000	94.289750 
1204.000000	94.192089 
1203.000000	94.091811 
1202.000000	93.988246 
1201.000000	93.883108 
1200.000000	93.779591 
1199.000000	93.678912 
1198.000000	93.578475 
1197.000000	93.475368 
1196.000000	93.370145 
1195.000000	93.264908 
1194.000000	93.159326 
1193.000000	93.051316 
1192.000000	92.940617 
1191.000000	92.828686 
1190.000000	92.715828 
1189.000000	92.601151 
1188.000000	92.484537 
1187.000000	92.366017 
1186.000000	92.244353 
1185.000000	92.119168 
1184.000000	91.993096 
1183.000000	91.868776 
1182.000000	91.745221 
1181.000000	91.620418 
1180.000000	91.495416 
1179.000000	91.371299 
1178.000000	91.243753 
1177.000000	91.106261 
1176.000000	90.958223 
1175.000000	90.805003 
1174.000000	90.650362 
1173.000000	90.493890 
1172.000000	90.335554 
1171.000000	90.176692 
1170.000000	90.016156 
1169.000000	89.851758 
1168.000000	89.686911 
1167.000000	89.530747 
1166.000000	89.391551 
1165.000000	89.276379 
1164.000000	89.196999 
1163.000000	89.167265 
1162.000000	89.190333 
1161.000000	89.252279 
1160.000000	89.328974 
1159.000000	89.395024 
1158.000000	89.428180 
1157.000000	89.414452 
1156.000000	89.353062 
1155.000000	89.253642 
1154.000000	89.127922 
1153.000000	88.986383 
1152.000000	88.840087 
1151.000000	88.697720 
1150.000000	88.559278 
1149.000000	88.419011 
1148.000000	88.275664 
1147.000000	88.133590 
1146.000000	87.993562 
1145.000000	87.850450 
1144.000000	87.701969 
1143.000000	87.552407 
1142.000000	87.405248 
1141.000000	87.258873 
1140.000000	87.111732 
1139.000000	86.965018 
1138.000000	86.818119 
1137.000000	86.667980 
1136.000000	86.514670 
1135.000000	86.361043 
1134.000000	86.205722 
1133.000000	86.043626 
1132.000000	85.874544 
1131.000000	85.703546 
1130.000000	85.531843 
1129.000000	85.355301 
1128.000000	85.173144 
1127.000000	84.989351 
1126.000000	84.803855 
1125.000000	84.611421 
1124.000000	84.411450 
1123.000000	84.210258 
1122.000000	84.011667 
1121.000000	83.814147 
1120.000000	83.618640 
1119.000000	83.429225 
1118.000000	83.244654 
1117.000000	83.060177 
1116.000000	82.879210 
1115.000000	82.711442 
1114.000000	82.557400 
1113.000000	82.407038 
1112.000000	82.255702 
1111.000000	82.108630 
1110.000000	81.967334 
1109.000000	81.825406 
1108.000000	81.680350 
1107.000000	81.536320 
1106.000000	81.393011 
1105.000000	81.244838 
1104.000000	81.093010 
1103.000000	80.945140 
1102.000000	80.800397 
1101.000000	80.650252 
1100.000000	80.494777 
1099.000000	80.344158 
1098.000000	80.202205 
1097.000000	80.061789 
1096.000000	79.919507 
1095.000000	79.779331 
1094.000000	79.640228 
1093.000000	79.496305 
1092.000000	79.351983 
1091.000000	79.220555 
1090.000000	79.104118 
1089.000000	78.990359 
1088.000000	78.871684 
1087.000000	78.751492 
1086.000000	78.630217 
1085.000000	78.503248 
1084.000000	78.375371 
1083.000000	78.258726 
1082.000000	78.152313 
1081.000000	78.041247 
1080.000000	77.919992 
1079.000000	77.798104 
1078.000000	77.679128 
1077.000000	77.552438 
1076.000000	77.410925 
1075.000000	77.258384 
1074.000000	77.094340 
1073.000000	76.909245 
1072.000000	76.699375 
1071.000000	76.469090 
1070.000000	76.214573 
1069.000000	75.923973 
1068.000000	75.598818 
1067.000000	75.257804 
1066.000000	74.914462 
1065.000000	74.568533 
1064.000000	74.223050 
1063.000000	73.888402 
1062.000000	73.562652 
1061.000000	73.228911 
1060.000000	72.880543 
1059.000000	72.530272 
1058.000000	72.187629 
1057.000000	71.846447 
1056.000000	71.501031 
1055.000000	71.154480 
1054.000000	70.803829 
1053.000000	70.436809 
1052.000000	70.051469 
1051.000000	69.659334 
1050.000000	69.261874 
1049.000000	68.846863 
1048.000000	68.414952 
1047.000000	67.984020 
1046.000000	67.560962 
1045.000000	67.134296 
1044.000000	66.698760 
1043.000000	66.262760 
1042.000000	65.827841 
1041.000000	65.385708 
1040.000000	64.941055 
1039.000000	64.512985 
1038.000000	64.108147 
1037.000000	63.716772 
1036.000000	63.339259 
1035.000000	62.989965 
1034.000000	62.669907 
1033.000000	62.363603 
1032.000000	62.068499 
1031.000000	61.799616 
1030.000000	61.559853 
1029.000000	61.334880 
1028.000000	61.123001 
1027.000000	60.940058 
1026.000000	60.787770 
1025.000000	60.646531 
1024.000000	60.506090 
1023.000000	60.374441 
1022.000000	60.250641 
1021.000000	60.119236 
1020.000000	59.978100 
1019.000000	59.842132 
1018.000000	59.713449 
1017.000000	59.577650 
1016.000000	59.434682 
1015.000000	59.302386 
1014.000000	59.183634 
1013.000000	59.061445 
1012.000000	58.932977 
1011.000000	58.816663 
1010.000000	58.718517 
1009.000000	58.622898 
1008.000000	58.524492 
1007.000000	58.439159 
1006.000000	58.375736 
1005.000000	58.326808 
1004.000000	58.292956 
1003.000000	58.284981 
1002.000000	58.296115 
1001.000000	58.304017 
1000.000000	58.307400 
999.000000	 58.329413 
998.000000	 58.378083 
997.000000	 58.434994 
996.000000	 58.489651 
995.000000	 58.553244 
994.000000	 58.630652 
993.000000	 58.710318 
992.000000	 58.790076 
991.000000	 58.882981 
990.000000	 58.990211 
989.000000	 59.098032 
988.000000	 59.208013 
987.000000	 59.339786 
986.000000	 59.497545 
985.000000	 59.664884 
984.000000	 59.839035 
983.000000	 60.038480 
982.000000	 60.269122 
981.000000	 60.514464 
980.000000	 60.767556 
979.000000	 61.042187 
978.000000	 61.343783 
977.000000	 61.659295 
976.000000	 61.984698 
975.000000	 62.333557 
974.000000	 62.709237 
973.000000	 63.096184 
972.000000	 63.487040 
971.000000	 63.891851 
970.000000	 64.312652 
969.000000	 64.735216 
968.000000	 65.153590 
967.000000	 65.577817 
966.000000	 66.010458 
965.000000	 66.439744 
964.000000	 66.862030 
963.000000	 67.287029 
962.000000	 67.715128 
961.000000	 68.133040 
960.000000	 68.537137 
959.000000	 68.937868 
958.000000	 69.336064 
957.000000	 69.717858 
956.000000	 70.078499 
955.000000	 70.429419 
954.000000	 70.776884 
953.000000	 71.114173 
952.000000	 71.438267 
951.000000	 71.753120 
950.000000	 72.053828 
949.000000	 72.329379 
948.000000	 72.583772 
947.000000	 72.832594 
946.000000	 73.075767 
945.000000	 73.295779 
944.000000	 73.486236 
943.000000	 73.660488 
942.000000	 73.829009 
941.000000	 73.990103 
940.000000	 74.146604 
939.000000	 74.308850 
938.000000	 74.475915 
937.000000	 74.635844 
936.000000	 74.789791 
935.000000	 74.954543 
934.000000	 75.135856 
933.000000	 75.320599 
932.000000	 75.500845 
931.000000	 75.684427 
930.000000	 75.875534 
929.000000	 76.065136 
928.000000	 76.247340 
927.000000	 76.426403 
926.000000	 76.601767 
925.000000	 76.763948 
924.000000	 76.910195 
923.000000	 77.047815 
922.000000	 77.179051 
921.000000	 77.299394 
920.000000	 77.412464 
919.000000	 77.528217 
918.000000	 77.644318 
917.000000	 77.748308 
916.000000	 77.841509 
915.000000	 77.942985 
914.000000	 78.067345 
913.000000	 78.216496 
912.000000	 78.394488 
911.000000	 78.610072 
910.000000	 78.861436 
909.000000	 79.138186 
908.000000	 79.441217 
907.000000	 79.781212 
906.000000	 80.155863 
905.000000	 80.548899 
904.000000	 80.953307 
903.000000	 81.374848 
902.000000	 81.810709 
901.000000	 82.245668 
900.000000	 82.672798 
899.000000	 83.098888 
898.000000	 83.526126 
897.000000	 83.945910 
896.000000	 84.352949 
895.000000	 84.748352 
894.000000	 85.127139 
893.000000	 85.479854 
892.000000	 85.808400 
891.000000	 86.123147 
890.000000	 86.419958 
889.000000	 86.672524 
888.000000	 86.848632 
887.000000	 86.923209 
886.000000	 86.880497 
885.000000	 86.721675 
884.000000	 86.472347 
883.000000	 86.169048 
882.000000	 85.839152 
881.000000	 85.510013 
880.000000	 85.233276 
879.000000	 85.071035 
878.000000	 85.049141 
877.000000	 85.146926 
876.000000	 85.339595 
875.000000	 85.626882 
874.000000	 86.013738 
873.000000	 86.489659 
872.000000	 87.036514 
871.000000	 87.633046 
870.000000	 88.242914 
869.000000	 88.820064 
868.000000	 89.336357 
867.000000	 89.791296 
866.000000	 90.193451 
865.000000	 90.549174 
864.000000	 90.872047 
863.000000	 91.183947 
862.000000	 91.496523 
861.000000	 91.802883 
860.000000	 92.093665 
859.000000	 92.370226 
858.000000	 92.637459 
857.000000	 92.895325 
856.000000	 93.143052 
855.000000	 93.381637 
854.000000	 93.606799 
853.000000	 93.807542 
852.000000	 93.975960 
851.000000	 94.113066 
850.000000	 94.225651 
849.000000	 94.325217 
848.000000	 94.427508 
847.000000	 94.540732 
846.000000	 94.653508 
845.000000	 94.745883 
844.000000	 94.812121 
843.000000	 94.860855 
842.000000	 94.894442 
841.000000	 94.903379 
840.000000	 94.882308 
839.000000	 94.836290 
838.000000	 94.768791 
837.000000	 94.678963 
836.000000	 94.575456 
835.000000	 94.477987 
834.000000	 94.398244 
833.000000	 94.331998 
832.000000	 94.275997 
831.000000	 94.238912 
830.000000	 94.228640 
829.000000	 94.242241 
828.000000	 94.276647 
827.000000	 94.336424 
826.000000	 94.422178 
825.000000	 94.523472 
824.000000	 94.630866 
823.000000	 94.741956 
822.000000	 94.849942 
821.000000	 94.941832 
820.000000	 95.013707 
819.000000	 95.073112 
818.000000	 95.120911 
817.000000	 95.142782 
816.000000	 95.123532 
815.000000	 95.060032 
814.000000	 94.955381 
813.000000	 94.808346 
812.000000	 94.612048 
811.000000	 94.354154 
810.000000	 94.013985 
809.000000	 93.568727 
808.000000	 93.009953 
807.000000	 92.351149 
806.000000	 91.618591 
805.000000	 90.842892 
804.000000	 90.060810 
803.000000	 89.311806 
802.000000	 88.625656 
801.000000	 88.024041 
800.000000	 87.536508 
799.000000	 87.196612 
798.000000	 87.014683 
797.000000	 86.969750 
796.000000	 87.032375 
795.000000	 87.178066 
794.000000	 87.377016 
793.000000	 87.594244 
792.000000	 87.807664 
791.000000	 88.009293 
790.000000	 88.185243 
789.000000	 88.311837 
788.000000	 88.374064 
787.000000	 88.370542 
786.000000	 88.298118 
785.000000	 88.149468 
784.000000	 87.930114 
783.000000	 87.662323 
782.000000	 87.370546 
781.000000	 87.080943 
780.000000	 86.835820 
779.000000	 86.683798 
778.000000	 86.646316 
777.000000	 86.711362 
776.000000	 86.863130 
775.000000	 87.094603 
774.000000	 87.385741 
773.000000	 87.695709 
772.000000	 87.989611 
771.000000	 88.256292 
770.000000	 88.493860 
769.000000	 88.697066 
768.000000	 88.865757 
767.000000	 89.006537 
766.000000	 89.117677 
765.000000	 89.189841 
764.000000	 89.229566 
763.000000	 89.264132 
762.000000	 89.313657 
761.000000	 89.374179 
760.000000	 89.436466 
759.000000	 89.504188 
758.000000	 89.583722 
757.000000	 89.672847 
756.000000	 89.770791 
755.000000	 89.884911 
754.000000	 90.015911 
753.000000	 90.148261 
752.000000	 90.265319 
751.000000	 90.365145 
750.000000	 90.456549 
749.000000	 90.550480 
748.000000	 90.658923 
747.000000	 90.788877 
746.000000	 90.932338 
745.000000	 91.074620 
744.000000	 91.216579 
743.000000	 91.375441 
742.000000	 91.560255 
741.000000	 91.761277 
740.000000	 91.967544 
739.000000	 92.179029 
738.000000	 92.394886 
737.000000	 92.603530 
736.000000	 92.792291 
735.000000	 92.957593 
734.000000	 93.101029 
733.000000	 93.224851 
732.000000	 93.333723 
731.000000	 93.430546 
730.000000	 93.508569 
729.000000	 93.558346 
728.000000	 93.586006 
727.000000	 93.612242 
726.000000	 93.650697 
725.000000	 93.701402 
724.000000	 93.764079 
723.000000	 93.840108 
722.000000	 93.920108 
721.000000	 93.987782 
720.000000	 94.039829 
719.000000	 94.082298 
718.000000	 94.103339 
717.000000	 94.073734 
716.000000	 93.983409 
715.000000	 93.863677 
714.000000	 93.767516 
713.000000	 93.737805 
712.000000	 93.796024 
711.000000	 93.938205 
710.000000	 94.128872 
709.000000	 94.315008 
708.000000	 94.460204 
707.000000	 94.558870 
706.000000	 94.615874 
705.000000	 94.631669 
704.000000	 94.610273 
703.000000	 94.556740 
702.000000	 94.458286 
701.000000	 94.286176 
700.000000	 94.026146 
699.000000	 93.696470 
698.000000	 93.330598 
697.000000	 92.965171 
696.000000	 92.653144 
695.000000	 92.457338 
694.000000	 92.412240 
693.000000	 92.500264 
692.000000	 92.673822 
691.000000	 92.891829 
690.000000	 93.126739 
689.000000	 93.357050 
688.000000	 93.568524 
687.000000	 93.752611 
686.000000	 93.899691 
685.000000	 94.004997 
684.000000	 94.083785 
683.000000	 94.164208 
682.000000	 94.257410 
681.000000	 94.351908 
680.000000	 94.439894 
679.000000	 94.531891 
678.000000	 94.632410 
677.000000	 94.726444 
676.000000	 94.808895 
675.000000	 94.890928 
674.000000	 94.973175 
673.000000	 95.040490 
672.000000	 95.085251 
671.000000	 95.131689 
670.000000	 95.229650 
669.000000	 95.421888 
668.000000	 95.618737 
667.000000	 95.695292 
666.000000	 95.709116 
665.000000	 95.720886 
664.000000	 95.735530 
663.000000	 95.767297 
662.000000	 95.821201 
661.000000	 95.871378 
660.000000	 95.911921 
659.000000	 95.970417 
658.000000	 96.053882 
657.000000	 96.119139 
656.000000	 96.132712 
655.000000	 96.100928 
654.000000	 96.038800 
653.000000	 95.956437 
652.000000	 95.887661 
651.000000	 95.881595 
650.000000	 95.937387 

