4000.000000	97.909038 
3999.000000	97.907998 
3998.000000	97.905675 
3997.000000	97.902541 
3996.000000	97.899439 
3995.000000	97.897143 
3994.000000	97.896083 
3993.000000	97.896120 
3992.000000	97.896615 
3991.000000	97.896941 
3990.000000	97.896950 
3989.000000	97.896865 
3988.000000	97.896824 
3987.000000	97.896793 
3986.000000	97.896822 
3985.000000	97.897023 
3984.000000	97.897221 
3983.000000	97.896990 
3982.000000	97.896316 
3981.000000	97.895828 
3980.000000	97.895974 
3979.000000	97.896234 
3978.000000	97.895667 
3977.000000	97.894120 
3976.000000	97.892510 
3975.000000	97.891725 
3974.000000	97.891666 
3973.000000	97.891508 
3972.000000	97.890527 
3971.000000	97.888614 
3970.000000	97.886304 
3969.000000	97.884571 
3968.000000	97.884245 
3967.000000	97.885343 
3966.000000	97.886973 
3965.000000	97.887906 
3964.000000	97.887311 
3963.000000	97.885165 
3962.000000	97.882266 
3961.000000	97.879762 
3960.000000	97.878327 
3959.000000	97.877886 
3958.000000	97.878048 
3957.000000	97.878604 
3956.000000	97.879209 
3955.000000	97.879026 
3954.000000	97.877361 
3953.000000	97.874368 
3952.000000	97.870936 
3951.000000	97.867801 
3950.000000	97.865107 
3949.000000	97.862790 
3948.000000	97.860912 
3947.000000	97.859689 
3946.000000	97.859294 
3945.000000	97.859599 
3944.000000	97.860068 
3943.000000	97.860165 
3942.000000	97.859938 
3941.000000	97.859801 
3940.000000	97.859915 
3939.000000	97.860116 
3938.000000	97.860221 
3937.000000	97.860344 
3936.000000	97.860440 
3935.000000	97.859737 
3934.000000	97.857426 
3933.000000	97.853725 
3932.000000	97.850052 
3931.000000	97.847540 
3930.000000	97.846288 
3929.000000	97.846275 
3928.000000	97.847704 
3927.000000	97.850213 
3926.000000	97.852262 
3925.000000	97.852473 
3924.000000	97.851209 
3923.000000	97.849674 
3922.000000	97.848246 
3921.000000	97.846770 
3920.000000	97.845602 
3919.000000	97.845365 
3918.000000	97.845684 
3917.000000	97.845541 
3916.000000	97.844769 
3915.000000	97.844195 
3914.000000	97.844239 
3913.000000	97.844521 
3912.000000	97.844608 
3911.000000	97.844661 
3910.000000	97.844793 
3909.000000	97.844857 
3908.000000	97.844687 
3907.000000	97.844203 
3906.000000	97.843226 
3905.000000	97.841436 
3904.000000	97.839000 
3903.000000	97.836687 
3902.000000	97.835153 
3901.000000	97.834425 
3900.000000	97.834107 
3899.000000	97.833859 
3898.000000	97.833578 
3897.000000	97.833184 
3896.000000	97.832587 
3895.000000	97.831855 
3894.000000	97.831110 
3893.000000	97.830401 
3892.000000	97.829656 
3891.000000	97.828857 
3890.000000	97.828073 
3889.000000	97.827337 
3888.000000	97.826616 
3887.000000	97.825888 
3886.000000	97.825152 
3885.000000	97.824406 
3884.000000	97.823649 
3883.000000	97.822882 
3882.000000	97.822110 
3881.000000	97.821347 
3880.000000	97.820611 
3879.000000	97.819907 
3878.000000	97.819227 
3877.000000	97.818555 
3876.000000	97.817877 
3875.000000	97.817189 
3874.000000	97.816492 
3873.000000	97.815792 
3872.000000	97.815096 
3871.000000	97.814408 
3870.000000	97.813740 
3869.000000	97.813104 
3868.000000	97.812509 
3867.000000	97.811945 
3866.000000	97.811401 
3865.000000	97.810880 
3864.000000	97.810392 
3863.000000	97.809940 
3862.000000	97.809515 
3861.000000	97.809108 
3860.000000	97.808714 
3859.000000	97.808331 
3858.000000	97.807949 
3857.000000	97.807568 
3856.000000	97.807196 
3855.000000	97.806841 
3854.000000	97.806506 
3853.000000	97.806196 
3852.000000	97.805913 
3851.000000	97.805657 
3850.000000	97.805426 
3849.000000	97.805219 
3848.000000	97.805035 
3847.000000	97.804860 
3846.000000	97.804675 
3845.000000	97.804464 
3844.000000	97.804223 
3843.000000	97.803962 
3842.000000	97.803699 
3841.000000	97.803450 
3840.000000	97.803206 
3839.000000	97.802960 
3838.000000	97.802748 
3837.000000	97.802598 
3836.000000	97.802452 
3835.000000	97.802246 
3834.000000	97.801998 
3833.000000	97.801805 
3832.000000	97.801741 
3831.000000	97.801832 
3830.000000	97.802025 
3829.000000	97.802232 
3828.000000	97.802416 
3827.000000	97.802569 
3826.000000	97.802638 
3825.000000	97.802656 
3824.000000	97.802637 
3823.000000	97.802463 
3822.000000	97.802040 
3821.000000	97.801613 
3820.000000	97.801557 
3819.000000	97.801832 
3818.000000	97.802178 
3817.000000	97.802370 
3816.000000	97.802717 
3815.000000	97.803716 
3814.000000	97.804933 
3813.000000	97.805312 
3812.000000	97.804593 
3811.000000	97.803743 
3810.000000	97.803828 
3809.000000	97.804635 
3808.000000	97.804840 
3807.000000	97.803730 
3806.000000	97.801987 
3805.000000	97.800450 
3804.000000	97.799113 
3803.000000	97.797868 
3802.000000	97.797281 
3801.000000	97.798344 
3800.000000	97.800640 
3799.000000	97.802235 
3798.000000	97.802217 
3797.000000	97.801589 
3796.000000	97.802022 
3795.000000	97.803760 
3794.000000	97.805399 
3793.000000	97.805704 
3792.000000	97.805200 
3791.000000	97.805407 
3790.000000	97.806706 
3789.000000	97.807911 
3788.000000	97.808026 
3787.000000	97.807371 
3786.000000	97.806764 
3785.000000	97.806317 
3784.000000	97.805660 
3783.000000	97.804761 
3782.000000	97.803631 
3781.000000	97.802325 
3780.000000	97.801509 
3779.000000	97.802318 
3778.000000	97.804634 
3777.000000	97.806722 
3776.000000	97.806706 
3775.000000	97.804279 
3774.000000	97.800905 
3773.000000	97.798416 
3772.000000	97.797113 
3771.000000	97.795999 
3770.000000	97.794831 
3769.000000	97.794436 
3768.000000	97.794688 
3767.000000	97.794346 
3766.000000	97.792724 
3765.000000	97.790718 
3764.000000	97.789994 
3763.000000	97.790815 
3762.000000	97.791397 
3761.000000	97.790204 
3760.000000	97.788031 
3759.000000	97.786678 
3758.000000	97.785299 
3757.000000	97.782116 
3756.000000	97.777667 
3755.000000	97.773519 
3754.000000	97.769825 
3753.000000	97.765869 
3752.000000	97.762983 
3751.000000	97.762936 
3750.000000	97.763435 
3749.000000	97.761549 
3748.000000	97.759296 
3747.000000	97.760123 
3746.000000	97.763168 
3745.000000	97.764436 
3744.000000	97.764484 
3743.000000	97.765507 
3742.000000	97.765637 
3741.000000	97.762948 
3740.000000	97.759218 
3739.000000	97.758677 
3738.000000	97.762120 
3737.000000	97.765008 
3736.000000	97.764152 
3735.000000	97.762526 
3734.000000	97.763990 
3733.000000	97.767133 
3732.000000	97.768624 
3731.000000	97.767856 
3730.000000	97.765844 
3729.000000	97.763040 
3728.000000	97.759509 
3727.000000	97.756353 
3726.000000	97.755632 
3725.000000	97.757539 
3724.000000	97.759747 
3723.000000	97.760447 
3722.000000	97.760238 
3721.000000	97.760190 
3720.000000	97.759879 
3719.000000	97.758938 
3718.000000	97.757434 
3717.000000	97.755609 
3716.000000	97.753776 
3715.000000	97.751437 
3714.000000	97.747971 
3713.000000	97.744324 
3712.000000	97.742801 
3711.000000	97.743981 
3710.000000	97.745285 
3709.000000	97.744485 
3708.000000	97.741466 
3707.000000	97.737046 
3706.000000	97.732504 
3705.000000	97.729067 
3704.000000	97.727207 
3703.000000	97.726165 
3702.000000	97.724092 
3701.000000	97.719222 
3700.000000	97.711424 
3699.000000	97.702647 
3698.000000	97.694966 
3697.000000	97.688947 
3696.000000	97.684591 
3695.000000	97.681299 
3694.000000	97.677472 
3693.000000	97.672637 
3692.000000	97.668834 
3691.000000	97.668458 
3690.000000	97.670417 
3689.000000	97.671319 
3688.000000	97.669658 
3687.000000	97.666444 
3686.000000	97.662743 
3685.000000	97.658111 
3684.000000	97.652458 
3683.000000	97.647685 
3682.000000	97.645122 
3681.000000	97.642165 
3680.000000	97.635358 
3679.000000	97.625134 
3678.000000	97.615142 
3677.000000	97.606065 
3676.000000	97.596552 
3675.000000	97.589031 
3674.000000	97.585039 
3673.000000	97.582096 
3672.000000	97.577102 
3671.000000	97.569960 
3670.000000	97.564672 
3669.000000	97.563469 
3668.000000	97.562466 
3667.000000	97.558284 
3666.000000	97.552866 
3665.000000	97.549420 
3664.000000	97.548131 
3663.000000	97.546688 
3662.000000	97.542853 
3661.000000	97.536210 
3660.000000	97.528297 
3659.000000	97.520548 
3658.000000	97.513304 
3657.000000	97.505436 
3656.000000	97.496754 
3655.000000	97.488753 
3654.000000	97.482338 
3653.000000	97.476589 
3652.000000	97.468861 
3651.000000	97.457174 
3650.000000	97.443133 
3649.000000	97.430404 
3648.000000	97.421281 
3647.000000	97.416981 
3646.000000	97.417767 
3645.000000	97.421946 
3644.000000	97.426543 
3643.000000	97.429486 
3642.000000	97.430141 
3641.000000	97.428628 
3640.000000	97.424745 
3639.000000	97.418187 
3638.000000	97.410201 
3637.000000	97.402916 
3636.000000	97.396955 
3635.000000	97.390536 
3634.000000	97.382736 
3633.000000	97.375598 
3632.000000	97.370907 
3631.000000	97.365943 
3630.000000	97.355723 
3629.000000	97.342395 
3628.000000	97.333941 
3627.000000	97.332157 
3626.000000	97.333403 
3625.000000	97.336135 
3624.000000	97.341583 
3623.000000	97.350293 
3622.000000	97.359236 
3621.000000	97.362771 
3620.000000	97.357560 
3619.000000	97.345901 
3618.000000	97.333035 
3617.000000	97.323242 
3616.000000	97.319183 
3615.000000	97.321009 
3614.000000	97.326451 
3613.000000	97.332888 
3612.000000	97.338515 
3611.000000	97.341700 
3610.000000	97.341415 
3609.000000	97.338787 
3608.000000	97.336949 
3607.000000	97.338232 
3606.000000	97.342304 
3605.000000	97.348233 
3604.000000	97.356068 
3603.000000	97.365469 
3602.000000	97.374481 
3601.000000	97.380187 
3600.000000	97.381545 
3599.000000	97.380019 
3598.000000	97.377925 
3597.000000	97.376804 
3596.000000	97.377340 
3595.000000	97.378632 
3594.000000	97.379434 
3593.000000	97.379679 
3592.000000	97.380060 
3591.000000	97.380648 
3590.000000	97.380107 
3589.000000	97.377078 
3588.000000	97.372914 
3587.000000	97.371189 
3586.000000	97.373363 
3585.000000	97.377921 
3584.000000	97.383350 
3583.000000	97.389145 
3582.000000	97.394921 
3581.000000	97.399380 
3580.000000	97.401118 
3579.000000	97.399927 
3578.000000	97.397116 
3577.000000	97.394648 
3576.000000	97.393701 
3575.000000	97.394188 
3574.000000	97.395256 
3573.000000	97.396344 
3572.000000	97.397258 
3571.000000	97.397727 
3570.000000	97.396880 
3569.000000	97.393594 
3568.000000	97.388237 
3567.000000	97.383606 
3566.000000	97.382102 
3565.000000	97.383370 
3564.000000	97.385679 
3563.000000	97.387816 
3562.000000	97.389433 
3561.000000	97.390605 
3560.000000	97.391409 
3559.000000	97.391969 
3558.000000	97.392524 
3557.000000	97.393368 
3556.000000	97.394532 
3555.000000	97.395684 
3554.000000	97.396331 
3553.000000	97.396291 
3552.000000	97.395933 
3551.000000	97.395785 
3550.000000	97.396056 
3549.000000	97.396555 
3548.000000	97.396746 
3547.000000	97.395844 
3546.000000	97.393304 
3545.000000	97.389669 
3544.000000	97.386718 
3543.000000	97.386110 
3542.000000	97.387946 
3541.000000	97.390959 
3540.000000	97.393710 
3539.000000	97.395367 
3538.000000	97.395592 
3537.000000	97.394410 
3536.000000	97.392449 
3535.000000	97.390458 
3534.000000	97.388676 
3533.000000	97.386922 
3532.000000	97.385370 
3531.000000	97.384551 
3530.000000	97.384377 
3529.000000	97.383807 
3528.000000	97.381969 
3527.000000	97.379310 
3526.000000	97.377064 
3525.000000	97.375913 
3524.000000	97.375707 
3523.000000	97.376143 
3522.000000	97.377017 
3521.000000	97.378099 
3520.000000	97.379194 
3519.000000	97.380216 
3518.000000	97.381078 
3517.000000	97.381436 
3516.000000	97.380907 
3515.000000	97.379587 
3514.000000	97.378207 
3513.000000	97.377511 
3512.000000	97.377502 
3511.000000	97.377533 
3510.000000	97.377094 
3509.000000	97.376309 
3508.000000	97.375673 
3507.000000	97.375502 
3506.000000	97.375681 
3505.000000	97.375764 
3504.000000	97.375286 
3503.000000	97.374080 
3502.000000	97.372425 
3501.000000	97.370912 
3500.000000	97.370023 
3499.000000	97.369778 
3498.000000	97.369784 
3497.000000	97.369580 
3496.000000	97.368948 
3495.000000	97.367967 
3494.000000	97.366888 
3493.000000	97.365951 
3492.000000	97.365239 
3491.000000	97.364664 
3490.000000	97.364104 
3489.000000	97.363509 
3488.000000	97.362881 
3487.000000	97.362198 
3486.000000	97.361434 
3485.000000	97.360624 
3484.000000	97.359832 
3483.000000	97.359064 
3482.000000	97.358285 
3481.000000	97.357468 
3480.000000	97.356611 
3479.000000	97.355721 
3478.000000	97.354797 
3477.000000	97.353814 
3476.000000	97.352747 
3475.000000	97.351598 
3474.000000	97.350418 
3473.000000	97.349269 
3472.000000	97.348189 
3471.000000	97.347160 
3470.000000	97.346115 
3469.000000	97.345007 
3468.000000	97.343856 
3467.000000	97.342725 
3466.000000	97.341655 
3465.000000	97.340623 
3464.000000	97.339539 
3463.000000	97.338304 
3462.000000	97.336900 
3461.000000	97.335459 
3460.000000	97.334194 
3459.000000	97.333201 
3458.000000	97.332334 
3457.000000	97.331319 
3456.000000	97.330035 
3455.000000	97.328623 
3454.000000	97.327337 
3453.000000	97.326303 
3452.000000	97.325494 
3451.000000	97.324839 
3450.000000	97.324239 
3449.000000	97.323502 
3448.000000	97.322381 
3447.000000	97.320782 
3446.000000	97.318861 
3445.000000	97.316947 
3444.000000	97.315345 
3443.000000	97.314167 
3442.000000	97.313285 
3441.000000	97.312400 
3440.000000	97.311281 
3439.000000	97.309941 
3438.000000	97.308573 
3437.000000	97.307316 
3436.000000	97.306169 
3435.000000	97.305119 
3434.000000	97.304237 
3433.000000	97.303569 
3432.000000	97.303025 
3431.000000	97.302480 
3430.000000	97.301885 
3429.000000	97.301237 
3428.000000	97.300494 
3427.000000	97.299616 
3426.000000	97.298680 
3425.000000	97.297854 
3424.000000	97.297217 
3423.000000	97.296651 
3422.000000	97.295957 
3421.000000	97.295066 
3420.000000	97.294079 
3419.000000	97.293166 
3418.000000	97.292391 
3417.000000	97.291721 
3416.000000	97.291113 
3415.000000	97.290542 
3414.000000	97.289960 
3413.000000	97.289291 
3412.000000	97.288509 
3411.000000	97.287667 
3410.000000	97.286883 
3409.000000	97.286261 
3408.000000	97.285815 
3407.000000	97.285479 
3406.000000	97.285143 
3405.000000	97.284754 
3404.000000	97.284335 
3403.000000	97.283940 
3402.000000	97.283587 
3401.000000	97.283234 
3400.000000	97.282838 
3399.000000	97.282403 
3398.000000	97.281955 
3397.000000	97.281507 
3396.000000	97.281063 
3395.000000	97.280634 
3394.000000	97.280225 
3393.000000	97.279816 
3392.000000	97.279356 
3391.000000	97.278806 
3390.000000	97.278188 
3389.000000	97.277615 
3388.000000	97.277248 
3387.000000	97.277172 
3386.000000	97.277292 
3385.000000	97.277339 
3384.000000	97.277055 
3383.000000	97.276387 
3382.000000	97.275620 
3381.000000	97.275220 
3380.000000	97.275409 
3379.000000	97.275954 
3378.000000	97.276349 
3377.000000	97.276378 
3376.000000	97.276294 
3375.000000	97.276422 
3374.000000	97.276742 
3373.000000	97.276993 
3372.000000	97.277132 
3371.000000	97.277456 
3370.000000	97.278211 
3369.000000	97.279209 
3368.000000	97.279949 
3367.000000	97.280071 
3366.000000	97.279578 
3365.000000	97.278757 
3364.000000	97.277956 
3363.000000	97.277431 
3362.000000	97.277298 
3361.000000	97.277508 
3360.000000	97.277919 
3359.000000	97.278414 
3358.000000	97.278949 
3357.000000	97.279494 
3356.000000	97.279951 
3355.000000	97.280221 
3354.000000	97.280347 
3353.000000	97.280546 
3352.000000	97.281042 
3351.000000	97.281841 
3350.000000	97.282730 
3349.000000	97.283493 
3348.000000	97.284120 
3347.000000	97.284798 
3346.000000	97.285700 
3345.000000	97.286727 
3344.000000	97.287503 
3343.000000	97.287705 
3342.000000	97.287394 
3341.000000	97.287084 
3340.000000	97.287263 
3339.000000	97.287908 
3338.000000	97.288634 
3337.000000	97.289145 
3336.000000	97.289491 
3335.000000	97.289877 
3334.000000	97.290364 
3333.000000	97.290844 
3332.000000	97.291217 
3331.000000	97.291503 
3330.000000	97.291782 
3329.000000	97.292104 
3328.000000	97.292475 
3327.000000	97.292892 
3326.000000	97.293339 
3325.000000	97.293751 
3324.000000	97.294037 
3323.000000	97.294168 
3322.000000	97.294211 
3321.000000	97.294293 
3320.000000	97.294491 
3319.000000	97.294777 
3318.000000	97.295086 
3317.000000	97.295384 
3316.000000	97.295669 
3315.000000	97.295947 
3314.000000	97.296208 
3313.000000	97.296441 
3312.000000	97.296656 
3311.000000	97.296891 
3310.000000	97.297195 
3309.000000	97.297589 
3308.000000	97.298027 
3307.000000	97.298388 
3306.000000	97.298582 
3305.000000	97.298623 
3304.000000	97.298620 
3303.000000	97.298700 
3302.000000	97.298911 
3301.000000	97.299219 
3300.000000	97.299529 
3299.000000	97.299745 
3298.000000	97.299846 
3297.000000	97.299904 
3296.000000	97.300032 
3295.000000	97.300283 
3294.000000	97.300629 
3293.000000	97.301018 
3292.000000	97.301421 
3291.000000	97.301817 
3290.000000	97.302174 
3289.000000	97.302474 
3288.000000	97.302736 
3287.000000	97.302989 
3286.000000	97.303216 
3285.000000	97.303368 
3284.000000	97.303436 
3283.000000	97.303507 
3282.000000	97.303720 
3281.000000	97.304130 
3280.000000	97.304624 
3279.000000	97.304987 
3278.000000	97.305110 
3277.000000	97.305102 
3276.000000	97.305219 
3275.000000	97.305619 
3274.000000	97.306271 
3273.000000	97.307064 
3272.000000	97.307925 
3271.000000	97.308783 
3270.000000	97.309527 
3269.000000	97.310064 
3268.000000	97.310405 
3267.000000	97.310672 
3266.000000	97.311026 
3265.000000	97.311586 
3264.000000	97.312363 
3263.000000	97.313222 
3262.000000	97.313940 
3261.000000	97.314391 
3260.000000	97.314625 
3259.000000	97.314791 
3258.000000	97.314990 
3257.000000	97.315258 
3256.000000	97.315653 
3255.000000	97.316195 
3254.000000	97.316756 
3253.000000	97.317130 
3252.000000	97.317306 
3251.000000	97.317557 
3250.000000	97.318163 
3249.000000	97.319079 
3248.000000	97.319934 
3247.000000	97.320422 
3246.000000	97.320612 
3245.000000	97.320858 
3244.000000	97.321399 
3243.000000	97.322124 
3242.000000	97.322757 
3241.000000	97.323178 
3240.000000	97.323526 
3239.000000	97.324040 
3238.000000	97.324917 
3237.000000	97.326271 
3236.000000	97.328049 
3235.000000	97.329868 
3234.000000	97.331123 
3233.000000	97.331368 
3232.000000	97.330687 
3231.000000	97.329727 
3230.000000	97.329188 
3229.000000	97.329264 
3228.000000	97.329610 
3227.000000	97.329842 
3226.000000	97.330042 
3225.000000	97.330582 
3224.000000	97.331489 
3223.000000	97.332260 
3222.000000	97.332425 
3221.000000	97.332136 
3220.000000	97.331958 
3219.000000	97.332210 
3218.000000	97.332758 
3217.000000	97.333375 
3216.000000	97.334095 
3215.000000	97.335177 
3214.000000	97.336883 
3213.000000	97.339215 
3212.000000	97.341740 
3211.000000	97.343805 
3210.000000	97.345111 
3209.000000	97.345983 
3208.000000	97.346877 
3207.000000	97.347713 
3206.000000	97.348041 
3205.000000	97.347862 
3204.000000	97.347950 
3203.000000	97.349101 
3202.000000	97.351287 
3201.000000	97.353641 
3200.000000	97.355240 
3199.000000	97.355883 
3198.000000	97.356079 
3197.000000	97.356363 
3196.000000	97.356749 
3195.000000	97.356996 
3194.000000	97.357294 
3193.000000	97.358280 
3192.000000	97.360285 
3191.000000	97.362786 
3190.000000	97.364796 
3189.000000	97.365788 
3188.000000	97.366070 
3187.000000	97.366502 
3186.000000	97.367871 
3185.000000	97.370370 
3184.000000	97.373391 
3183.000000	97.375997 
3182.000000	97.377844 
3181.000000	97.379385 
3180.000000	97.381127 
3179.000000	97.382975 
3178.000000	97.384582 
3177.000000	97.385954 
3176.000000	97.387330 
3175.000000	97.388755 
3174.000000	97.390192 
3173.000000	97.391749 
3172.000000	97.393333 
3171.000000	97.394313 
3170.000000	97.394131 
3169.000000	97.393153 
3168.000000	97.392433 
3167.000000	97.392654 
3166.000000	97.393718 
3165.000000	97.395200 
3164.000000	97.396614 
3163.000000	97.397396 
3162.000000	97.397264 
3161.000000	97.396709 
3160.000000	97.396649 
3159.000000	97.397557 
3158.000000	97.399366 
3157.000000	97.402015 
3156.000000	97.405404 
3155.000000	97.408914 
3154.000000	97.411697 
3153.000000	97.413622 
3152.000000	97.415361 
3151.000000	97.417359 
3150.000000	97.419142 
3149.000000	97.419959 
3148.000000	97.419754 
3147.000000	97.419343 
3146.000000	97.419843 
3145.000000	97.421862 
3144.000000	97.425005 
3143.000000	97.427988 
3142.000000	97.429694 
3141.000000	97.430175 
3140.000000	97.430379 
3139.000000	97.430928 
3138.000000	97.431541 
3137.000000	97.431785 
3136.000000	97.431816 
3135.000000	97.432089 
3134.000000	97.432754 
3133.000000	97.433668 
3132.000000	97.434723 
3131.000000	97.435886 
3130.000000	97.437148 
3129.000000	97.438648 
3128.000000	97.440679 
3127.000000	97.443397 
3126.000000	97.446579 
3125.000000	97.449704 
3124.000000	97.452193 
3123.000000	97.453629 
3122.000000	97.454048 
3121.000000	97.454137 
3120.000000	97.454849 
3119.000000	97.456593 
3118.000000	97.458967 
3117.000000	97.461282 
3116.000000	97.463162 
3115.000000	97.464581 
3114.000000	97.465652 
3113.000000	97.466604 
3112.000000	97.467804 
3111.000000	97.469524 
3110.000000	97.471621 
3109.000000	97.473499 
3108.000000	97.474500 
3107.000000	97.474471 
3106.000000	97.474008 
3105.000000	97.473999 
3104.000000	97.474735 
3103.000000	97.475663 
3102.000000	97.476101 
3101.000000	97.476062 
3100.000000	97.476122 
3099.000000	97.476746 
3098.000000	97.478166 
3097.000000	97.480659 
3096.000000	97.484254 
3095.000000	97.488170 
3094.000000	97.491249 
3093.000000	97.493042 
3092.000000	97.494048 
3091.000000	97.494837 
3090.000000	97.495411 
3089.000000	97.495639 
3088.000000	97.495794 
3087.000000	97.496368 
3086.000000	97.497554 
3085.000000	97.499052 
3084.000000	97.500253 
3083.000000	97.500706 
3082.000000	97.500537 
3081.000000	97.500507 
3080.000000	97.501331 
3079.000000	97.502875 
3078.000000	97.504260 
3077.000000	97.504937 
3076.000000	97.505347 
3075.000000	97.506165 
3074.000000	97.507254 
3073.000000	97.507972 
3072.000000	97.508256 
3071.000000	97.508684 
3070.000000	97.509557 
3069.000000	97.510595 
3068.000000	97.511541 
3067.000000	97.512435 
3066.000000	97.513200 
3065.000000	97.513509 
3064.000000	97.513206 
3063.000000	97.512431 
3062.000000	97.511326 
3061.000000	97.510049 
3060.000000	97.509064 
3059.000000	97.508963 
3058.000000	97.509976 
3057.000000	97.511943 
3056.000000	97.514474 
3055.000000	97.516663 
3054.000000	97.517104 
3053.000000	97.515126 
3052.000000	97.512108 
3051.000000	97.510656 
3050.000000	97.512017 
3049.000000	97.515044 
3048.000000	97.517719 
3047.000000	97.518983 
3046.000000	97.518724 
3045.000000	97.517107 
3044.000000	97.514898 
3043.000000	97.513792 
3042.000000	97.515199 
3041.000000	97.518501 
3040.000000	97.521181 
3039.000000	97.521144 
3038.000000	97.518551 
3037.000000	97.515298 
3036.000000	97.512854 
3035.000000	97.510778 
3034.000000	97.507618 
3033.000000	97.502950 
3032.000000	97.498035 
3031.000000	97.494521 
3030.000000	97.492970 
3029.000000	97.492792 
3028.000000	97.492887 
3027.000000	97.491914 
3026.000000	97.488720 
3025.000000	97.483471 
3024.000000	97.478094 
3023.000000	97.474592 
3022.000000	97.472980 
3021.000000	97.471844 
3020.000000	97.470616 
3019.000000	97.469972 
3018.000000	97.469768 
3017.000000	97.468171 
3016.000000	97.463802 
3015.000000	97.457807 
3014.000000	97.452879 
3013.000000	97.450493 
3012.000000	97.449571 
3011.000000	97.447431 
3010.000000	97.441806 
3009.000000	97.432517 
3008.000000	97.421829 
3007.000000	97.412846 
3006.000000	97.406957 
3005.000000	97.403070 
3004.000000	97.399353 
3003.000000	97.395298 
3002.000000	97.391891 
3001.000000	97.390249 
3000.000000	97.390421 
2999.000000	97.391096 
2998.000000	97.390236 
2997.000000	97.386463 
2996.000000	97.380195 
2995.000000	97.373246 
2994.000000	97.367091 
2993.000000	97.361692 
2992.000000	97.356010 
2991.000000	97.349329 
2990.000000	97.342031 
2989.000000	97.335459 
2988.000000	97.331204 
2987.000000	97.330245 
2986.000000	97.332530 
2985.000000	97.337259 
2984.000000	97.343254 
2983.000000	97.349073 
2982.000000	97.353422 
2981.000000	97.355943 
2980.000000	97.357194 
2979.000000	97.357337 
2978.000000	97.355451 
2977.000000	97.350962 
2976.000000	97.345386 
2975.000000	97.341596 
2974.000000	97.341336 
2973.000000	97.344213 
2972.000000	97.348786 
2971.000000	97.353677 
2970.000000	97.357774 
2969.000000	97.360649 
2968.000000	97.363085 
2967.000000	97.366201 
2966.000000	97.369805 
2965.000000	97.372631 
2964.000000	97.374440 
2963.000000	97.376757 
2962.000000	97.380997 
2961.000000	97.386760 
2960.000000	97.392532 
2959.000000	97.397306 
2958.000000	97.400998 
2957.000000	97.403976 
2956.000000	97.406733 
2955.000000	97.409392 
2954.000000	97.411221 
2953.000000	97.411444 
2952.000000	97.410883 
2951.000000	97.411767 
2950.000000	97.415101 
2949.000000	97.419102 
2948.000000	97.421206 
2947.000000	97.420918 
2946.000000	97.419754 
2945.000000	97.419041 
2944.000000	97.418868 
2943.000000	97.418873 
2942.000000	97.418789 
2941.000000	97.418230 
2940.000000	97.417053 
2939.000000	97.416226 
2938.000000	97.417354 
2937.000000	97.420888 
2936.000000	97.425341 
2935.000000	97.428580 
2934.000000	97.429551 
2933.000000	97.428602 
2932.000000	97.426756 
2931.000000	97.425107 
2930.000000	97.424375 
2929.000000	97.424538 
2928.000000	97.424994 
2927.000000	97.425206 
2926.000000	97.425063 
2925.000000	97.424668 
2924.000000	97.424187 
2923.000000	97.423944 
2922.000000	97.424139 
2921.000000	97.424334 
2920.000000	97.423821 
2919.000000	97.422824 
2918.000000	97.422666 
2917.000000	97.424065 
2916.000000	97.425773 
2915.000000	97.425795 
2914.000000	97.423901 
2913.000000	97.422025 
2912.000000	97.421988 
2911.000000	97.423538 
2910.000000	97.425079 
2909.000000	97.425762 
2908.000000	97.426157 
2907.000000	97.427049 
2906.000000	97.428233 
2905.000000	97.428728 
2904.000000	97.427630 
2903.000000	97.425085 
2902.000000	97.422507 
2901.000000	97.421743 
2900.000000	97.423917 
2899.000000	97.428498 
2898.000000	97.433771 
2897.000000	97.438031 
2896.000000	97.440294 
2895.000000	97.440305 
2894.000000	97.438853 
2893.000000	97.438040 
2892.000000	97.440060 
2891.000000	97.445093 
2890.000000	97.450921 
2889.000000	97.455253 
2888.000000	97.458063 
2887.000000	97.460729 
2886.000000	97.463530 
2885.000000	97.465372 
2884.000000	97.466078 
2883.000000	97.467429 
2882.000000	97.471000 
2881.000000	97.475972 
2880.000000	97.480209 
2879.000000	97.483196 
2878.000000	97.486542 
2877.000000	97.491511 
2876.000000	97.497201 
2875.000000	97.501755 
2874.000000	97.504528 
2873.000000	97.506312 
2872.000000	97.508009 
2871.000000	97.509903 
2870.000000	97.511993 
2869.000000	97.514245 
2868.000000	97.516434 
2867.000000	97.518289 
2866.000000	97.519893 
2865.000000	97.521576 
2864.000000	97.523445 
2863.000000	97.525465 
2862.000000	97.527932 
2861.000000	97.531264 
2860.000000	97.535206 
2859.000000	97.538892 
2858.000000	97.541971 
2857.000000	97.545145 
2856.000000	97.549194 
2855.000000	97.553823 
2854.000000	97.557830 
2853.000000	97.560363 
2852.000000	97.561683 
2851.000000	97.562835 
2850.000000	97.564868 
2849.000000	97.568273 
2848.000000	97.572717 
2847.000000	97.577158 
2846.000000	97.580572 
2845.000000	97.582807 
2844.000000	97.584686 
2843.000000	97.587250 
2842.000000	97.590900 
2841.000000	97.595122 
2840.000000	97.598858 
2839.000000	97.601270 
2838.000000	97.602446 
2837.000000	97.603290 
2836.000000	97.604620 
2835.000000	97.606444 
2834.000000	97.608388 
2833.000000	97.610564 
2832.000000	97.613425 
2831.000000	97.616770 
2830.000000	97.619481 
2829.000000	97.620604 
2828.000000	97.620372 
2827.000000	97.620004 
2826.000000	97.620607 
2825.000000	97.622440 
2824.000000	97.625063 
2823.000000	97.627751 
2822.000000	97.629855 
2821.000000	97.631100 
2820.000000	97.631734 
2819.000000	97.632331 
2818.000000	97.633304 
2817.000000	97.634588 
2816.000000	97.635833 
2815.000000	97.636844 
2814.000000	97.637728 
2813.000000	97.638583 
2812.000000	97.639218 
2811.000000	97.639371 
2810.000000	97.639169 
2809.000000	97.639149 
2808.000000	97.639777 
2807.000000	97.641079 
2806.000000	97.642778 
2805.000000	97.644554 
2804.000000	97.646109 
2803.000000	97.647216 
2802.000000	97.647911 
2801.000000	97.648554 
2800.000000	97.649492 
2799.000000	97.650682 
2798.000000	97.651778 
2797.000000	97.652543 
2796.000000	97.653052 
2795.000000	97.653544 
2794.000000	97.654217 
2793.000000	97.655118 
2792.000000	97.656168 
2791.000000	97.657215 
2790.000000	97.658121 
2789.000000	97.658847 
2788.000000	97.659454 
2787.000000	97.660044 
2786.000000	97.660692 
2785.000000	97.661415 
2784.000000	97.662174 
2783.000000	97.662905 
2782.000000	97.663582 
2781.000000	97.664250 
2780.000000	97.664978 
2779.000000	97.665784 
2778.000000	97.666616 
2777.000000	97.667404 
2776.000000	97.668118 
2775.000000	97.668772 
2774.000000	97.669390 
2773.000000	97.669977 
2772.000000	97.670537 
2771.000000	97.671102 
2770.000000	97.671737 
2769.000000	97.672506 
2768.000000	97.673401 
2767.000000	97.674284 
2766.000000	97.674971 
2765.000000	97.675386 
2764.000000	97.675626 
2763.000000	97.675842 
2762.000000	97.676099 
2761.000000	97.676383 
2760.000000	97.676695 
2759.000000	97.677075 
2758.000000	97.677535 
2757.000000	97.678003 
2756.000000	97.678378 
2755.000000	97.678625 
2754.000000	97.678833 
2753.000000	97.679138 
2752.000000	97.679589 
2751.000000	97.680128 
2750.000000	97.680672 
2749.000000	97.681199 
2748.000000	97.681696 
2747.000000	97.682091 
2746.000000	97.682325 
2745.000000	97.682445 
2744.000000	97.682592 
2743.000000	97.682862 
2742.000000	97.683235 
2741.000000	97.683624 
2740.000000	97.683968 
2739.000000	97.684266 
2738.000000	97.684529 
2737.000000	97.684754 
2736.000000	97.684947 
2735.000000	97.685137 
2734.000000	97.685359 
2733.000000	97.685619 
2732.000000	97.685900 
2731.000000	97.686190 
2730.000000	97.686484 
2729.000000	97.686780 
2728.000000	97.687067 
2727.000000	97.687330 
2726.000000	97.687566 
2725.000000	97.687784 
2724.000000	97.687998 
2723.000000	97.688218 
2722.000000	97.688445 
2721.000000	97.688680 
2720.000000	97.688923 
2719.000000	97.689175 
2718.000000	97.689435 
2717.000000	97.689700 
2716.000000	97.689969 
2715.000000	97.690235 
2714.000000	97.690493 
2713.000000	97.690750 
2712.000000	97.691020 
2711.000000	97.691292 
2710.000000	97.691533 
2709.000000	97.691728 
2708.000000	97.691900 
2707.000000	97.692082 
2706.000000	97.692297 
2705.000000	97.692553 
2704.000000	97.692824 
2703.000000	97.693003 
2702.000000	97.692931 
2701.000000	97.692564 
2700.000000	97.692163 
2699.000000	97.692178 
2698.000000	97.692853 
2697.000000	97.693917 
2696.000000	97.694687 
2695.000000	97.694697 
2694.000000	97.694100 
2693.000000	97.693481 
2692.000000	97.693197 
2691.000000	97.693086 
2690.000000	97.692861 
2689.000000	97.692523 
2688.000000	97.692214 
2687.000000	97.691860 
2686.000000	97.691295 
2685.000000	97.690714 
2684.000000	97.690642 
2683.000000	97.691333 
2682.000000	97.692420 
2681.000000	97.693330 
2680.000000	97.693873 
2679.000000	97.694323 
2678.000000	97.695064 
2677.000000	97.696279 
2676.000000	97.697769 
2675.000000	97.698959 
2674.000000	97.699249 
2673.000000	97.698552 
2672.000000	97.697389 
2671.000000	97.696209 
2670.000000	97.694849 
2669.000000	97.692976 
2668.000000	97.690855 
2667.000000	97.689218 
2666.000000	97.688340 
2665.000000	97.687685 
2664.000000	97.686736 
2663.000000	97.685893 
2662.000000	97.686074 
2661.000000	97.687495 
2660.000000	97.689242 
2659.000000	97.690155 
2658.000000	97.690002 
2657.000000	97.689557 
2656.000000	97.689661 
2655.000000	97.690342 
2654.000000	97.690864 
2653.000000	97.690529 
2652.000000	97.689416 
2651.000000	97.688362 
2650.000000	97.688200 
2649.000000	97.689020 
2648.000000	97.690132 
2647.000000	97.690655 
2646.000000	97.690117 
2645.000000	97.688556 
2644.000000	97.686365 
2643.000000	97.684156 
2642.000000	97.682538 
2641.000000	97.681748 
2640.000000	97.681526 
2639.000000	97.681430 
2638.000000	97.681234 
2637.000000	97.680931 
2636.000000	97.680529 
2635.000000	97.680089 
2634.000000	97.679843 
2633.000000	97.679933 
2632.000000	97.680064 
2631.000000	97.679716 
2630.000000	97.678785 
2629.000000	97.677732 
2628.000000	97.677048 
2627.000000	97.676768 
2626.000000	97.676633 
2625.000000	97.676501 
2624.000000	97.676400 
2623.000000	97.676309 
2622.000000	97.676079 
2621.000000	97.675519 
2620.000000	97.674477 
2619.000000	97.672938 
2618.000000	97.671195 
2617.000000	97.669800 
2616.000000	97.669113 
2615.000000	97.668972 
2614.000000	97.668907 
2613.000000	97.668651 
2612.000000	97.668293 
2611.000000	97.667978 
2610.000000	97.667700 
2609.000000	97.667403 
2608.000000	97.667086 
2607.000000	97.666787 
2606.000000	97.666527 
2605.000000	97.666285 
2604.000000	97.665959 
2603.000000	97.665423 
2602.000000	97.664686 
2601.000000	97.663957 
2600.000000	97.663459 
2599.000000	97.663187 
2598.000000	97.662966 
2597.000000	97.662688 
2596.000000	97.662386 
2595.000000	97.662077 
2594.000000	97.661708 
2593.000000	97.661331 
2592.000000	97.661156 
2591.000000	97.661281 
2590.000000	97.661462 
2589.000000	97.661299 
2588.000000	97.660706 
2587.000000	97.660065 
2586.000000	97.659843 
2585.000000	97.660148 
2584.000000	97.660724 
2583.000000	97.661242 
2582.000000	97.661563 
2581.000000	97.661677 
2580.000000	97.661571 
2579.000000	97.661270 
2578.000000	97.661006 
2577.000000	97.661165 
2576.000000	97.661835 
2575.000000	97.662427 
2574.000000	97.662140 
2573.000000	97.660854 
2572.000000	97.659289 
2571.000000	97.658168 
2570.000000	97.657516 
2569.000000	97.656993 
2568.000000	97.656508 
2567.000000	97.656155 
2566.000000	97.655851 
2565.000000	97.655545 
2564.000000	97.655554 
2563.000000	97.656137 
2562.000000	97.656871 
2561.000000	97.657089 
2560.000000	97.656954 
2559.000000	97.657482 
2558.000000	97.659256 
2557.000000	97.661563 
2556.000000	97.663139 
2555.000000	97.663463 
2554.000000	97.662948 
2553.000000	97.662202 
2552.000000	97.661551 
2551.000000	97.661261 
2550.000000	97.661601 
2549.000000	97.662265 
2548.000000	97.662086 
2547.000000	97.660032 
2546.000000	97.656668 
2545.000000	97.654076 
2544.000000	97.653467 
2543.000000	97.653579 
2542.000000	97.652219 
2541.000000	97.649362 
2540.000000	97.647415 
2539.000000	97.647993 
2538.000000	97.649789 
2537.000000	97.650380 
2536.000000	97.649570 
2535.000000	97.649386 
2534.000000	97.650959 
2533.000000	97.652953 
2532.000000	97.653450 
2531.000000	97.652398 
2530.000000	97.651349 
2529.000000	97.651358 
2528.000000	97.652084 
2527.000000	97.652846 
2526.000000	97.653713 
2525.000000	97.655171 
2524.000000	97.657258 
2523.000000	97.659478 
2522.000000	97.661344 
2521.000000	97.662576 
2520.000000	97.662929 
2519.000000	97.662310 
2518.000000	97.661091 
2517.000000	97.659864 
2516.000000	97.658758 
2515.000000	97.657466 
2514.000000	97.656058 
2513.000000	97.655268 
2512.000000	97.655637 
2511.000000	97.656838 
2510.000000	97.658182 
2509.000000	97.659446 
2508.000000	97.660629 
2507.000000	97.661247 
2506.000000	97.660724 
2505.000000	97.659467 
2504.000000	97.658841 
2503.000000	97.659610 
2502.000000	97.661030 
2501.000000	97.661765 
2500.000000	97.661350 
2499.000000	97.660285 
2498.000000	97.659175 
2497.000000	97.658312 
2496.000000	97.657988 
2495.000000	97.658486 
2494.000000	97.659630 
2493.000000	97.660717 
2492.000000	97.661206 
2491.000000	97.661254 
2490.000000	97.661372 
2489.000000	97.661675 
2488.000000	97.661737 
2487.000000	97.661185 
2486.000000	97.660200 
2485.000000	97.659324 
2484.000000	97.658910 
2483.000000	97.658969 
2482.000000	97.659480 
2481.000000	97.660551 
2480.000000	97.662095 
2479.000000	97.663611 
2478.000000	97.664629 
2477.000000	97.665214 
2476.000000	97.665729 
2475.000000	97.666177 
2474.000000	97.666153 
2473.000000	97.665375 
2472.000000	97.663835 
2471.000000	97.661590 
2470.000000	97.658968 
2469.000000	97.656900 
2468.000000	97.656251 
2467.000000	97.656638 
2466.000000	97.656575 
2465.000000	97.655140 
2464.000000	97.653100 
2463.000000	97.652107 
2462.000000	97.653110 
2461.000000	97.655840 
2460.000000	97.659191 
2459.000000	97.661758 
2458.000000	97.662338 
2457.000000	97.660442 
2456.000000	97.656614 
2455.000000	97.652218 
2454.000000	97.648738 
2453.000000	97.646984 
2452.000000	97.646693 
2451.000000	97.646853 
2450.000000	97.646759 
2449.000000	97.646687 
2448.000000	97.647211 
2447.000000	97.648184 
2446.000000	97.648889 
2445.000000	97.649070 
2444.000000	97.649165 
2443.000000	97.649534 
2442.000000	97.650051 
2441.000000	97.650544 
2440.000000	97.651164 
2439.000000	97.652220 
2438.000000	97.653949 
2437.000000	97.656367 
2436.000000	97.658965 
2435.000000	97.660729 
2434.000000	97.660990 
2433.000000	97.660154 
2432.000000	97.659290 
2431.000000	97.659121 
2430.000000	97.659815 
2429.000000	97.661358 
2428.000000	97.663414 
2427.000000	97.664973 
2426.000000	97.665022 
2425.000000	97.663643 
2424.000000	97.662014 
2423.000000	97.661197 
2422.000000	97.661441 
2421.000000	97.662667 
2420.000000	97.664823 
2419.000000	97.667405 
2418.000000	97.669415 
2417.000000	97.670422 
2416.000000	97.671052 
2415.000000	97.671988 
2414.000000	97.672992 
2413.000000	97.673837 
2412.000000	97.675255 
2411.000000	97.677611 
2410.000000	97.679609 
2409.000000	97.679855 
2408.000000	97.678939 
2407.000000	97.678494 
2406.000000	97.678783 
2405.000000	97.678571 
2404.000000	97.676988 
2403.000000	97.674248 
2402.000000	97.671060 
2401.000000	97.668600 
2400.000000	97.668535 
2399.000000	97.671626 
2398.000000	97.676502 
2397.000000	97.680962 
2396.000000	97.684132 
2395.000000	97.686204 
2394.000000	97.686827 
2393.000000	97.685573 
2392.000000	97.683634 
2391.000000	97.683088 
2390.000000	97.684213 
2389.000000	97.685105 
2388.000000	97.684202 
2387.000000	97.681787 
2386.000000	97.678781 
2385.000000	97.675633 
2384.000000	97.672969 
2383.000000	97.672037 
2382.000000	97.673838 
2381.000000	97.678807 
2380.000000	97.687546 
2379.000000	97.700197 
2378.000000	97.714034 
2377.000000	97.723381 
2376.000000	97.724077 
2375.000000	97.717157 
2374.000000	97.707323 
2373.000000	97.697911 
2372.000000	97.689274 
2371.000000	97.682000 
2370.000000	97.678229 
2369.000000	97.678555 
2368.000000	97.679792 
2367.000000	97.677933 
2366.000000	97.672920 
2365.000000	97.668789 
2364.000000	97.668520 
2363.000000	97.670508 
2362.000000	97.671884 
2361.000000	97.671844 
2360.000000	97.670195 
2359.000000	97.666622 
2358.000000	97.661830 
2357.000000	97.659077 
2356.000000	97.660197 
2355.000000	97.662269 
2354.000000	97.661517 
2353.000000	97.656939 
2352.000000	97.652562 
2351.000000	97.650756 
2350.000000	97.649042 
2349.000000	97.645381 
2348.000000	97.641304 
2347.000000	97.639909 
2346.000000	97.638292 
2345.000000	97.632915 
2344.000000	97.625479 
2343.000000	97.619085 
2342.000000	97.617251 
2341.000000	97.620710 
2340.000000	97.628408 
2339.000000	97.636360 
2338.000000	97.641485 
2337.000000	97.643278 
2336.000000	97.642835 
2335.000000	97.640848 
2334.000000	97.637039 
2333.000000	97.630435 
2332.000000	97.621272 
2331.000000	97.610767 
2330.000000	97.598311 
2329.000000	97.583649 
2328.000000	97.565977 
2327.000000	97.550033 
2326.000000	97.538720 
2325.000000	97.533894 
2324.000000	97.535302 
2323.000000	97.542012 
2322.000000	97.550702 
2321.000000	97.554532 
2320.000000	97.551151 
2319.000000	97.545169 
2318.000000	97.543047 
2317.000000	97.545479 
2316.000000	97.548045 
2315.000000	97.547989 
2314.000000	97.544967 
2313.000000	97.540394 
2312.000000	97.534512 
2311.000000	97.529502 
2310.000000	97.526397 
2309.000000	97.525009 
2308.000000	97.523352 
2307.000000	97.522269 
2306.000000	97.523168 
2305.000000	97.525768 
2304.000000	97.527330 
2303.000000	97.527198 
2302.000000	97.527416 
2301.000000	97.530164 
2300.000000	97.534451 
2299.000000	97.538059 
2298.000000	97.539259 
2297.000000	97.538199 
2296.000000	97.535287 
2295.000000	97.532035 
2294.000000	97.530077 
2293.000000	97.530661 
2292.000000	97.533044 
2291.000000	97.535958 
2290.000000	97.538776 
2289.000000	97.541780 
2288.000000	97.544737 
2287.000000	97.546516 
2286.000000	97.546355 
2285.000000	97.545203 
2284.000000	97.545126 
2283.000000	97.547044 
2282.000000	97.549811 
2281.000000	97.551352 
2280.000000	97.550576 
2279.000000	97.547638 
2278.000000	97.543511 
2277.000000	97.539539 
2276.000000	97.536972 
2275.000000	97.536253 
2274.000000	97.536814 
2273.000000	97.537933 
2272.000000	97.539492 
2271.000000	97.541501 
2270.000000	97.543211 
2269.000000	97.543611 
2268.000000	97.542642 
2267.000000	97.541195 
2266.000000	97.539940 
2265.000000	97.538900 
2264.000000	97.538019 
2263.000000	97.537338 
2262.000000	97.536438 
2261.000000	97.534643 
2260.000000	97.532020 
2259.000000	97.529523 
2258.000000	97.527897 
2257.000000	97.527032 
2256.000000	97.526796 
2255.000000	97.527563 
2254.000000	97.529378 
2253.000000	97.531075 
2252.000000	97.531006 
2251.000000	97.528518 
2250.000000	97.524129 
2249.000000	97.518933 
2248.000000	97.514225 
2247.000000	97.510984 
2246.000000	97.509232 
2245.000000	97.508045 
2244.000000	97.506391 
2243.000000	97.504054 
2242.000000	97.501484 
2241.000000	97.499130 
2240.000000	97.497195 
2239.000000	97.495707 
2238.000000	97.494449 
2237.000000	97.492938 
2236.000000	97.490827 
2235.000000	97.488245 
2234.000000	97.485591 
2233.000000	97.483095 
2232.000000	97.480709 
2231.000000	97.478343 
2230.000000	97.475954 
2229.000000	97.473506 
2228.000000	97.471010 
2227.000000	97.468556 
2226.000000	97.466184 
2225.000000	97.463834 
2224.000000	97.461404 
2223.000000	97.458871 
2222.000000	97.456293 
2221.000000	97.453742 
2220.000000	97.451206 
2219.000000	97.448646 
2218.000000	97.446064 
2217.000000	97.443484 
2216.000000	97.440924 
2215.000000	97.438381 
2214.000000	97.435842 
2213.000000	97.433298 
2212.000000	97.430756 
2211.000000	97.428241 
2210.000000	97.425785 
2209.000000	97.423400 
2208.000000	97.421076 
2207.000000	97.418790 
2206.000000	97.416511 
2205.000000	97.414202 
2204.000000	97.411857 
2203.000000	97.409567 
2202.000000	97.407495 
2201.000000	97.405636 
2200.000000	97.403623 
2199.000000	97.400939 
2198.000000	97.397407 
2197.000000	97.393515 
2196.000000	97.390048 
2195.000000	97.387435 
2194.000000	97.385655 
2193.000000	97.384645 
2192.000000	97.384271 
2191.000000	97.383743 
2190.000000	97.381693 
2189.000000	97.377585 
2188.000000	97.372784 
2187.000000	97.369074 
2186.000000	97.365977 
2185.000000	97.361054 
2184.000000	97.353903 
2183.000000	97.348489 
2182.000000	97.349113 
2181.000000	97.355004 
2180.000000	97.360098 
2179.000000	97.359436 
2178.000000	97.353919 
2177.000000	97.348406 
2176.000000	97.346693 
2175.000000	97.349142 
2174.000000	97.354040 
2173.000000	97.359471 
2172.000000	97.364276 
2171.000000	97.368198 
2170.000000	97.371050 
2169.000000	97.371524 
2168.000000	97.367637 
2167.000000	97.359090 
2166.000000	97.348605 
2165.000000	97.339885 
2164.000000	97.334735 
2163.000000	97.333333 
2162.000000	97.336220 
2161.000000	97.343593 
2160.000000	97.352499 
2159.000000	97.357572 
2158.000000	97.356558 
2157.000000	97.353439 
2156.000000	97.354221 
2155.000000	97.361175 
2154.000000	97.372527 
2153.000000	97.385614 
2152.000000	97.398424 
2151.000000	97.408633 
2150.000000	97.413562 
2149.000000	97.412819 
2148.000000	97.410145 
2147.000000	97.410707 
2146.000000	97.416472 
2145.000000	97.425558 
2144.000000	97.435687 
2143.000000	97.446235 
2142.000000	97.456372 
2141.000000	97.463761 
2140.000000	97.467244 
2139.000000	97.469731 
2138.000000	97.476075 
2137.000000	97.487530 
2136.000000	97.499425 
2135.000000	97.505069 
2134.000000	97.501698 
2133.000000	97.493093 
2132.000000	97.487053 
2131.000000	97.488722 
2130.000000	97.496410 
2129.000000	97.504120 
2128.000000	97.508112 
2127.000000	97.510171 
2126.000000	97.514167 
2125.000000	97.520972 
2124.000000	97.528004 
2123.000000	97.532584 
2122.000000	97.533791 
2121.000000	97.531674 
2120.000000	97.526692 
2119.000000	97.520360 
2118.000000	97.515226 
2117.000000	97.513340 
2116.000000	97.514771 
2115.000000	97.517493 
2114.000000	97.518612 
2113.000000	97.516331 
2112.000000	97.511484 
2111.000000	97.507098 
2110.000000	97.505844 
2109.000000	97.508022 
2108.000000	97.512152 
2107.000000	97.516727 
2106.000000	97.520879 
2105.000000	97.524169 
2104.000000	97.526702 
2103.000000	97.528878 
2102.000000	97.530052 
2101.000000	97.528203 
2100.000000	97.522376 
2099.000000	97.515111 
2098.000000	97.510898 
2097.000000	97.511768 
2096.000000	97.515884 
2095.000000	97.519957 
2094.000000	97.522247 
2093.000000	97.522881 
2092.000000	97.522446 
2091.000000	97.521529 
2090.000000	97.520944 
2089.000000	97.521274 
2088.000000	97.522087 
2087.000000	97.522128 
2086.000000	97.520437 
2085.000000	97.517114 
2084.000000	97.513203 
2083.000000	97.509930 
2082.000000	97.507900 
2081.000000	97.506916 
2080.000000	97.506445 
2079.000000	97.506085 
2078.000000	97.505490 
2077.000000	97.504208 
2076.000000	97.502042 
2075.000000	97.499503 
2074.000000	97.497368 
2073.000000	97.495583 
2072.000000	97.493217 
2071.000000	97.489717 
2070.000000	97.485688 
2069.000000	97.482184 
2068.000000	97.479614 
2067.000000	97.477585 
2066.000000	97.475372 
2065.000000	97.472380 
2064.000000	97.468477 
2063.000000	97.464196 
2062.000000	97.460540 
2061.000000	97.458165 
2060.000000	97.456893 
2059.000000	97.456012 
2058.000000	97.454740 
2057.000000	97.452564 
2056.000000	97.449322 
2055.000000	97.445221 
2054.000000	97.440867 
2053.000000	97.436923 
2052.000000	97.433611 
2051.000000	97.430586 
2050.000000	97.427334 
2049.000000	97.423791 
2048.000000	97.420444 
2047.000000	97.417718 
2046.000000	97.415437 
2045.000000	97.413007 
2044.000000	97.410114 
2043.000000	97.407053 
2042.000000	97.404362 
2041.000000	97.402292 
2040.000000	97.400741 
2039.000000	97.399617 
2038.000000	97.398906 
2037.000000	97.398204 
2036.000000	97.396651 
2035.000000	97.393703 
2034.000000	97.389841 
2033.000000	97.386390 
2032.000000	97.384396 
2031.000000	97.383759 
2030.000000	97.383222 
2029.000000	97.381282 
2028.000000	97.377410 
2027.000000	97.372530 
2026.000000	97.368202 
2025.000000	97.365341 
2024.000000	97.364096 
2023.000000	97.364661 
2022.000000	97.367226 
2021.000000	97.370817 
2020.000000	97.373162 
2019.000000	97.372467 
2018.000000	97.368868 
2017.000000	97.364260 
2016.000000	97.360701 
2015.000000	97.358985 
2014.000000	97.358383 
2013.000000	97.357350 
2012.000000	97.355340 
2011.000000	97.354149 
2010.000000	97.356244 
2009.000000	97.361467 
2008.000000	97.366472 
2007.000000	97.368378 
2006.000000	97.367838 
2005.000000	97.367358 
2004.000000	97.367933 
2003.000000	97.368997 
2002.000000	97.370744 
2001.000000	97.373955 
2000.000000	97.377506 
1999.000000	97.378293 
1998.000000	97.374482 
1997.000000	97.367583 
1996.000000	97.361127 
1995.000000	97.357637 
1994.000000	97.357331 
1993.000000	97.358810 
1992.000000	97.360102 
1991.000000	97.360183 
1990.000000	97.359968 
1989.000000	97.361182 
1988.000000	97.364081 
1987.000000	97.366819 
1986.000000	97.367447 
1985.000000	97.366054 
1984.000000	97.364412 
1983.000000	97.363897 
1982.000000	97.364447 
1981.000000	97.365352 
1980.000000	97.366396 
1979.000000	97.367854 
1978.000000	97.369549 
1977.000000	97.370499 
1976.000000	97.369784 
1975.000000	97.367754 
1974.000000	97.366223 
1973.000000	97.367209 
1972.000000	97.371276 
1971.000000	97.377204 
1970.000000	97.382929 
1969.000000	97.386843 
1968.000000	97.388461 
1967.000000	97.388470 
1966.000000	97.388567 
1965.000000	97.390317 
1964.000000	97.393920 
1963.000000	97.398378 
1962.000000	97.402777 
1961.000000	97.406919 
1960.000000	97.410661 
1959.000000	97.413519 
1958.000000	97.415466 
1957.000000	97.417470 
1956.000000	97.420551 
1955.000000	97.424542 
1954.000000	97.428291 
1953.000000	97.431088 
1952.000000	97.433327 
1951.000000	97.435721 
1950.000000	97.438494 
1949.000000	97.441702 
1948.000000	97.445670 
1947.000000	97.450526 
1946.000000	97.455567 
1945.000000	97.459682 
1944.000000	97.462426 
1943.000000	97.464176 
1942.000000	97.465618 
1941.000000	97.467263 
1940.000000	97.469467 
1939.000000	97.472399 
1938.000000	97.475888 
1937.000000	97.479555 
1936.000000	97.483151 
1935.000000	97.486558 
1934.000000	97.489636 
1933.000000	97.492424 
1932.000000	97.495275 
1931.000000	97.498451 
1930.000000	97.501751 
1929.000000	97.504667 
1928.000000	97.507023 
1927.000000	97.509179 
1926.000000	97.511463 
1925.000000	97.513654 
1924.000000	97.515417 
1923.000000	97.516950 
1922.000000	97.518669 
1921.000000	97.520568 
1920.000000	97.522404 
1919.000000	97.524226 
1918.000000	97.526206 
1917.000000	97.528121 
1916.000000	97.529686 
1915.000000	97.531298 
1914.000000	97.533516 
1913.000000	97.536080 
1912.000000	97.538129 
1911.000000	97.539364 
1910.000000	97.540325 
1909.000000	97.541560 
1908.000000	97.543086 
1907.000000	97.544684 
1906.000000	97.546013 
1905.000000	97.546544 
1904.000000	97.546106 
1903.000000	97.545556 
1902.000000	97.545978 
1901.000000	97.547370 
1900.000000	97.548858 
1899.000000	97.549993 
1898.000000	97.551066 
1897.000000	97.552249 
1896.000000	97.553053 
1895.000000	97.553068 
1894.000000	97.552582 
1893.000000	97.552193 
1892.000000	97.552291 
1891.000000	97.553066 
1890.000000	97.554524 
1889.000000	97.556325 
1888.000000	97.558035 
1887.000000	97.559664 
1886.000000	97.561349 
1885.000000	97.562726 
1884.000000	97.563209 
1883.000000	97.562815 
1882.000000	97.562371 
1881.000000	97.562692 
1880.000000	97.563857 
1879.000000	97.565301 
1878.000000	97.566375 
1877.000000	97.567004 
1876.000000	97.567693 
1875.000000	97.568952 
1874.000000	97.570781 
1873.000000	97.572647 
1872.000000	97.574002 
1871.000000	97.574755 
1870.000000	97.575192 
1869.000000	97.575655 
1868.000000	97.576361 
1867.000000	97.577455 
1866.000000	97.578732 
1865.000000	97.579427 
1864.000000	97.579110 
1863.000000	97.578604 
1862.000000	97.579255 
1861.000000	97.581375 
1860.000000	97.584154 
1859.000000	97.586945 
1858.000000	97.589769 
1857.000000	97.592524 
1856.000000	97.594890 
1855.000000	97.596919 
1854.000000	97.598763 
1853.000000	97.600117 
1852.000000	97.600979 
1851.000000	97.602211 
1850.000000	97.604371 
1849.000000	97.606870 
1848.000000	97.608716 
1847.000000	97.609823 
1846.000000	97.610874 
1845.000000	97.612299 
1844.000000	97.613909 
1843.000000	97.615460 
1842.000000	97.616994 
1841.000000	97.618470 
1840.000000	97.619956 
1839.000000	97.621820 
1838.000000	97.624173 
1837.000000	97.626310 
1836.000000	97.627498 
1835.000000	97.628135 
1834.000000	97.629216 
1833.000000	97.630921 
1832.000000	97.632671 
1831.000000	97.634025 
1830.000000	97.635094 
1829.000000	97.636290 
1828.000000	97.637843 
1827.000000	97.639701 
1826.000000	97.641545 
1825.000000	97.642895 
1824.000000	97.643406 
1823.000000	97.643352 
1822.000000	97.643484 
1821.000000	97.644097 
1820.000000	97.644739 
1819.000000	97.645022 
1818.000000	97.645447 
1817.000000	97.646626 
1816.000000	97.648076 
1815.000000	97.649148 
1814.000000	97.650274 
1813.000000	97.652240 
1812.000000	97.654528 
1811.000000	97.655470 
1810.000000	97.654839 
1809.000000	97.654287 
1808.000000	97.654946 
1807.000000	97.656659 
1806.000000	97.659220 
1805.000000	97.662481 
1804.000000	97.665486 
1803.000000	97.667100 
1802.000000	97.667144 
1801.000000	97.666400 
1800.000000	97.665181 
1799.000000	97.663245 
1798.000000	97.661472 
1797.000000	97.660717 
1796.000000	97.660442 
1795.000000	97.660069 
1794.000000	97.660216 
1793.000000	97.661666 
1792.000000	97.663294 
1791.000000	97.663293 
1790.000000	97.662560 
1789.000000	97.663059 
1788.000000	97.665006 
1787.000000	97.667151 
1786.000000	97.668477 
1785.000000	97.668889 
1784.000000	97.668790 
1783.000000	97.669073 
1782.000000	97.670329 
1781.000000	97.672392 
1780.000000	97.674696 
1779.000000	97.676733 
1778.000000	97.678760 
1777.000000	97.680844 
1776.000000	97.682474 
1775.000000	97.683218 
1774.000000	97.683228 
1773.000000	97.683487 
1772.000000	97.684687 
1771.000000	97.686094 
1770.000000	97.687052 
1769.000000	97.687789 
1768.000000	97.688656 
1767.000000	97.689671 
1766.000000	97.690698 
1765.000000	97.691777 
1764.000000	97.692950 
1763.000000	97.694073 
1762.000000	97.695004 
1761.000000	97.695876 
1760.000000	97.696899 
1759.000000	97.698047 
1758.000000	97.699147 
1757.000000	97.700115 
1756.000000	97.701147 
1755.000000	97.702327 
1754.000000	97.703379 
1753.000000	97.704029 
1752.000000	97.704413 
1751.000000	97.705091 
1750.000000	97.706370 
1749.000000	97.707975 
1748.000000	97.709368 
1747.000000	97.710367 
1746.000000	97.711083 
1745.000000	97.711915 
1744.000000	97.713333 
1743.000000	97.715158 
1742.000000	97.716666 
1741.000000	97.717672 
1740.000000	97.718706 
1739.000000	97.720025 
1738.000000	97.721167 
1737.000000	97.721702 
1736.000000	97.721575 
1735.000000	97.721039 
1734.000000	97.720362 
1733.000000	97.719168 
1732.000000	97.718494 
1731.000000	97.719850 
1730.000000	97.722982 
1729.000000	97.725715 
1728.000000	97.726486 
1727.000000	97.725940 
1726.000000	97.725542 
1725.000000	97.726174 
1724.000000	97.727457 
1723.000000	97.728511 
1722.000000	97.729340 
1721.000000	97.730007 
1720.000000	97.729924 
1719.000000	97.728544 
1718.000000	97.726541 
1717.000000	97.724799 
1716.000000	97.722163 
1715.000000	97.718665 
1714.000000	97.716605 
1713.000000	97.716707 
1712.000000	97.717238 
1711.000000	97.717449 
1710.000000	97.718116 
1709.000000	97.719117 
1708.000000	97.719176 
1707.000000	97.718025 
1706.000000	97.716881 
1705.000000	97.715829 
1704.000000	97.712836 
1703.000000	97.707192 
1702.000000	97.700320 
1701.000000	97.695279 
1700.000000	97.693141 
1699.000000	97.690710 
1698.000000	97.688818 
1697.000000	97.688873 
1696.000000	97.689416 
1695.000000	97.688667 
1694.000000	97.687085 
1693.000000	97.685667 
1692.000000	97.684005 
1691.000000	97.681613 
1690.000000	97.678737 
1689.000000	97.675844 
1688.000000	97.673175 
1687.000000	97.670647 
1686.000000	97.668354 
1685.000000	97.666766 
1684.000000	97.664738 
1683.000000	97.660927 
1682.000000	97.656898 
1681.000000	97.653760 
1680.000000	97.651670 
1679.000000	97.650228 
1678.000000	97.648607 
1677.000000	97.646324 
1676.000000	97.643725 
1675.000000	97.641274 
1674.000000	97.638306 
1673.000000	97.634762 
1672.000000	97.631647 
1671.000000	97.629681 
1670.000000	97.628310 
1669.000000	97.625922 
1668.000000	97.622914 
1667.000000	97.620967 
1666.000000	97.619840 
1665.000000	97.618603 
1664.000000	97.617465 
1663.000000	97.617102 
1662.000000	97.616233 
1661.000000	97.612909 
1660.000000	97.608498 
1659.000000	97.605770 
1658.000000	97.605145 
1657.000000	97.605025 
1656.000000	97.603470 
1655.000000	97.599316 
1654.000000	97.592983 
1653.000000	97.585922 
1652.000000	97.576737 
1651.000000	97.571144 
1650.000000	97.568829 
1649.000000	97.567622 
1648.000000	97.567545 
1647.000000	97.569299 
1646.000000	97.571096 
1645.000000	97.571574 
1644.000000	97.571474 
1643.000000	97.571043 
1642.000000	97.570305 
1641.000000	97.569239 
1640.000000	97.568919 
1639.000000	97.569644 
1638.000000	97.570224 
1637.000000	97.569211 
1636.000000	97.565967 
1635.000000	97.561819 
1634.000000	97.559428 
1633.000000	97.559701 
1632.000000	97.560300 
1631.000000	97.560752 
1630.000000	97.562254 
1629.000000	97.564964 
1628.000000	97.567799 
1627.000000	97.570563 
1626.000000	97.573074 
1625.000000	97.574322 
1624.000000	97.574532 
1623.000000	97.575480 
1622.000000	97.577783 
1621.000000	97.580306 
1620.000000	97.582780 
1619.000000	97.585561 
1618.000000	97.588210 
1617.000000	97.588403 
1616.000000	97.585342 
1615.000000	97.583252 
1614.000000	97.584745 
1613.000000	97.587064 
1612.000000	97.587349 
1611.000000	97.586145 
1610.000000	97.585588 
1609.000000	97.586840 
1608.000000	97.590434 
1607.000000	97.596080 
1606.000000	97.601451 
1605.000000	97.604640 
1604.000000	97.606950 
1603.000000	97.609968 
1602.000000	97.612880 
1601.000000	97.614443 
1600.000000	97.615592 
1599.000000	97.617934 
1598.000000	97.621077 
1597.000000	97.623788 
1596.000000	97.626205 
1595.000000	97.629311 
1594.000000	97.633006 
1593.000000	97.636149 
1592.000000	97.638404 
1591.000000	97.640520 
1590.000000	97.642877 
1589.000000	97.645136 
1588.000000	97.647485 
1587.000000	97.650633 
1586.000000	97.654261 
1585.000000	97.656901 
1584.000000	97.658475 
1583.000000	97.660321 
1582.000000	97.662562 
1581.000000	97.664553 
1580.000000	97.666912 
1579.000000	97.670615 
1578.000000	97.675160 
1577.000000	97.679398 
1576.000000	97.682832 
1575.000000	97.685826 
1574.000000	97.688665 
1573.000000	97.690965 
1572.000000	97.692969 
1571.000000	97.695753 
1570.000000	97.698794 
1569.000000	97.699293 
1568.000000	97.697898 
1567.000000	97.697528 
1566.000000	97.698252 
1565.000000	97.698946 
1564.000000	97.700188 
1563.000000	97.701891 
1562.000000	97.702941 
1561.000000	97.700982 
1560.000000	97.700140 
1559.000000	97.703259 
1558.000000	97.703069 
1557.000000	97.700594 
1556.000000	97.700627 
1555.000000	97.702831 
1554.000000	97.705247 
1553.000000	97.706821 
1552.000000	97.708283 
1551.000000	97.709382 
1550.000000	97.709419 
1549.000000	97.708495 
1548.000000	97.707661 
1547.000000	97.707702 
1546.000000	97.708048 
1545.000000	97.708005 
1544.000000	97.707664 
1543.000000	97.707190 
1542.000000	97.706896 
1541.000000	97.707327 
1540.000000	97.706257 
1539.000000	97.702428 
1538.000000	97.698530 
1537.000000	97.695804 
1536.000000	97.693384 
1535.000000	97.691524 
1534.000000	97.691149 
1533.000000	97.691797 
1532.000000	97.691705 
1531.000000	97.690301 
1530.000000	97.688375 
1529.000000	97.686445 
1528.000000	97.684009 
1527.000000	97.680756 
1526.000000	97.677281 
1525.000000	97.674555 
1524.000000	97.673012 
1523.000000	97.672460 
1522.000000	97.672315 
1521.000000	97.670739 
1520.000000	97.666341 
1519.000000	97.660310 
1518.000000	97.654412 
1517.000000	97.649849 
1516.000000	97.646941 
1515.000000	97.645574 
1514.000000	97.645477 
1513.000000	97.645790 
1512.000000	97.645047 
1511.000000	97.641746 
1510.000000	97.636288 
1509.000000	97.630272 
1508.000000	97.626446 
1507.000000	97.625005 
1506.000000	97.622804 
1505.000000	97.618900 
1504.000000	97.614944 
1503.000000	97.611041 
1502.000000	97.607256 
1501.000000	97.604181 
1500.000000	97.602260 
1499.000000	97.600342 
1498.000000	97.596659 
1497.000000	97.592209 
1496.000000	97.589261 
1495.000000	97.588473 
1494.000000	97.589497 
1493.000000	97.591857 
1492.000000	97.594908 
1491.000000	97.597763 
1490.000000	97.598992 
1489.000000	97.597517 
1488.000000	97.593126 
1487.000000	97.587121 
1486.000000	97.582017 
1485.000000	97.577659 
1484.000000	97.573011 
1483.000000	97.569028 
1482.000000	97.566854 
1481.000000	97.565974 
1480.000000	97.564262 
1479.000000	97.560990 
1478.000000	97.557576 
1477.000000	97.555407 
1476.000000	97.553402 
1475.000000	97.549478 
1474.000000	97.544001 
1473.000000	97.539863 
1472.000000	97.538704 
1471.000000	97.538873 
1470.000000	97.538902 
1469.000000	97.538055 
1468.000000	97.535296 
1467.000000	97.530449 
1466.000000	97.525660 
1465.000000	97.523587 
1464.000000	97.523883 
1463.000000	97.523217 
1462.000000	97.520110 
1461.000000	97.516464 
1460.000000	97.514717 
1459.000000	97.514760 
1458.000000	97.512929 
1457.000000	97.506276 
1456.000000	97.498075 
1455.000000	97.492730 
1454.000000	97.489671 
1453.000000	97.488058 
1452.000000	97.488641 
1451.000000	97.491210 
1450.000000	97.494763 
1449.000000	97.498871 
1448.000000	97.502594 
1447.000000	97.504353 
1446.000000	97.503782 
1445.000000	97.502818 
1444.000000	97.503724 
1443.000000	97.505725 
1442.000000	97.507054 
1441.000000	97.507650 
1440.000000	97.508341 
1439.000000	97.507965 
1438.000000	97.504333 
1437.000000	97.498383 
1436.000000	97.493927 
1435.000000	97.492340 
1434.000000	97.492854 
1433.000000	97.495344 
1432.000000	97.499638 
1431.000000	97.504332 
1430.000000	97.507553 
1429.000000	97.509504 
1428.000000	97.511354 
1427.000000	97.513575 
1426.000000	97.515711 
1425.000000	97.517717 
1424.000000	97.521019 
1423.000000	97.524730 
1422.000000	97.526621 
1421.000000	97.527021 
1420.000000	97.528561 
1419.000000	97.529986 
1418.000000	97.526783 
1417.000000	97.521902 
1416.000000	97.522001 
1415.000000	97.527279 
1414.000000	97.532387 
1413.000000	97.533352 
1412.000000	97.532012 
1411.000000	97.531896 
1410.000000	97.533484 
1409.000000	97.535947 
1408.000000	97.538920 
1407.000000	97.542156 
1406.000000	97.545124 
1405.000000	97.548285 
1404.000000	97.553650 
1403.000000	97.560519 
1402.000000	97.566122 
1401.000000	97.570699 
1400.000000	97.577428 
1399.000000	97.586999 
1398.000000	97.595296 
1397.000000	97.599361 
1396.000000	97.600989 
1395.000000	97.603836 
1394.000000	97.608771 
1393.000000	97.615072 
1392.000000	97.623690 
1391.000000	97.634469 
1390.000000	97.644914 
1389.000000	97.652574 
1388.000000	97.656956 
1387.000000	97.659275 
1386.000000	97.661099 
1385.000000	97.664079 
1384.000000	97.669609 
1383.000000	97.677140 
1382.000000	97.684342 
1381.000000	97.689711 
1380.000000	97.693921 
1379.000000	97.698984 
1378.000000	97.706140 
1377.000000	97.714703 
1376.000000	97.722812 
1375.000000	97.729078 
1374.000000	97.733413 
1373.000000	97.737520 
1372.000000	97.743509 
1371.000000	97.752019 
1370.000000	97.761708 
1369.000000	97.770218 
1368.000000	97.777224 
1367.000000	97.783988 
1366.000000	97.790950 
1365.000000	97.797576 
1364.000000	97.802980 
1363.000000	97.806411 
1362.000000	97.808080 
1361.000000	97.809617 
1360.000000	97.813099 
1359.000000	97.819690 
1358.000000	97.828689 
1357.000000	97.837727 
1356.000000	97.844522 
1355.000000	97.848370 
1354.000000	97.850365 
1353.000000	97.853057 
1352.000000	97.857714 
1351.000000	97.864146 
1350.000000	97.871630 
1349.000000	97.878113 
1348.000000	97.882263 
1347.000000	97.884852 
1346.000000	97.887875 
1345.000000	97.892264 
1344.000000	97.897075 
1343.000000	97.901223 
1342.000000	97.904825 
1341.000000	97.908259 
1340.000000	97.910746 
1339.000000	97.911125 
1338.000000	97.909568 
1337.000000	97.907799 
1336.000000	97.907193 
1335.000000	97.907370 
1334.000000	97.907328 
1333.000000	97.907113 
1332.000000	97.907300 
1331.000000	97.907868 
1330.000000	97.908193 
1329.000000	97.908105 
1328.000000	97.908192 
1327.000000	97.909222 
1326.000000	97.910905 
1325.000000	97.911448 
1324.000000	97.909678 
1323.000000	97.905958 
1322.000000	97.901474 
1321.000000	97.897658 
1320.000000	97.895840 
1319.000000	97.896378 
1318.000000	97.898265 
1317.000000	97.900293 
1316.000000	97.901705 
1315.000000	97.901543 
1314.000000	97.898991 
1313.000000	97.895485 
1312.000000	97.894439 
1311.000000	97.897340 
1310.000000	97.901505 
1309.000000	97.903501 
1308.000000	97.903380 
1307.000000	97.904017 
1306.000000	97.906901 
1305.000000	97.910455 
1304.000000	97.912820 
1303.000000	97.913498 
1302.000000	97.912548 
1301.000000	97.910284 
1300.000000	97.908124 
1299.000000	97.907850 
1298.000000	97.909268 
1297.000000	97.909944 
1296.000000	97.907966 
1295.000000	97.904301 
1294.000000	97.901703 
1293.000000	97.901930 
1292.000000	97.904480 
1291.000000	97.907396 
1290.000000	97.909052 
1289.000000	97.909410 
1288.000000	97.909523 
1287.000000	97.909854 
1286.000000	97.909614 
1285.000000	97.908273 
1284.000000	97.906916 
1283.000000	97.906848 
1282.000000	97.907407 
1281.000000	97.906535 
1280.000000	97.903673 
1279.000000	97.900932 
1278.000000	97.900894 
1277.000000	97.904023 
1276.000000	97.908497 
1275.000000	97.912036 
1274.000000	97.913433 
1273.000000	97.912907 
1272.000000	97.911620 
1271.000000	97.910554 
1270.000000	97.909632 
1269.000000	97.908092 
1268.000000	97.905655 
1267.000000	97.902505 
1266.000000	97.898288 
1265.000000	97.892620 
1264.000000	97.886663 
1263.000000	97.882778 
1262.000000	97.882303 
1261.000000	97.884544 
1260.000000	97.888413 
1259.000000	97.893783 
1258.000000	97.900090 
1257.000000	97.904827 
1256.000000	97.904995 
1255.000000	97.900529 
1254.000000	97.895504 
1253.000000	97.894435 
1252.000000	97.897026 
1251.000000	97.898071 
1250.000000	97.893672 
1249.000000	97.886328 
1248.000000	97.882101 
1247.000000	97.883167 
1246.000000	97.885559 
1245.000000	97.884804 
1244.000000	97.881000 
1243.000000	97.877189 
1242.000000	97.875413 
1241.000000	97.876184 
1240.000000	97.879423 
1239.000000	97.883323 
1238.000000	97.884027 
1237.000000	97.879167 
1236.000000	97.870762 
1235.000000	97.862499 
1234.000000	97.855081 
1233.000000	97.846482 
1232.000000	97.835816 
1231.000000	97.824344 
1230.000000	97.813371 
1229.000000	97.803642 
1228.000000	97.796093 
1227.000000	97.790441 
1226.000000	97.783320 
1225.000000	97.770692 
1224.000000	97.752549 
1223.000000	97.732993 
1222.000000	97.715121 
1221.000000	97.697835 
1220.000000	97.678611 
1219.000000	97.657425 
1218.000000	97.636378 
1217.000000	97.616304 
1216.000000	97.594893 
1215.000000	97.568364 
1214.000000	97.535420 
1213.000000	97.500007 
1212.000000	97.468907 
1211.000000	97.444726 
1210.000000	97.422281 
1209.000000	97.394090 
1208.000000	97.358686 
1207.000000	97.321358 
1206.000000	97.287167 
1205.000000	97.255696 
1204.000000	97.223366 
1203.000000	97.188619 
1202.000000	97.153415 
1201.000000	97.120587 
1200.000000	97.090701 
1199.000000	97.061364 
1198.000000	97.029523 
1197.000000	96.994835 
1196.000000	96.960091 
1195.000000	96.927769 
1194.000000	96.897243 
1193.000000	96.866223 
1192.000000	96.833775 
1191.000000	96.800457 
1190.000000	96.766546 
1189.000000	96.731805 
1188.000000	96.696231 
1187.000000	96.659546 
1186.000000	96.620862 
1185.000000	96.580251 
1184.000000	96.539409 
1183.000000	96.499325 
1182.000000	96.458871 
1181.000000	96.417401 
1180.000000	96.376677 
1179.000000	96.337678 
1178.000000	96.297259 
1177.000000	96.251249 
1176.000000	96.199710 
1175.000000	96.146128 
1174.000000	96.092651 
1173.000000	96.039417 
1172.000000	95.987429 
1171.000000	95.937761 
1170.000000	95.888283 
1169.000000	95.835701 
1168.000000	95.781375 
1167.000000	95.731342 
1166.000000	95.690307 
1165.000000	95.659608 
1164.000000	95.641099 
1163.000000	95.637734 
1162.000000	95.648302 
1161.000000	95.665343 
1160.000000	95.680472 
1159.000000	95.689231 
1158.000000	95.689555 
1157.000000	95.678921 
1156.000000	95.655297 
1155.000000	95.619256 
1154.000000	95.573864 
1153.000000	95.523484 
1152.000000	95.472645 
1151.000000	95.423844 
1150.000000	95.376092 
1149.000000	95.327726 
1148.000000	95.280439 
1147.000000	95.237508 
1146.000000	95.197908 
1145.000000	95.155808 
1144.000000	95.107067 
1143.000000	95.053362 
1142.000000	94.998878 
1141.000000	94.945574 
1140.000000	94.892975 
1139.000000	94.840218 
1138.000000	94.786973 
1137.000000	94.733933 
1136.000000	94.682733 
1135.000000	94.633649 
1134.000000	94.583787 
1133.000000	94.530146 
1132.000000	94.473930 
1131.000000	94.418673 
1130.000000	94.364396 
1129.000000	94.307220 
1128.000000	94.245025 
1127.000000	94.179944 
1126.000000	94.114711 
1125.000000	94.049869 
1124.000000	93.985353 
1123.000000	93.921824 
1122.000000	93.859497 
1121.000000	93.798127 
1120.000000	93.738494 
1119.000000	93.681550 
1118.000000	93.626421 
1117.000000	93.571897 
1116.000000	93.519027 
1115.000000	93.469296 
1114.000000	93.421403 
1113.000000	93.373175 
1112.000000	93.325269 
1111.000000	93.279218 
1110.000000	93.233385 
1109.000000	93.185302 
1108.000000	93.136281 
1107.000000	93.088695 
1106.000000	93.040656 
1105.000000	92.988766 
1104.000000	92.934522 
1103.000000	92.882734 
1102.000000	92.834068 
1101.000000	92.785608 
1100.000000	92.736334 
1099.000000	92.687449 
1098.000000	92.639525 
1097.000000	92.593437 
1096.000000	92.552469 
1095.000000	92.516712 
1094.000000	92.478475 
1093.000000	92.430680 
1092.000000	92.377906 
1091.000000	92.331414 
1090.000000	92.294862 
1089.000000	92.262605 
1088.000000	92.230081 
1087.000000	92.196867 
1086.000000	92.160767 
1085.000000	92.118670 
1084.000000	92.073618 
1083.000000	92.032295 
1082.000000	91.995006 
1081.000000	91.956525 
1080.000000	91.916957 
1079.000000	91.882550 
1078.000000	91.854582 
1077.000000	91.826250 
1076.000000	91.792280 
1075.000000	91.753549 
1074.000000	91.711012 
1073.000000	91.663067 
1072.000000	91.609914 
1071.000000	91.552426 
1070.000000	91.485604 
1069.000000	91.401769 
1068.000000	91.302395 
1067.000000	91.199652 
1066.000000	91.104255 
1065.000000	91.017982 
1064.000000	90.938458 
1063.000000	90.862108 
1062.000000	90.780514 
1061.000000	90.683386 
1060.000000	90.569587 
1059.000000	90.449383 
1058.000000	90.333011 
1057.000000	90.222070 
1056.000000	90.113123 
1055.000000	90.002790 
1054.000000	89.887616 
1053.000000	89.765627 
1052.000000	89.639912 
1051.000000	89.514779 
1050.000000	89.388081 
1049.000000	89.254669 
1048.000000	89.116505 
1047.000000	88.980415 
1046.000000	88.847259 
1045.000000	88.712627 
1044.000000	88.576705 
1043.000000	88.444351 
1042.000000	88.316683 
1041.000000	88.191491 
1040.000000	88.070776 
1039.000000	87.958645 
1038.000000	87.853132 
1037.000000	87.749957 
1036.000000	87.652790 
1035.000000	87.569253 
1034.000000	87.498485 
1033.000000	87.433625 
1032.000000	87.374457 
1031.000000	87.325441 
1030.000000	87.283406 
1029.000000	87.240981 
1028.000000	87.201425 
1027.000000	87.175702 
1026.000000	87.164355 
1025.000000	87.155896 
1024.000000	87.144051 
1023.000000	87.133113 
1022.000000	87.124837 
1021.000000	87.113858 
1020.000000	87.098411 
1019.000000	87.083145 
1018.000000	87.069231 
1017.000000	87.053371 
1016.000000	87.038078 
1015.000000	87.030894 
1014.000000	87.031723 
1013.000000	87.032481 
1012.000000	87.030576 
1011.000000	87.031446 
1010.000000	87.037230 
1009.000000	87.044955 
1008.000000	87.056673 
1007.000000	87.079293 
1006.000000	87.113391 
1005.000000	87.153632 
1004.000000	87.200189 
1003.000000	87.257170 
1002.000000	87.319792 
1001.000000	87.376900 
1000.000000	87.427704 
999.000000	 87.482734 
998.000000	 87.546400 
997.000000	 87.611740 
996.000000	 87.674797 
995.000000	 87.741624 
994.000000	 87.817661 
993.000000	 87.901075 
992.000000	 87.988835 
991.000000	 88.078892 
990.000000	 88.165315 
989.000000	 88.242788 
988.000000	 88.317327 
987.000000	 88.401162 
986.000000	 88.496121 
985.000000	 88.593816 
984.000000	 88.692784 
983.000000	 88.801771 
982.000000	 88.923318 
981.000000	 89.047430 
980.000000	 89.165890 
979.000000	 89.281471 
978.000000	 89.398865 
977.000000	 89.517733 
976.000000	 89.639135 
975.000000	 89.768077 
974.000000	 89.904117 
973.000000	 90.038253 
972.000000	 90.164297 
971.000000	 90.286195 
970.000000	 90.410441 
969.000000	 90.538116 
968.000000	 90.667150 
967.000000	 90.795416 
966.000000	 90.919204 
965.000000	 91.035680 
964.000000	 91.148927 
963.000000	 91.266596 
962.000000	 91.388731 
961.000000	 91.507021 
960.000000	 91.616597 
959.000000	 91.721151 
958.000000	 91.824778 
957.000000	 91.926093 
956.000000	 92.022773 
955.000000	 92.115245 
954.000000	 92.203681 
953.000000	 92.287334 
952.000000	 92.368401 
951.000000	 92.450454 
950.000000	 92.531784 
949.000000	 92.606481 
948.000000	 92.672849 
947.000000	 92.734367 
946.000000	 92.791941 
945.000000	 92.842312 
944.000000	 92.885463 
943.000000	 92.926890 
942.000000	 92.970588 
941.000000	 93.015810 
940.000000	 93.062226 
939.000000	 93.111679 
938.000000	 93.163100 
937.000000	 93.211884 
936.000000	 93.256266 
935.000000	 93.299067 
934.000000	 93.342104 
933.000000	 93.384405 
932.000000	 93.426818 
931.000000	 93.472515 
930.000000	 93.521379 
929.000000	 93.569011 
928.000000	 93.612539 
927.000000	 93.652928 
926.000000	 93.691033 
925.000000	 93.725661 
924.000000	 93.755611 
923.000000	 93.779962 
922.000000	 93.797799 
921.000000	 93.812213 
920.000000	 93.832116 
919.000000	 93.863661 
918.000000	 93.900919 
917.000000	 93.931500 
916.000000	 93.951227 
915.000000	 93.968003 
914.000000	 93.992453 
913.000000	 94.030335 
912.000000	 94.082001 
911.000000	 94.142416 
910.000000	 94.203208 
909.000000	 94.261607 
908.000000	 94.325376 
907.000000	 94.402668 
906.000000	 94.490767 
905.000000	 94.582041 
904.000000	 94.676265 
903.000000	 94.776616 
902.000000	 94.876875 
901.000000	 94.965155 
900.000000	 95.040367 
899.000000	 95.114217 
898.000000	 95.195825 
897.000000	 95.283156 
896.000000	 95.370229 
895.000000	 95.453681 
894.000000	 95.530943 
893.000000	 95.600224 
892.000000	 95.663966 
891.000000	 95.725917 
890.000000	 95.784632 
889.000000	 95.836170 
888.000000	 95.881803 
887.000000	 95.925597 
886.000000	 95.966223 
885.000000	 95.999870 
884.000000	 96.029362 
883.000000	 96.060464 
882.000000	 96.090982 
881.000000	 96.115736 
880.000000	 96.141944 
879.000000	 96.185369 
878.000000	 96.247968 
877.000000	 96.312590 
876.000000	 96.364635 
875.000000	 96.407299 
874.000000	 96.451055 
873.000000	 96.500683 
872.000000	 96.558568 
871.000000	 96.628574 
870.000000	 96.708285 
869.000000	 96.786014 
868.000000	 96.852476 
867.000000	 96.908869 
866.000000	 96.959635 
865.000000	 97.005733 
864.000000	 97.049990 
863.000000	 97.100282 
862.000000	 97.159613 
861.000000	 97.219236 
860.000000	 97.269212 
859.000000	 97.311428 
858.000000	 97.355823 
857.000000	 97.407080 
856.000000	 97.460667 
855.000000	 97.508895 
854.000000	 97.545386 
853.000000	 97.566514 
852.000000	 97.574496 
851.000000	 97.578703 
850.000000	 97.590025 
849.000000	 97.613743 
848.000000	 97.648317 
847.000000	 97.687701 
846.000000	 97.723432 
845.000000	 97.748801 
844.000000	 97.763673 
843.000000	 97.772959 
842.000000	 97.779906 
841.000000	 97.784459 
840.000000	 97.787751 
839.000000	 97.791867 
838.000000	 97.794102 
837.000000	 97.788633 
836.000000	 97.777018 
835.000000	 97.770493 
834.000000	 97.776909 
833.000000	 97.790243 
832.000000	 97.797872 
831.000000	 97.794294 
830.000000	 97.783698 
829.000000	 97.773496 
828.000000	 97.771198 
827.000000	 97.784464 
826.000000	 97.816330 
825.000000	 97.859003 
824.000000	 97.896542 
823.000000	 97.915821 
822.000000	 97.915726 
821.000000	 97.907532 
820.000000	 97.906210 
819.000000	 97.917971 
818.000000	 97.934186 
817.000000	 97.938796 
816.000000	 97.922197 
815.000000	 97.887035 
814.000000	 97.842351 
813.000000	 97.794957 
812.000000	 97.745149 
811.000000	 97.685827 
810.000000	 97.604541 
809.000000	 97.490533 
808.000000	 97.342280 
807.000000	 97.167608 
806.000000	 96.977562 
805.000000	 96.782458 
804.000000	 96.591740 
803.000000	 96.412027 
802.000000	 96.245514 
801.000000	 96.096139 
800.000000	 95.976607 
799.000000	 95.901604 
798.000000	 95.872795 
797.000000	 95.876913 
796.000000	 95.898874 
795.000000	 95.929969 
794.000000	 95.964223 
793.000000	 95.996635 
792.000000	 96.027241 
791.000000	 96.059338 
790.000000	 96.091616 
789.000000	 96.117716 
788.000000	 96.132916 
787.000000	 96.134305 
786.000000	 96.115753 
785.000000	 96.071349 
784.000000	 96.004427 
783.000000	 95.926039 
782.000000	 95.845124 
781.000000	 95.768259 
780.000000	 95.706949 
779.000000	 95.673255 
778.000000	 95.667406 
777.000000	 95.681231 
776.000000	 95.714827 
775.000000	 95.776479 
774.000000	 95.862523 
773.000000	 95.950874 
772.000000	 96.021806 
771.000000	 96.075515 
770.000000	 96.123288 
769.000000	 96.171076 
768.000000	 96.217882 
767.000000	 96.260955 
766.000000	 96.295316 
765.000000	 96.315897 
764.000000	 96.327280 
763.000000	 96.344560 
762.000000	 96.377342 
761.000000	 96.418401 
760.000000	 96.454358 
759.000000	 96.481749 
758.000000	 96.506284 
757.000000	 96.532701 
756.000000	 96.563786 
755.000000	 96.604762 
754.000000	 96.658317 
753.000000	 96.715195 
752.000000	 96.757428 
751.000000	 96.774167 
750.000000	 96.772688 
749.000000	 96.773397 
748.000000	 96.793675 
747.000000	 96.834480 
746.000000	 96.881444 
745.000000	 96.920210 
744.000000	 96.950402 
743.000000	 96.982341 
742.000000	 97.022013 
741.000000	 97.064746 
740.000000	 97.104186 
739.000000	 97.141360 
738.000000	 97.181694 
737.000000	 97.226395 
736.000000	 97.269558 
735.000000	 97.302895 
734.000000	 97.322630 
733.000000	 97.333257 
732.000000	 97.344151 
731.000000	 97.360027 
730.000000	 97.375585 
729.000000	 97.382427 
728.000000	 97.381084 
727.000000	 97.381501 
726.000000	 97.391992 
725.000000	 97.413720 
724.000000	 97.443757 
723.000000	 97.476462 
722.000000	 97.503616 
721.000000	 97.521626 
720.000000	 97.538351 
719.000000	 97.563090 
718.000000	 97.591164 
717.000000	 97.609804 
716.000000	 97.616237 
715.000000	 97.618996 
714.000000	 97.622728 
713.000000	 97.623699 
712.000000	 97.623089 
711.000000	 97.630390 
710.000000	 97.648598 
709.000000	 97.668284 
708.000000	 97.681841 
707.000000	 97.694102 
706.000000	 97.709687 
705.000000	 97.721499 
704.000000	 97.720826 
703.000000	 97.708037 
702.000000	 97.685916 
701.000000	 97.649681 
700.000000	 97.592019 
699.000000	 97.515183 
698.000000	 97.429417 
697.000000	 97.344826 
696.000000	 97.271742 
695.000000	 97.222783 
694.000000	 97.208959 
693.000000	 97.232097 
692.000000	 97.283056 
691.000000	 97.347029 
690.000000	 97.408094 
689.000000	 97.454957 
688.000000	 97.485887 
687.000000	 97.505841 
686.000000	 97.521121 
685.000000	 97.538467 
684.000000	 97.564560 
683.000000	 97.599770 
682.000000	 97.632887 
681.000000	 97.651396 
680.000000	 97.656024 
679.000000	 97.659978 
678.000000	 97.670573 
677.000000	 97.684174 
676.000000	 97.703400 
675.000000	 97.733118 
674.000000	 97.765273 
673.000000	 97.786038 
672.000000	 97.797262 
671.000000	 97.822084 
670.000000	 97.884536 
669.000000	 97.977444 
668.000000	 98.023065 
667.000000	 97.981048 
666.000000	 97.922442 
665.000000	 97.885125 
664.000000	 97.857611 
663.000000	 97.838141 
662.000000	 97.837173 
661.000000	 97.852567 
660.000000	 97.876206 
659.000000	 97.906500 
658.000000	 97.940605 
657.000000	 97.963490 
656.000000	 97.966180 
655.000000	 97.952756 
654.000000	 97.928857 
653.000000	 97.897259 
652.000000	 97.868680 
651.000000	 97.860562 
650.000000	 97.874859 

