4000.000000	96.692240 
3999.000000	96.690253 
3998.000000	96.687391 
3997.000000	96.684826 
3996.000000	96.683381 
3995.000000	96.683245 
3994.000000	96.684175 
3993.000000	96.685603 
3992.000000	96.686818 
3991.000000	96.687254 
3990.000000	96.686806 
3989.000000	96.685870 
3988.000000	96.684960 
3987.000000	96.684380 
3986.000000	96.684271 
3985.000000	96.684687 
3984.000000	96.685382 
3983.000000	96.685829 
3982.000000	96.685776 
3981.000000	96.685562 
3980.000000	96.685557 
3979.000000	96.685534 
3978.000000	96.685032 
3977.000000	96.684156 
3976.000000	96.683521 
3975.000000	96.683327 
3974.000000	96.683009 
3973.000000	96.681977 
3972.000000	96.680249 
3971.000000	96.678348 
3970.000000	96.676826 
3969.000000	96.676059 
3968.000000	96.676169 
3967.000000	96.676878 
3966.000000	96.677608 
3965.000000	96.677824 
3964.000000	96.677206 
3963.000000	96.675698 
3962.000000	96.673604 
3961.000000	96.671566 
3960.000000	96.670115 
3959.000000	96.669338 
3958.000000	96.669011 
3957.000000	96.668972 
3956.000000	96.669059 
3955.000000	96.668855 
3954.000000	96.668017 
3953.000000	96.666641 
3952.000000	96.665228 
3951.000000	96.664206 
3950.000000	96.663572 
3949.000000	96.663009 
3948.000000	96.662139 
3947.000000	96.660900 
3946.000000	96.659734 
3945.000000	96.659220 
3944.000000	96.659420 
3943.000000	96.659678 
3942.000000	96.659543 
3941.000000	96.659263 
3940.000000	96.659272 
3939.000000	96.659590 
3938.000000	96.659799 
3937.000000	96.659605 
3936.000000	96.659029 
3935.000000	96.657988 
3934.000000	96.656404 
3933.000000	96.654629 
3932.000000	96.653381 
3931.000000	96.652820 
3930.000000	96.652414 
3929.000000	96.652047 
3928.000000	96.652318 
3927.000000	96.653560 
3926.000000	96.654892 
3925.000000	96.654952 
3924.000000	96.653636 
3923.000000	96.651956 
3922.000000	96.650483 
3921.000000	96.649144 
3920.000000	96.648135 
3919.000000	96.648079 
3918.000000	96.648857 
3917.000000	96.649410 
3916.000000	96.649137 
3915.000000	96.648599 
3914.000000	96.648461 
3913.000000	96.648693 
3912.000000	96.648933 
3911.000000	96.649153 
3910.000000	96.649230 
3909.000000	96.648855 
3908.000000	96.647987 
3907.000000	96.646752 
3906.000000	96.645064 
3905.000000	96.642256 
3904.000000	96.638160 
3903.000000	96.634104 
3902.000000	96.631865 
3901.000000	96.631911 
3900.000000	96.633186 
3899.000000	96.634226 
3898.000000	96.634629 
3897.000000	96.634646 
3896.000000	96.634342 
3895.000000	96.633888 
3894.000000	96.633640 
3893.000000	96.633793 
3892.000000	96.633719 
3891.000000	96.632541 
3890.000000	96.630393 
3889.000000	96.628260 
3888.000000	96.626893 
3887.000000	96.626141 
3886.000000	96.625526 
3885.000000	96.624954 
3884.000000	96.624485 
3883.000000	96.623814 
3882.000000	96.622680 
3881.000000	96.621402 
3880.000000	96.620554 
3879.000000	96.620149 
3878.000000	96.619827 
3877.000000	96.619489 
3876.000000	96.619266 
3875.000000	96.618941 
3874.000000	96.618095 
3873.000000	96.616783 
3872.000000	96.615477 
3871.000000	96.614299 
3870.000000	96.613078 
3869.000000	96.612200 
3868.000000	96.612093 
3867.000000	96.612391 
3866.000000	96.612261 
3865.000000	96.611602 
3864.000000	96.611277 
3863.000000	96.611660 
3862.000000	96.611891 
3861.000000	96.611607 
3860.000000	96.611533 
3859.000000	96.612086 
3858.000000	96.612537 
3857.000000	96.611998 
3856.000000	96.610624 
3855.000000	96.608894 
3854.000000	96.606419 
3853.000000	96.603680 
3852.000000	96.602314 
3851.000000	96.602837 
3850.000000	96.604159 
3849.000000	96.605515 
3848.000000	96.607231 
3847.000000	96.609680 
3846.000000	96.611830 
3845.000000	96.612378 
3844.000000	96.611245 
3843.000000	96.609182 
3842.000000	96.606919 
3841.000000	96.605188 
3840.000000	96.604220 
3839.000000	96.604121 
3838.000000	96.604922 
3837.000000	96.605831 
3836.000000	96.606077 
3835.000000	96.605776 
3834.000000	96.605795 
3833.000000	96.606792 
3832.000000	96.608442 
3831.000000	96.610085 
3830.000000	96.611430 
3829.000000	96.612626 
3828.000000	96.614136 
3827.000000	96.615909 
3826.000000	96.616936 
3825.000000	96.616829 
3824.000000	96.616093 
3823.000000	96.615223 
3822.000000	96.613891 
3821.000000	96.611501 
3820.000000	96.608816 
3819.000000	96.606899 
3818.000000	96.606038 
3817.000000	96.606099 
3816.000000	96.607760 
3815.000000	96.612095 
3814.000000	96.617931 
3813.000000	96.621884 
3812.000000	96.622304 
3811.000000	96.621542 
3810.000000	96.622939 
3809.000000	96.626560 
3808.000000	96.628727 
3807.000000	96.626450 
3806.000000	96.620913 
3805.000000	96.615362 
3804.000000	96.611182 
3803.000000	96.608890 
3802.000000	96.608740 
3801.000000	96.610818 
3800.000000	96.614661 
3799.000000	96.617798 
3798.000000	96.618588 
3797.000000	96.618960 
3796.000000	96.622123 
3795.000000	96.628127 
3794.000000	96.633476 
3793.000000	96.635491 
3792.000000	96.635642 
3791.000000	96.637544 
3790.000000	96.641607 
3789.000000	96.644637 
3788.000000	96.644888 
3787.000000	96.644103 
3786.000000	96.644208 
3785.000000	96.644228 
3784.000000	96.642122 
3783.000000	96.638300 
3782.000000	96.634614 
3781.000000	96.632224 
3780.000000	96.631673 
3779.000000	96.633741 
3778.000000	96.637881 
3777.000000	96.641582 
3776.000000	96.641825 
3775.000000	96.637668 
3774.000000	96.631550 
3773.000000	96.627370 
3772.000000	96.626649 
3771.000000	96.626935 
3770.000000	96.625522 
3769.000000	96.623245 
3768.000000	96.622038 
3767.000000	96.621755 
3766.000000	96.621210 
3765.000000	96.620150 
3764.000000	96.620061 
3763.000000	96.621375 
3762.000000	96.621211 
3761.000000	96.616965 
3760.000000	96.610664 
3759.000000	96.607224 
3758.000000	96.605336 
3757.000000	96.599553 
3756.000000	96.589498 
3755.000000	96.578423 
3754.000000	96.567532 
3753.000000	96.555842 
3752.000000	96.546615 
3751.000000	96.545008 
3750.000000	96.546076 
3749.000000	96.540930 
3748.000000	96.532151 
3747.000000	96.529400 
3746.000000	96.535664 
3745.000000	96.542195 
3744.000000	96.546389 
3743.000000	96.553966 
3742.000000	96.561165 
3741.000000	96.558869 
3740.000000	96.548269 
3739.000000	96.542529 
3738.000000	96.549137 
3737.000000	96.557735 
3736.000000	96.557025 
3735.000000	96.552209 
3734.000000	96.554476 
3733.000000	96.562236 
3732.000000	96.567763 
3731.000000	96.570716 
3730.000000	96.574028 
3729.000000	96.576724 
3728.000000	96.576007 
3727.000000	96.572209 
3726.000000	96.569927 
3725.000000	96.571848 
3724.000000	96.575350 
3723.000000	96.577328 
3722.000000	96.578342 
3721.000000	96.580034 
3720.000000	96.580759 
3719.000000	96.579818 
3718.000000	96.577929 
3717.000000	96.574966 
3716.000000	96.570918 
3715.000000	96.564164 
3714.000000	96.552868 
3713.000000	96.538889 
3712.000000	96.527512 
3711.000000	96.521726 
3710.000000	96.518177 
3709.000000	96.513108 
3708.000000	96.506230 
3707.000000	96.497960 
3706.000000	96.489031 
3705.000000	96.480707 
3704.000000	96.473809 
3703.000000	96.467416 
3702.000000	96.457952 
3701.000000	96.442013 
3700.000000	96.420309 
3699.000000	96.398138 
3698.000000	96.380758 
3697.000000	96.369027 
3696.000000	96.361920 
3695.000000	96.358054 
3694.000000	96.354016 
3693.000000	96.347180 
3692.000000	96.339427 
3691.000000	96.334884 
3690.000000	96.332454 
3689.000000	96.327356 
3688.000000	96.319718 
3687.000000	96.313939 
3686.000000	96.311409 
3685.000000	96.308367 
3684.000000	96.301980 
3683.000000	96.295421 
3682.000000	96.292660 
3681.000000	96.289026 
3680.000000	96.275384 
3679.000000	96.249790 
3678.000000	96.220817 
3677.000000	96.195068 
3676.000000	96.169940 
3675.000000	96.145920 
3674.000000	96.126607 
3673.000000	96.110878 
3672.000000	96.094617 
3671.000000	96.078395 
3670.000000	96.067474 
3669.000000	96.063441 
3668.000000	96.059336 
3667.000000	96.048946 
3666.000000	96.035296 
3665.000000	96.024350 
3664.000000	96.016660 
3663.000000	96.008410 
3662.000000	95.995149 
3661.000000	95.974342 
3660.000000	95.947776 
3659.000000	95.919671 
3658.000000	95.894395 
3657.000000	95.871574 
3656.000000	95.847720 
3655.000000	95.822179 
3654.000000	95.796095 
3653.000000	95.769876 
3652.000000	95.742612 
3651.000000	95.714274 
3650.000000	95.687203 
3649.000000	95.663099 
3648.000000	95.642085 
3647.000000	95.626081 
3646.000000	95.617928 
3645.000000	95.617030 
3644.000000	95.619139 
3643.000000	95.620209 
3642.000000	95.617890 
3641.000000	95.611409 
3640.000000	95.600939 
3639.000000	95.586340 
3638.000000	95.568775 
3637.000000	95.550506 
3636.000000	95.532427 
3635.000000	95.511737 
3634.000000	95.485370 
3633.000000	95.455396 
3632.000000	95.426722 
3631.000000	95.401011 
3630.000000	95.375246 
3629.000000	95.349714 
3628.000000	95.330145 
3627.000000	95.319003 
3626.000000	95.312738 
3625.000000	95.309727 
3624.000000	95.312364 
3623.000000	95.321883 
3622.000000	95.334083 
3621.000000	95.340569 
3620.000000	95.335757 
3619.000000	95.322525 
3618.000000	95.308594 
3617.000000	95.300819 
3616.000000	95.304373 
3615.000000	95.320186 
3614.000000	95.342899 
3613.000000	95.364800 
3612.000000	95.381246 
3611.000000	95.391505 
3610.000000	95.397876 
3609.000000	95.404563 
3608.000000	95.414847 
3607.000000	95.428634 
3606.000000	95.442889 
3605.000000	95.456353 
3604.000000	95.471137 
3603.000000	95.488814 
3602.000000	95.507337 
3601.000000	95.521653 
3600.000000	95.528797 
3599.000000	95.530608 
3598.000000	95.531616 
3597.000000	95.535263 
3596.000000	95.542916 
3595.000000	95.551151 
3594.000000	95.554439 
3593.000000	95.551251 
3592.000000	95.544664 
3591.000000	95.538873 
3590.000000	95.536484 
3589.000000	95.537781 
3588.000000	95.541903 
3587.000000	95.547507 
3586.000000	95.552917 
3585.000000	95.557577 
3584.000000	95.563195 
3583.000000	95.571345 
3582.000000	95.581419 
3581.000000	95.590044 
3580.000000	95.593869 
3579.000000	95.592366 
3578.000000	95.588083 
3577.000000	95.584695 
3576.000000	95.584454 
3575.000000	95.587146 
3574.000000	95.589997 
3573.000000	95.589847 
3572.000000	95.584724 
3571.000000	95.574629 
3570.000000	95.561330 
3569.000000	95.547794 
3568.000000	95.537725 
3567.000000	95.534004 
3566.000000	95.535651 
3565.000000	95.538749 
3564.000000	95.540895 
3563.000000	95.543112 
3562.000000	95.547382 
3561.000000	95.553868 
3560.000000	95.560131 
3559.000000	95.563222 
3558.000000	95.562146 
3557.000000	95.558496 
3556.000000	95.554932 
3555.000000	95.553249 
3554.000000	95.553252 
3553.000000	95.553209 
3552.000000	95.551738 
3551.000000	95.548950 
3550.000000	95.546063 
3549.000000	95.544260 
3548.000000	95.543926 
3547.000000	95.544293 
3546.000000	95.543860 
3545.000000	95.541818 
3544.000000	95.539302 
3543.000000	95.538366 
3542.000000	95.539700 
3541.000000	95.542142 
3540.000000	95.544128 
3539.000000	95.545035 
3538.000000	95.545175 
3537.000000	95.544948 
3536.000000	95.544492 
3535.000000	95.543612 
3534.000000	95.542206 
3533.000000	95.540621 
3532.000000	95.539567 
3531.000000	95.539482 
3530.000000	95.539893 
3529.000000	95.539642 
3528.000000	95.537898 
3527.000000	95.534911 
3526.000000	95.531818 
3525.000000	95.529816 
3524.000000	95.529524 
3523.000000	95.530840 
3522.000000	95.533090 
3521.000000	95.535401 
3520.000000	95.537224 
3519.000000	95.538373 
3518.000000	95.538732 
3517.000000	95.538053 
3516.000000	95.536238 
3515.000000	95.533696 
3514.000000	95.531323 
3513.000000	95.529914 
3512.000000	95.529503 
3511.000000	95.529334 
3510.000000	95.528610 
3509.000000	95.527282 
3508.000000	95.525994 
3507.000000	95.525275 
3506.000000	95.524910 
3505.000000	95.524150 
3504.000000	95.522517 
3503.000000	95.520284 
3502.000000	95.518268 
3501.000000	95.517191 
3500.000000	95.517295 
3499.000000	95.518276 
3498.000000	95.519411 
3497.000000	95.519921 
3496.000000	95.519329 
3495.000000	95.517644 
3494.000000	95.515335 
3493.000000	95.513110 
3492.000000	95.511420 
3491.000000	95.510066 
3490.000000	95.508510 
3489.000000	95.506522 
3488.000000	95.504305 
3487.000000	95.502059 
3486.000000	95.499801 
3485.000000	95.497727 
3484.000000	95.496257 
3483.000000	95.495470 
3482.000000	95.494793 
3481.000000	95.493613 
3480.000000	95.491925 
3479.000000	95.490044 
3478.000000	95.487967 
3477.000000	95.485471 
3476.000000	95.482652 
3475.000000	95.480037 
3474.000000	95.478095 
3473.000000	95.476860 
3472.000000	95.475943 
3471.000000	95.474705 
3470.000000	95.472585 
3469.000000	95.469548 
3468.000000	95.466138 
3467.000000	95.463042 
3466.000000	95.460611 
3465.000000	95.458725 
3464.000000	95.456956 
3463.000000	95.454802 
3462.000000	95.451999 
3461.000000	95.448739 
3460.000000	95.445487 
3459.000000	95.442422 
3458.000000	95.439217 
3457.000000	95.435463 
3456.000000	95.431335 
3455.000000	95.427632 
3454.000000	95.425155 
3453.000000	95.423993 
3452.000000	95.423426 
3451.000000	95.422486 
3450.000000	95.420642 
3449.000000	95.417951 
3448.000000	95.414713 
3447.000000	95.411144 
3446.000000	95.407352 
3445.000000	95.403634 
3444.000000	95.400545 
3443.000000	95.398476 
3442.000000	95.397196 
3441.000000	95.395916 
3440.000000	95.393975 
3439.000000	95.391361 
3438.000000	95.388503 
3437.000000	95.385755 
3436.000000	95.383261 
3435.000000	95.381177 
3434.000000	95.379729 
3433.000000	95.378882 
3432.000000	95.378203 
3431.000000	95.377209 
3430.000000	95.375719 
3429.000000	95.373845 
3428.000000	95.371717 
3427.000000	95.369406 
3426.000000	95.367118 
3425.000000	95.365239 
3424.000000	95.364020 
3423.000000	95.363161 
3422.000000	95.361925 
3421.000000	95.359868 
3420.000000	95.357360 
3419.000000	95.355242 
3418.000000	95.353948 
3417.000000	95.353213 
3416.000000	95.352543 
3415.000000	95.351674 
3414.000000	95.350502 
3413.000000	95.348906 
3412.000000	95.346969 
3411.000000	95.345221 
3410.000000	95.344310 
3409.000000	95.344428 
3408.000000	95.345145 
3407.000000	95.345731 
3406.000000	95.345666 
3405.000000	95.344891 
3404.000000	95.343733 
3403.000000	95.342608 
3402.000000	95.341730 
3401.000000	95.341091 
3400.000000	95.340660 
3399.000000	95.340457 
3398.000000	95.340432 
3397.000000	95.340427 
3396.000000	95.340346 
3395.000000	95.340268 
3394.000000	95.340305 
3393.000000	95.340399 
3392.000000	95.340365 
3391.000000	95.340140 
3390.000000	95.339960 
3389.000000	95.340218 
3388.000000	95.341119 
3387.000000	95.342478 
3386.000000	95.343795 
3385.000000	95.344579 
3384.000000	95.344636 
3383.000000	95.344141 
3382.000000	95.343618 
3381.000000	95.343663 
3380.000000	95.344515 
3379.000000	95.345903 
3378.000000	95.347352 
3377.000000	95.348735 
3376.000000	95.350290 
3375.000000	95.352055 
3374.000000	95.353596 
3373.000000	95.354458 
3372.000000	95.354733 
3371.000000	95.355080 
3370.000000	95.356115 
3369.000000	95.357890 
3368.000000	95.359935 
3367.000000	95.361656 
3366.000000	95.362760 
3365.000000	95.363361 
3364.000000	95.363822 
3363.000000	95.364468 
3362.000000	95.365372 
3361.000000	95.366441 
3360.000000	95.367674 
3359.000000	95.369242 
3358.000000	95.371241 
3357.000000	95.373477 
3356.000000	95.375582 
3355.000000	95.377386 
3354.000000	95.379109 
3353.000000	95.381155 
3352.000000	95.383688 
3351.000000	95.386431 
3350.000000	95.388906 
3349.000000	95.390870 
3348.000000	95.392482 
3347.000000	95.394109 
3346.000000	95.396002 
3345.000000	95.398122 
3344.000000	95.400182 
3343.000000	95.401841 
3342.000000	95.403003 
3341.000000	95.404031 
3340.000000	95.405449 
3339.000000	95.407342 
3338.000000	95.409355 
3337.000000	95.411169 
3336.000000	95.412831 
3335.000000	95.414568 
3334.000000	95.416471 
3333.000000	95.418446 
3332.000000	95.420387 
3331.000000	95.422296 
3330.000000	95.424230 
3329.000000	95.426227 
3328.000000	95.428300 
3327.000000	95.430442 
3326.000000	95.432608 
3325.000000	95.434742 
3324.000000	95.436817 
3323.000000	95.438851 
3322.000000	95.440888 
3321.000000	95.442954 
3320.000000	95.445039 
3319.000000	95.447126 
3318.000000	95.449212 
3317.000000	95.451294 
3316.000000	95.453365 
3315.000000	95.455425 
3314.000000	95.457472 
3313.000000	95.459511 
3312.000000	95.461549 
3311.000000	95.463590 
3310.000000	95.465637 
3309.000000	95.467689 
3308.000000	95.469738 
3307.000000	95.471777 
3306.000000	95.473801 
3305.000000	95.475813 
3304.000000	95.477823 
3303.000000	95.479845 
3302.000000	95.481892 
3301.000000	95.483968 
3300.000000	95.486068 
3299.000000	95.488180 
3298.000000	95.490295 
3297.000000	95.492416 
3296.000000	95.494551 
3295.000000	95.496709 
3294.000000	95.498892 
3293.000000	95.501092 
3292.000000	95.503300 
3291.000000	95.505511 
3290.000000	95.507719 
3289.000000	95.509923 
3288.000000	95.512123 
3287.000000	95.514323 
3286.000000	95.516524 
3285.000000	95.518730 
3284.000000	95.520939 
3283.000000	95.523152 
3282.000000	95.525371 
3281.000000	95.527598 
3280.000000	95.529834 
3279.000000	95.532080 
3278.000000	95.534337 
3277.000000	95.536606 
3276.000000	95.538892 
3275.000000	95.541194 
3274.000000	95.543509 
3273.000000	95.545840 
3272.000000	95.548190 
3271.000000	95.550564 
3270.000000	95.552958 
3269.000000	95.555366 
3268.000000	95.557782 
3267.000000	95.560208 
3266.000000	95.562654 
3265.000000	95.565134 
3264.000000	95.567655 
3263.000000	95.570213 
3262.000000	95.572800 
3261.000000	95.575406 
3260.000000	95.578023 
3259.000000	95.580643 
3258.000000	95.583262 
3257.000000	95.585883 
3256.000000	95.588513 
3255.000000	95.591157 
3254.000000	95.593817 
3253.000000	95.596490 
3252.000000	95.599174 
3251.000000	95.601869 
3250.000000	95.604576 
3249.000000	95.607296 
3248.000000	95.610031 
3247.000000	95.612783 
3246.000000	95.615551 
3245.000000	95.618332 
3244.000000	95.621122 
3243.000000	95.623917 
3242.000000	95.626715 
3241.000000	95.629520 
3240.000000	95.632340 
3239.000000	95.635177 
3238.000000	95.638035 
3237.000000	95.640911 
3236.000000	95.643796 
3235.000000	95.646681 
3234.000000	95.649563 
3233.000000	95.652445 
3232.000000	95.655336 
3231.000000	95.658242 
3230.000000	95.661170 
3229.000000	95.664124 
3228.000000	95.667102 
3227.000000	95.670104 
3226.000000	95.673133 
3225.000000	95.676184 
3224.000000	95.679235 
3223.000000	95.682262 
3222.000000	95.685259 
3221.000000	95.688250 
3220.000000	95.691263 
3219.000000	95.694302 
3218.000000	95.697358 
3217.000000	95.700426 
3216.000000	95.703518 
3215.000000	95.706649 
3214.000000	95.709824 
3213.000000	95.713027 
3212.000000	95.716241 
3211.000000	95.719447 
3210.000000	95.722642 
3209.000000	95.725848 
3208.000000	95.729103 
3207.000000	95.732431 
3206.000000	95.735801 
3205.000000	95.739137 
3204.000000	95.742404 
3203.000000	95.745661 
3202.000000	95.748999 
3201.000000	95.752404 
3200.000000	95.755741 
3199.000000	95.758927 
3198.000000	95.762107 
3197.000000	95.765536 
3196.000000	95.769292 
3195.000000	95.773166 
3194.000000	95.776894 
3193.000000	95.780458 
3192.000000	95.784033 
3191.000000	95.787731 
3190.000000	95.791441 
3189.000000	95.794972 
3188.000000	95.798275 
3187.000000	95.801531 
3186.000000	95.805039 
3185.000000	95.808997 
3184.000000	95.813312 
3183.000000	95.817571 
3182.000000	95.821382 
3181.000000	95.824699 
3180.000000	95.827816 
3179.000000	95.831078 
3178.000000	95.834624 
3177.000000	95.838440 
3176.000000	95.842460 
3175.000000	95.846588 
3174.000000	95.850713 
3173.000000	95.854766 
3172.000000	95.858650 
3171.000000	95.862201 
3170.000000	95.865374 
3169.000000	95.868429 
3168.000000	95.871702 
3167.000000	95.875201 
3166.000000	95.878685 
3165.000000	95.882027 
3164.000000	95.885212 
3163.000000	95.888055 
3162.000000	95.890351 
3161.000000	95.892341 
3160.000000	95.894670 
3159.000000	95.897758 
3158.000000	95.901491 
3157.000000	95.905566 
3156.000000	95.909857 
3155.000000	95.914275 
3154.000000	95.918487 
3153.000000	95.922073 
3152.000000	95.924895 
3151.000000	95.927144 
3150.000000	95.929221 
3149.000000	95.931553 
3148.000000	95.934378 
3147.000000	95.937585 
3146.000000	95.940841 
3145.000000	95.943957 
3144.000000	95.947020 
3143.000000	95.950098 
3142.000000	95.953069 
3141.000000	95.955913 
3140.000000	95.958942 
3139.000000	95.962467 
3138.000000	95.966288 
3137.000000	95.969749 
3136.000000	95.972312 
3135.000000	95.973975 
3134.000000	95.975294 
3133.000000	95.977043 
3132.000000	95.979713 
3131.000000	95.983301 
3130.000000	95.987494 
3129.000000	95.991927 
3128.000000	95.996260 
3127.000000	96.000177 
3126.000000	96.003510 
3125.000000	96.006387 
3124.000000	96.009120 
3123.000000	96.011889 
3122.000000	96.014661 
3121.000000	96.017453 
3120.000000	96.020475 
3119.000000	96.023909 
3118.000000	96.027641 
3117.000000	96.031316 
3116.000000	96.034601 
3115.000000	96.037358 
3114.000000	96.039690 
3113.000000	96.041945 
3112.000000	96.044574 
3111.000000	96.047827 
3110.000000	96.051539 
3109.000000	96.055198 
3108.000000	96.058360 
3107.000000	96.060968 
3106.000000	96.063300 
3105.000000	96.065628 
3104.000000	96.067985 
3103.000000	96.070284 
3102.000000	96.072560 
3101.000000	96.074971 
3100.000000	96.077577 
3099.000000	96.080261 
3098.000000	96.082952 
3097.000000	96.085800 
3096.000000	96.088955 
3095.000000	96.092257 
3094.000000	96.095302 
3093.000000	96.097834 
3092.000000	96.099940 
3091.000000	96.101791 
3090.000000	96.103443 
3089.000000	96.104968 
3088.000000	96.106593 
3087.000000	96.108603 
3086.000000	96.111132 
3085.000000	96.114054 
3084.000000	96.117009 
3083.000000	96.119624 
3082.000000	96.121759 
3081.000000	96.123568 
3080.000000	96.125355 
3079.000000	96.127203 
3078.000000	96.128881 
3077.000000	96.130323 
3076.000000	96.132036 
3075.000000	96.134597 
3074.000000	96.137787 
3073.000000	96.140629 
3072.000000	96.142447 
3071.000000	96.143406 
3070.000000	96.144070 
3069.000000	96.144943 
3068.000000	96.146519 
3067.000000	96.149142 
3066.000000	96.152449 
3065.000000	96.155349 
3064.000000	96.156942 
3063.000000	96.157156 
3062.000000	96.156453 
3061.000000	96.155403 
3060.000000	96.154666 
3059.000000	96.154897 
3058.000000	96.156427 
3057.000000	96.159190 
3056.000000	96.162825 
3055.000000	96.166368 
3054.000000	96.168290 
3053.000000	96.167833 
3052.000000	96.166370 
3051.000000	96.166456 
3050.000000	96.169015 
3049.000000	96.172285 
3048.000000	96.173899 
3047.000000	96.173181 
3046.000000	96.170985 
3045.000000	96.168427 
3044.000000	96.166671 
3043.000000	96.167185 
3042.000000	96.170811 
3041.000000	96.176381 
3040.000000	96.181036 
3039.000000	96.182485 
3038.000000	96.180663 
3037.000000	96.177112 
3036.000000	96.173118 
3035.000000	96.168707 
3034.000000	96.163476 
3033.000000	96.157964 
3032.000000	96.153645 
3031.000000	96.151572 
3030.000000	96.151552 
3029.000000	96.152666 
3028.000000	96.153859 
3027.000000	96.153723 
3026.000000	96.150675 
3025.000000	96.144382 
3024.000000	96.136714 
3023.000000	96.130317 
3022.000000	96.126278 
3021.000000	96.124102 
3020.000000	96.123555 
3019.000000	96.124968 
3018.000000	96.127318 
3017.000000	96.127456 
3016.000000	96.122563 
3015.000000	96.112982 
3014.000000	96.102201 
3013.000000	96.094095 
3012.000000	96.090069 
3011.000000	96.088389 
3010.000000	96.085902 
3009.000000	96.080729 
3008.000000	96.073424 
3007.000000	96.065619 
3006.000000	96.058014 
3005.000000	96.050320 
3004.000000	96.042722 
3003.000000	96.036314 
3002.000000	96.032020 
3001.000000	96.029811 
3000.000000	96.028872 
2999.000000	96.027698 
2998.000000	96.024272 
2997.000000	96.017415 
2996.000000	96.008164 
2995.000000	95.998928 
2994.000000	95.991078 
2993.000000	95.984090 
2992.000000	95.976924 
2991.000000	95.969232 
2990.000000	95.961269 
2989.000000	95.953840 
2988.000000	95.948495 
2987.000000	95.946607 
2986.000000	95.948010 
2985.000000	95.951447 
2984.000000	95.956351 
2983.000000	95.962916 
2982.000000	95.970274 
2981.000000	95.976110 
2980.000000	95.978755 
2979.000000	95.978454 
2978.000000	95.976146 
2977.000000	95.972371 
2976.000000	95.968104 
2975.000000	95.965357 
2974.000000	95.965752 
2973.000000	95.969192 
2972.000000	95.974555 
2971.000000	95.980851 
2970.000000	95.986984 
2969.000000	95.991598 
2968.000000	95.994321 
2967.000000	95.996397 
2966.000000	95.999079 
2965.000000	96.002163 
2964.000000	96.005045 
2963.000000	96.008374 
2962.000000	96.013341 
2961.000000	96.019748 
2960.000000	96.026081 
2959.000000	96.031436 
2958.000000	96.036325 
2957.000000	96.041474 
2956.000000	96.046512 
2955.000000	96.050093 
2954.000000	96.051162 
2953.000000	96.050378 
2952.000000	96.050473 
2951.000000	96.054592 
2950.000000	96.063453 
2949.000000	96.074326 
2948.000000	96.083236 
2947.000000	96.087833 
2946.000000	96.088068 
2945.000000	96.085234 
2944.000000	96.081365 
2943.000000	96.078613 
2942.000000	96.077527 
2941.000000	96.076127 
2940.000000	96.072109 
2939.000000	96.066013 
2938.000000	96.060966 
2937.000000	96.059012 
2936.000000	96.058826 
2935.000000	96.057545 
2934.000000	96.053979 
2933.000000	96.049420 
2932.000000	96.046003 
2931.000000	96.044894 
2930.000000	96.045724 
2929.000000	96.047096 
2928.000000	96.047515 
2927.000000	96.046096 
2926.000000	96.042766 
2925.000000	96.038406 
2924.000000	96.035008 
2923.000000	96.034822 
2922.000000	96.038379 
2921.000000	96.043656 
2920.000000	96.048237 
2919.000000	96.052211 
2918.000000	96.057504 
2917.000000	96.064202 
2916.000000	96.069242 
2915.000000	96.069922 
2914.000000	96.067776 
2913.000000	96.067449 
2912.000000	96.071884 
2911.000000	96.079799 
2910.000000	96.087777 
2909.000000	96.093767 
2908.000000	96.098090 
2907.000000	96.101732 
2906.000000	96.104651 
2905.000000	96.105732 
2904.000000	96.104185 
2903.000000	96.100926 
2902.000000	96.099080 
2901.000000	96.101790 
2900.000000	96.109737 
2899.000000	96.120644 
2898.000000	96.131039 
2897.000000	96.138970 
2896.000000	96.144492 
2895.000000	96.148232 
2894.000000	96.150608 
2893.000000	96.152390 
2892.000000	96.154883 
2891.000000	96.158821 
2890.000000	96.163635 
2889.000000	96.168445 
2888.000000	96.173310 
2887.000000	96.178727 
2886.000000	96.184250 
2885.000000	96.188684 
2884.000000	96.191806 
2883.000000	96.194937 
2882.000000	96.199372 
2881.000000	96.204907 
2880.000000	96.210441 
2879.000000	96.215545 
2878.000000	96.220734 
2877.000000	96.226347 
2876.000000	96.231887 
2875.000000	96.236686 
2874.000000	96.240677 
2873.000000	96.244180 
2872.000000	96.247384 
2871.000000	96.250438 
2870.000000	96.253716 
2869.000000	96.257528 
2868.000000	96.261650 
2867.000000	96.265621 
2866.000000	96.269437 
2865.000000	96.273480 
2864.000000	96.277831 
2863.000000	96.282241 
2862.000000	96.286831 
2861.000000	96.292078 
2860.000000	96.297723 
2859.000000	96.302434 
2858.000000	96.305254 
2857.000000	96.307070 
2856.000000	96.309899 
2855.000000	96.314707 
2854.000000	96.320505 
2853.000000	96.325505 
2852.000000	96.328846 
2851.000000	96.331111 
2850.000000	96.333745 
2849.000000	96.338158 
2848.000000	96.344894 
2847.000000	96.353168 
2846.000000	96.361307 
2845.000000	96.368020 
2844.000000	96.373340 
2843.000000	96.378384 
2842.000000	96.384353 
2841.000000	96.391545 
2840.000000	96.398883 
2839.000000	96.404377 
2838.000000	96.406635 
2837.000000	96.406244 
2836.000000	96.405656 
2835.000000	96.407312 
2834.000000	96.411868 
2833.000000	96.418322 
2832.000000	96.425171 
2831.000000	96.431119 
2830.000000	96.435234 
2829.000000	96.437345 
2828.000000	96.438577 
2827.000000	96.440860 
2826.000000	96.445375 
2825.000000	96.451555 
2824.000000	96.457631 
2823.000000	96.461960 
2822.000000	96.463872 
2821.000000	96.463775 
2820.000000	96.462892 
2819.000000	96.462569 
2818.000000	96.463430 
2817.000000	96.465186 
2816.000000	96.467304 
2815.000000	96.469626 
2814.000000	96.472168 
2813.000000	96.474674 
2812.000000	96.476817 
2811.000000	96.478804 
2810.000000	96.481317 
2809.000000	96.484694 
2808.000000	96.488415 
2807.000000	96.491608 
2806.000000	96.493888 
2805.000000	96.495552 
2804.000000	96.497057 
2803.000000	96.498548 
2802.000000	96.499995 
2801.000000	96.501566 
2800.000000	96.503614 
2799.000000	96.506202 
2798.000000	96.508801 
2797.000000	96.510650 
2796.000000	96.511461 
2795.000000	96.511715 
2794.000000	96.512296 
2793.000000	96.513786 
2792.000000	96.516142 
2791.000000	96.518820 
2790.000000	96.521159 
2789.000000	96.522758 
2788.000000	96.523633 
2787.000000	96.524156 
2786.000000	96.524812 
2785.000000	96.525898 
2784.000000	96.527404 
2783.000000	96.529133 
2782.000000	96.530886 
2781.000000	96.532581 
2780.000000	96.534229 
2779.000000	96.535861 
2778.000000	96.537487 
2777.000000	96.539073 
2776.000000	96.540550 
2775.000000	96.541879 
2774.000000	96.543097 
2773.000000	96.544261 
2772.000000	96.545363 
2771.000000	96.546353 
2770.000000	96.547258 
2769.000000	96.548241 
2768.000000	96.549473 
2767.000000	96.550972 
2766.000000	96.552570 
2765.000000	96.554048 
2764.000000	96.555305 
2763.000000	96.556374 
2762.000000	96.557339 
2761.000000	96.558278 
2760.000000	96.559267 
2759.000000	96.560384 
2758.000000	96.561640 
2757.000000	96.562893 
2756.000000	96.563924 
2755.000000	96.564660 
2754.000000	96.565328 
2753.000000	96.566274 
2752.000000	96.567587 
2751.000000	96.568995 
2750.000000	96.570225 
2749.000000	96.571338 
2748.000000	96.572517 
2747.000000	96.573608 
2746.000000	96.574225 
2745.000000	96.574310 
2744.000000	96.574333 
2743.000000	96.574814 
2742.000000	96.575808 
2741.000000	96.576990 
2740.000000	96.578093 
2739.000000	96.579107 
2738.000000	96.580048 
2737.000000	96.580824 
2736.000000	96.581403 
2735.000000	96.581959 
2734.000000	96.582750 
2733.000000	96.583899 
2732.000000	96.585332 
2731.000000	96.586862 
2730.000000	96.588326 
2729.000000	96.589669 
2728.000000	96.590906 
2727.000000	96.591994 
2726.000000	96.592811 
2725.000000	96.593320 
2724.000000	96.593685 
2723.000000	96.594130 
2722.000000	96.594731 
2721.000000	96.595433 
2720.000000	96.596256 
2719.000000	96.597331 
2718.000000	96.598701 
2717.000000	96.600162 
2716.000000	96.601401 
2715.000000	96.602297 
2714.000000	96.603012 
2713.000000	96.603810 
2712.000000	96.604809 
2711.000000	96.605876 
2710.000000	96.606732 
2709.000000	96.607183 
2708.000000	96.607307 
2707.000000	96.607461 
2706.000000	96.608009 
2705.000000	96.609012 
2704.000000	96.610170 
2703.000000	96.611087 
2702.000000	96.611653 
2701.000000	96.612159 
2700.000000	96.613067 
2699.000000	96.614618 
2698.000000	96.616603 
2697.000000	96.618393 
2696.000000	96.619389 
2695.000000	96.619497 
2694.000000	96.619228 
2693.000000	96.619265 
2692.000000	96.619801 
2691.000000	96.620456 
2690.000000	96.620759 
2689.000000	96.620613 
2688.000000	96.620256 
2687.000000	96.619940 
2686.000000	96.619820 
2685.000000	96.620100 
2684.000000	96.620992 
2683.000000	96.622449 
2682.000000	96.624076 
2681.000000	96.625418 
2680.000000	96.626289 
2679.000000	96.626755 
2678.000000	96.626938 
2677.000000	96.626928 
2676.000000	96.626778 
2675.000000	96.626453 
2674.000000	96.625884 
2673.000000	96.625185 
2672.000000	96.624696 
2671.000000	96.624660 
2670.000000	96.624953 
2669.000000	96.625277 
2668.000000	96.625522 
2667.000000	96.625746 
2666.000000	96.625848 
2665.000000	96.625573 
2664.000000	96.624894 
2663.000000	96.624192 
2662.000000	96.623893 
2661.000000	96.624010 
2660.000000	96.624178 
2659.000000	96.624017 
2658.000000	96.623421 
2657.000000	96.622550 
2656.000000	96.621723 
2655.000000	96.621214 
2654.000000	96.621049 
2653.000000	96.621007 
2652.000000	96.620850 
2651.000000	96.620589 
2650.000000	96.620427 
2649.000000	96.620484 
2648.000000	96.620648 
2647.000000	96.620687 
2646.000000	96.620452 
2645.000000	96.619958 
2644.000000	96.619337 
2643.000000	96.618771 
2642.000000	96.618395 
2641.000000	96.618220 
2640.000000	96.618138 
2639.000000	96.618007 
2638.000000	96.617780 
2637.000000	96.617515 
2636.000000	96.617289 
2635.000000	96.617125 
2634.000000	96.617009 
2633.000000	96.616916 
2632.000000	96.616829 
2631.000000	96.616733 
2630.000000	96.616632 
2629.000000	96.616555 
2628.000000	96.616527 
2627.000000	96.616538 
2626.000000	96.616558 
2625.000000	96.616585 
2624.000000	96.616653 
2623.000000	96.616783 
2622.000000	96.616930 
2621.000000	96.616989 
2620.000000	96.616891 
2619.000000	96.616658 
2618.000000	96.616423 
2617.000000	96.616329 
2616.000000	96.616435 
2615.000000	96.616697 
2614.000000	96.617006 
2613.000000	96.617283 
2612.000000	96.617496 
2611.000000	96.617620 
2610.000000	96.617644 
2609.000000	96.617588 
2608.000000	96.617517 
2607.000000	96.617511 
2606.000000	96.617648 
2605.000000	96.617968 
2604.000000	96.618375 
2603.000000	96.618614 
2602.000000	96.618506 
2601.000000	96.618229 
2600.000000	96.618188 
2599.000000	96.618493 
2598.000000	96.618799 
2597.000000	96.618777 
2596.000000	96.618521 
2595.000000	96.618262 
2594.000000	96.617924 
2593.000000	96.617367 
2592.000000	96.616914 
2591.000000	96.617123 
2590.000000	96.618019 
2589.000000	96.618934 
2588.000000	96.619374 
2587.000000	96.619600 
2586.000000	96.620109 
2585.000000	96.620957 
2584.000000	96.621879 
2583.000000	96.622703 
2582.000000	96.623267 
2581.000000	96.623248 
2580.000000	96.622474 
2579.000000	96.621284 
2578.000000	96.620312 
2577.000000	96.619895 
2576.000000	96.619923 
2575.000000	96.620132 
2574.000000	96.620348 
2573.000000	96.620495 
2572.000000	96.620548 
2571.000000	96.620503 
2570.000000	96.620363 
2569.000000	96.620196 
2568.000000	96.620238 
2567.000000	96.620744 
2566.000000	96.621613 
2565.000000	96.622378 
2564.000000	96.622700 
2563.000000	96.622744 
2562.000000	96.622952 
2561.000000	96.623534 
2560.000000	96.624349 
2559.000000	96.625152 
2558.000000	96.625803 
2557.000000	96.626257 
2556.000000	96.626529 
2555.000000	96.626723 
2554.000000	96.626973 
2553.000000	96.627333 
2552.000000	96.627745 
2551.000000	96.628120 
2550.000000	96.628423 
2549.000000	96.628643 
2548.000000	96.628737 
2547.000000	96.628693 
2546.000000	96.628614 
2545.000000	96.628673 
2544.000000	96.628936 
2543.000000	96.629329 
2542.000000	96.629688 
2541.000000	96.629953 
2540.000000	96.630219 
2539.000000	96.630581 
2538.000000	96.631000 
2537.000000	96.631354 
2536.000000	96.631595 
2535.000000	96.631801 
2534.000000	96.632078 
2533.000000	96.632425 
2532.000000	96.632750 
2531.000000	96.633014 
2530.000000	96.633287 
2529.000000	96.633621 
2528.000000	96.633927 
2527.000000	96.634062 
2526.000000	96.634021 
2525.000000	96.634007 
2524.000000	96.634221 
2523.000000	96.634653 
2522.000000	96.635113 
2521.000000	96.635476 
2520.000000	96.635777 
2519.000000	96.636043 
2518.000000	96.636188 
2517.000000	96.636147 
2516.000000	96.635978 
2515.000000	96.635752 
2514.000000	96.635475 
2513.000000	96.635196 
2512.000000	96.635075 
2511.000000	96.635281 
2510.000000	96.635882 
2509.000000	96.636835 
2508.000000	96.637951 
2507.000000	96.638894 
2506.000000	96.639446 
2505.000000	96.639782 
2504.000000	96.640336 
2503.000000	96.641250 
2502.000000	96.642063 
2501.000000	96.642263 
2500.000000	96.641897 
2499.000000	96.641500 
2498.000000	96.641538 
2497.000000	96.641994 
2496.000000	96.642556 
2495.000000	96.642958 
2494.000000	96.643142 
2493.000000	96.643179 
2492.000000	96.643206 
2491.000000	96.643396 
2490.000000	96.643858 
2489.000000	96.644533 
2488.000000	96.645226 
2487.000000	96.645765 
2486.000000	96.646109 
2485.000000	96.646298 
2484.000000	96.646360 
2483.000000	96.646267 
2482.000000	96.645950 
2481.000000	96.645391 
2480.000000	96.644764 
2479.000000	96.644481 
2478.000000	96.644999 
2477.000000	96.646418 
2476.000000	96.648168 
2475.000000	96.649290 
2474.000000	96.649215 
2473.000000	96.648192 
2472.000000	96.646976 
2471.000000	96.646010 
2470.000000	96.645212 
2469.000000	96.644564 
2468.000000	96.644525 
2467.000000	96.645592 
2466.000000	96.647668 
2465.000000	96.650048 
2464.000000	96.651968 
2463.000000	96.653054 
2462.000000	96.653403 
2461.000000	96.653465 
2460.000000	96.653727 
2459.000000	96.654220 
2458.000000	96.654400 
2457.000000	96.653687 
2456.000000	96.651876 
2455.000000	96.649131 
2454.000000	96.646024 
2453.000000	96.643525 
2452.000000	96.642508 
2451.000000	96.642988 
2450.000000	96.644171 
2449.000000	96.645407 
2448.000000	96.646616 
2447.000000	96.647599 
2446.000000	96.647576 
2445.000000	96.645993 
2444.000000	96.643432 
2443.000000	96.641238 
2442.000000	96.640368 
2441.000000	96.640897 
2440.000000	96.642435 
2439.000000	96.644701 
2438.000000	96.647748 
2437.000000	96.651636 
2436.000000	96.655759 
2435.000000	96.658780 
2434.000000	96.659793 
2433.000000	96.659401 
2432.000000	96.659143 
2431.000000	96.659916 
2430.000000	96.661518 
2429.000000	96.663549 
2428.000000	96.665739 
2427.000000	96.667330 
2426.000000	96.667240 
2425.000000	96.665279 
2424.000000	96.662675 
2423.000000	96.661038 
2422.000000	96.661087 
2421.000000	96.662645 
2420.000000	96.665190 
2419.000000	96.668023 
2418.000000	96.670438 
2417.000000	96.672215 
2416.000000	96.673606 
2415.000000	96.674618 
2414.000000	96.674780 
2413.000000	96.674148 
2412.000000	96.673904 
2411.000000	96.674951 
2410.000000	96.676609 
2409.000000	96.677682 
2408.000000	96.678310 
2407.000000	96.679548 
2406.000000	96.681478 
2405.000000	96.682958 
2404.000000	96.683148 
2403.000000	96.682289 
2402.000000	96.681207 
2401.000000	96.680729 
2400.000000	96.681503 
2399.000000	96.683635 
2398.000000	96.686466 
2397.000000	96.689273 
2396.000000	96.691853 
2395.000000	96.694056 
2394.000000	96.695325 
2393.000000	96.695379 
2392.000000	96.695121 
2391.000000	96.695936 
2390.000000	96.697917 
2389.000000	96.699655 
2388.000000	96.699995 
2387.000000	96.699280 
2386.000000	96.698647 
2385.000000	96.698818 
2384.000000	96.699891 
2383.000000	96.701742 
2382.000000	96.704206 
2381.000000	96.707254 
2380.000000	96.711194 
2379.000000	96.716161 
2378.000000	96.721086 
2377.000000	96.723833 
2376.000000	96.723175 
2375.000000	96.720149 
2374.000000	96.716842 
2373.000000	96.713995 
2372.000000	96.711040 
2371.000000	96.708293 
2370.000000	96.707431 
2369.000000	96.709053 
2368.000000	96.710823 
2367.000000	96.709490 
2366.000000	96.704639 
2365.000000	96.699466 
2364.000000	96.697592 
2363.000000	96.699560 
2362.000000	96.702877 
2361.000000	96.704838 
2360.000000	96.704196 
2359.000000	96.701230 
2358.000000	96.697834 
2357.000000	96.696893 
2356.000000	96.700179 
2355.000000	96.706137 
2354.000000	96.710362 
2353.000000	96.709363 
2352.000000	96.703407 
2351.000000	96.695012 
2350.000000	96.686157 
2349.000000	96.678995 
2348.000000	96.675641 
2347.000000	96.674400 
2346.000000	96.670269 
2345.000000	96.661689 
2344.000000	96.652570 
2343.000000	96.646206 
2342.000000	96.643501 
2341.000000	96.645241 
2340.000000	96.651208 
2339.000000	96.658887 
2338.000000	96.664326 
2337.000000	96.665008 
2336.000000	96.661433 
2335.000000	96.655995 
2334.000000	96.650232 
2333.000000	96.643845 
2332.000000	96.636389 
2331.000000	96.628388 
2330.000000	96.619126 
2329.000000	96.606848 
2328.000000	96.592112 
2327.000000	96.578051 
2326.000000	96.566940 
2325.000000	96.558231 
2324.000000	96.552386 
2323.000000	96.551104 
2322.000000	96.553284 
2321.000000	96.554422 
2320.000000	96.553198 
2319.000000	96.554628 
2318.000000	96.562501 
2317.000000	96.573569 
2316.000000	96.581226 
2315.000000	96.582800 
2314.000000	96.579638 
2313.000000	96.573689 
2312.000000	96.566557 
2311.000000	96.560556 
2310.000000	96.556911 
2309.000000	96.554076 
2308.000000	96.550413 
2307.000000	96.547274 
2306.000000	96.546910 
2305.000000	96.548646 
2304.000000	96.550135 
2303.000000	96.551286 
2302.000000	96.554177 
2301.000000	96.559342 
2300.000000	96.564552 
2299.000000	96.567017 
2298.000000	96.565543 
2297.000000	96.560628 
2296.000000	96.554356 
2295.000000	96.549814 
2294.000000	96.549094 
2293.000000	96.551528 
2292.000000	96.554921 
2291.000000	96.558026 
2290.000000	96.560860 
2289.000000	96.563340 
2288.000000	96.564990 
2287.000000	96.565816 
2286.000000	96.566279 
2285.000000	96.566692 
2284.000000	96.567261 
2283.000000	96.568303 
2282.000000	96.569791 
2281.000000	96.571027 
2280.000000	96.571232 
2279.000000	96.570166 
2278.000000	96.568114 
2277.000000	96.565695 
2276.000000	96.563854 
2275.000000	96.563508 
2274.000000	96.564808 
2273.000000	96.567033 
2272.000000	96.569415 
2271.000000	96.571618 
2270.000000	96.573251 
2269.000000	96.573724 
2268.000000	96.573104 
2267.000000	96.572400 
2266.000000	96.572382 
2265.000000	96.572662 
2264.000000	96.572359 
2263.000000	96.571125 
2262.000000	96.569088 
2261.000000	96.566477 
2260.000000	96.563827 
2259.000000	96.561835 
2258.000000	96.560709 
2257.000000	96.560064 
2256.000000	96.559685 
2255.000000	96.559781 
2254.000000	96.560240 
2253.000000	96.560238 
2252.000000	96.559085 
2251.000000	96.556941 
2250.000000	96.554343 
2249.000000	96.551674 
2248.000000	96.549309 
2247.000000	96.547638 
2246.000000	96.546645 
2245.000000	96.545831 
2244.000000	96.544650 
2243.000000	96.543050 
2242.000000	96.541293 
2241.000000	96.539648 
2240.000000	96.538225 
2239.000000	96.536989 
2238.000000	96.535830 
2237.000000	96.534623 
2236.000000	96.533333 
2235.000000	96.532008 
2234.000000	96.530683 
2233.000000	96.529353 
2232.000000	96.528000 
2231.000000	96.526618 
2230.000000	96.525202 
2229.000000	96.523749 
2228.000000	96.522267 
2227.000000	96.520771 
2226.000000	96.519270 
2225.000000	96.517765 
2224.000000	96.516258 
2223.000000	96.514762 
2222.000000	96.513300 
2221.000000	96.511883 
2220.000000	96.510492 
2219.000000	96.509096 
2218.000000	96.507673 
2217.000000	96.506220 
2216.000000	96.504749 
2215.000000	96.503268 
2214.000000	96.501780 
2213.000000	96.500288 
2212.000000	96.498806 
2211.000000	96.497356 
2210.000000	96.495953 
2209.000000	96.494585 
2208.000000	96.493214 
2207.000000	96.491801 
2206.000000	96.490314 
2205.000000	96.488737 
2204.000000	96.487073 
2203.000000	96.485402 
2202.000000	96.484100 
2201.000000	96.483459 
2200.000000	96.482863 
2199.000000	96.481144 
2198.000000	96.477688 
2197.000000	96.473103 
2196.000000	96.468949 
2195.000000	96.466588 
2194.000000	96.466092 
2193.000000	96.466172 
2192.000000	96.465252 
2191.000000	96.462476 
2190.000000	96.457897 
2189.000000	96.452692 
2188.000000	96.449152 
2187.000000	96.448850 
2186.000000	96.450134 
2185.000000	96.449268 
2184.000000	96.445739 
2183.000000	96.444380 
2182.000000	96.449493 
2181.000000	96.458271 
2180.000000	96.463054 
2179.000000	96.460063 
2178.000000	96.452475 
2177.000000	96.445571 
2176.000000	96.441809 
2175.000000	96.441329 
2174.000000	96.444182 
2173.000000	96.450058 
2172.000000	96.457384 
2171.000000	96.463924 
2170.000000	96.467276 
2169.000000	96.464965 
2168.000000	96.456204 
2167.000000	96.443924 
2166.000000	96.432770 
2165.000000	96.424053 
2164.000000	96.414758 
2163.000000	96.403063 
2162.000000	96.393535 
2161.000000	96.394750 
2160.000000	96.411683 
2159.000000	96.440607 
2158.000000	96.470589 
2157.000000	96.491976 
2156.000000	96.503534 
2155.000000	96.510128 
2154.000000	96.515768 
2153.000000	96.520977 
2152.000000	96.525479 
2151.000000	96.529574 
2150.000000	96.532096 
2149.000000	96.530888 
2148.000000	96.527237 
2147.000000	96.526178 
2146.000000	96.529718 
2145.000000	96.533372 
2144.000000	96.533056 
2143.000000	96.531995 
2142.000000	96.535958 
2141.000000	96.544387 
2140.000000	96.552043 
2139.000000	96.558373 
2138.000000	96.568970 
2137.000000	96.586468 
2136.000000	96.604896 
2135.000000	96.615639 
2134.000000	96.615635 
2133.000000	96.608202 
2132.000000	96.599231 
2131.000000	96.593608 
2130.000000	96.593108 
2129.000000	96.595801 
2128.000000	96.598156 
2127.000000	96.598766 
2126.000000	96.599362 
2125.000000	96.601946 
2124.000000	96.606166 
2123.000000	96.610030 
2122.000000	96.611961 
2121.000000	96.611396 
2120.000000	96.608354 
2119.000000	96.603422 
2118.000000	96.598034 
2117.000000	96.594105 
2116.000000	96.592649 
2115.000000	96.592683 
2114.000000	96.591899 
2113.000000	96.589087 
2112.000000	96.585850 
2111.000000	96.584953 
2110.000000	96.586969 
2109.000000	96.589595 
2108.000000	96.590506 
2107.000000	96.589709 
2106.000000	96.588593 
2105.000000	96.588105 
2104.000000	96.588708 
2103.000000	96.590665 
2102.000000	96.593037 
2101.000000	96.593445 
2100.000000	96.590487 
2099.000000	96.585943 
2098.000000	96.583442 
2097.000000	96.584697 
2096.000000	96.588285 
2095.000000	96.591452 
2094.000000	96.592512 
2093.000000	96.591485 
2092.000000	96.589200 
2091.000000	96.586666 
2090.000000	96.584755 
2089.000000	96.583891 
2088.000000	96.583804 
2087.000000	96.583557 
2086.000000	96.582090 
2085.000000	96.578998 
2084.000000	96.575007 
2083.000000	96.571518 
2082.000000	96.569349 
2081.000000	96.568155 
2080.000000	96.567233 
2079.000000	96.566514 
2078.000000	96.566182 
2077.000000	96.565747 
2076.000000	96.564452 
2075.000000	96.562521 
2074.000000	96.560848 
2073.000000	96.559237 
2072.000000	96.556270 
2071.000000	96.551283 
2070.000000	96.545502 
2069.000000	96.540918 
2068.000000	96.538609 
2067.000000	96.538379 
2066.000000	96.539082 
2065.000000	96.538931 
2064.000000	96.536532 
2063.000000	96.532208 
2062.000000	96.527844 
2061.000000	96.525190 
2060.000000	96.524449 
2059.000000	96.524839 
2058.000000	96.525415 
2057.000000	96.525209 
2056.000000	96.523399 
2055.000000	96.519760 
2054.000000	96.514972 
2053.000000	96.510199 
2052.000000	96.506333 
2051.000000	96.503566 
2050.000000	96.501528 
2049.000000	96.499851 
2048.000000	96.498661 
2047.000000	96.498320 
2046.000000	96.498710 
2045.000000	96.499178 
2044.000000	96.499276 
2043.000000	96.499104 
2042.000000	96.498824 
2041.000000	96.498349 
2040.000000	96.497817 
2039.000000	96.497873 
2038.000000	96.498879 
2037.000000	96.500089 
2036.000000	96.500278 
2035.000000	96.499136 
2034.000000	96.497589 
2033.000000	96.496825 
2032.000000	96.497196 
2031.000000	96.498070 
2030.000000	96.498357 
2029.000000	96.497366 
2028.000000	96.495423 
2027.000000	96.493592 
2026.000000	96.492464 
2025.000000	96.491659 
2024.000000	96.490846 
2023.000000	96.490710 
2022.000000	96.492252 
2021.000000	96.495164 
2020.000000	96.497313 
2019.000000	96.496746 
2018.000000	96.493286 
2017.000000	96.488582 
2016.000000	96.484729 
2015.000000	96.482742 
2014.000000	96.482181 
2013.000000	96.481388 
2012.000000	96.479050 
2011.000000	96.476065 
2010.000000	96.474866 
2009.000000	96.476459 
2008.000000	96.479269 
2007.000000	96.481395 
2006.000000	96.482843 
2005.000000	96.484360 
2004.000000	96.485661 
2003.000000	96.486281 
2002.000000	96.487036 
2001.000000	96.488619 
2000.000000	96.489464 
1999.000000	96.486924 
1998.000000	96.480330 
1997.000000	96.472066 
1996.000000	96.465661 
1995.000000	96.463158 
1994.000000	96.464097 
1993.000000	96.465850 
1992.000000	96.465300 
1991.000000	96.461638 
1990.000000	96.457404 
1989.000000	96.455998 
1988.000000	96.458165 
1987.000000	96.461233 
1986.000000	96.461625 
1985.000000	96.458102 
1984.000000	96.452498 
1983.000000	96.447625 
1982.000000	96.444775 
1981.000000	96.443519 
1980.000000	96.443804 
1979.000000	96.446841 
1978.000000	96.452729 
1977.000000	96.458857 
1976.000000	96.462295 
1975.000000	96.463217 
1974.000000	96.464175 
1973.000000	96.466803 
1972.000000	96.470764 
1971.000000	96.475172 
1970.000000	96.479216 
1969.000000	96.481521 
1968.000000	96.480687 
1967.000000	96.477213 
1966.000000	96.474138 
1965.000000	96.474530 
1964.000000	96.478975 
1963.000000	96.485965 
1962.000000	96.493537 
1961.000000	96.500094 
1960.000000	96.504263 
1959.000000	96.505198 
1958.000000	96.503582 
1957.000000	96.501824 
1956.000000	96.502233 
1955.000000	96.505013 
1954.000000	96.508471 
1953.000000	96.510940 
1952.000000	96.512053 
1951.000000	96.512313 
1950.000000	96.512462 
1949.000000	96.513412 
1948.000000	96.515968 
1947.000000	96.520003 
1946.000000	96.524051 
1945.000000	96.526388 
1944.000000	96.526505 
1943.000000	96.525302 
1942.000000	96.524304 
1941.000000	96.524478 
1940.000000	96.525824 
1939.000000	96.527709 
1938.000000	96.529354 
1937.000000	96.530512 
1936.000000	96.531669 
1935.000000	96.533225 
1934.000000	96.534782 
1933.000000	96.535949 
1932.000000	96.537380 
1931.000000	96.540102 
1930.000000	96.543956 
1929.000000	96.547272 
1928.000000	96.548949 
1927.000000	96.549692 
1926.000000	96.550661 
1925.000000	96.551749 
1924.000000	96.551876 
1923.000000	96.550778 
1922.000000	96.549078 
1921.000000	96.547171 
1920.000000	96.545358 
1919.000000	96.544426 
1918.000000	96.544843 
1917.000000	96.545602 
1916.000000	96.545467 
1915.000000	96.545282 
1914.000000	96.546652 
1913.000000	96.549276 
1912.000000	96.551188 
1911.000000	96.551459 
1910.000000	96.550963 
1909.000000	96.550439 
1908.000000	96.549991 
1907.000000	96.549886 
1906.000000	96.550260 
1905.000000	96.550034 
1904.000000	96.547757 
1903.000000	96.544421 
1902.000000	96.542811 
1901.000000	96.543601 
1900.000000	96.544897 
1899.000000	96.545255 
1898.000000	96.545022 
1897.000000	96.544806 
1896.000000	96.544171 
1895.000000	96.542848 
1894.000000	96.541440 
1893.000000	96.540229 
1892.000000	96.539010 
1891.000000	96.538143 
1890.000000	96.538359 
1889.000000	96.539380 
1888.000000	96.540099 
1887.000000	96.540524 
1886.000000	96.541510 
1885.000000	96.542661 
1884.000000	96.542490 
1883.000000	96.540766 
1882.000000	96.539201 
1881.000000	96.539279 
1880.000000	96.540812 
1879.000000	96.542497 
1878.000000	96.543208 
1877.000000	96.543046 
1876.000000	96.543135 
1875.000000	96.544543 
1874.000000	96.547334 
1873.000000	96.550316 
1872.000000	96.552261 
1871.000000	96.553155 
1870.000000	96.553632 
1869.000000	96.553793 
1868.000000	96.553452 
1867.000000	96.553447 
1866.000000	96.554771 
1865.000000	96.556652 
1864.000000	96.557690 
1863.000000	96.558460 
1862.000000	96.560766 
1861.000000	96.564599 
1860.000000	96.567921 
1859.000000	96.569839 
1858.000000	96.571728 
1857.000000	96.574573 
1856.000000	96.577680 
1855.000000	96.580314 
1854.000000	96.582615 
1853.000000	96.584422 
1852.000000	96.585647 
1851.000000	96.587252 
1850.000000	96.589941 
1849.000000	96.593020 
1848.000000	96.595327 
1847.000000	96.597192 
1846.000000	96.599855 
1845.000000	96.603303 
1844.000000	96.606143 
1843.000000	96.607868 
1842.000000	96.609435 
1841.000000	96.611545 
1840.000000	96.614235 
1839.000000	96.617255 
1838.000000	96.620003 
1837.000000	96.621559 
1836.000000	96.621652 
1835.000000	96.621569 
1834.000000	96.622678 
1833.000000	96.624718 
1832.000000	96.626651 
1831.000000	96.627866 
1830.000000	96.628481 
1829.000000	96.629052 
1828.000000	96.629884 
1827.000000	96.631116 
1826.000000	96.632851 
1825.000000	96.634879 
1824.000000	96.636643 
1823.000000	96.637830 
1822.000000	96.638830 
1821.000000	96.639965 
1820.000000	96.640904 
1819.000000	96.641295 
1818.000000	96.641738 
1817.000000	96.642938 
1816.000000	96.644125 
1815.000000	96.644405 
1814.000000	96.644326 
1813.000000	96.645044 
1812.000000	96.646297 
1811.000000	96.646459 
1810.000000	96.645383 
1809.000000	96.644504 
1808.000000	96.644351 
1807.000000	96.644486 
1806.000000	96.645037 
1805.000000	96.646360 
1804.000000	96.647666 
1803.000000	96.647688 
1802.000000	96.646241 
1801.000000	96.644717 
1800.000000	96.644433 
1799.000000	96.645281 
1798.000000	96.646904 
1797.000000	96.648529 
1796.000000	96.648682 
1795.000000	96.646853 
1794.000000	96.644169 
1793.000000	96.642335 
1792.000000	96.641797 
1791.000000	96.642005 
1790.000000	96.643522 
1789.000000	96.646699 
1788.000000	96.649982 
1787.000000	96.651417 
1786.000000	96.651046 
1785.000000	96.650255 
1784.000000	96.649431 
1783.000000	96.648722 
1782.000000	96.648524 
1781.000000	96.649134 
1780.000000	96.650743 
1779.000000	96.653153 
1778.000000	96.656621 
1777.000000	96.660501 
1776.000000	96.663225 
1775.000000	96.664281 
1774.000000	96.664355 
1773.000000	96.665089 
1772.000000	96.667406 
1771.000000	96.669446 
1770.000000	96.669929 
1769.000000	96.670724 
1768.000000	96.673452 
1767.000000	96.677033 
1766.000000	96.679331 
1765.000000	96.680312 
1764.000000	96.681560 
1763.000000	96.683409 
1762.000000	96.684702 
1761.000000	96.685297 
1760.000000	96.686006 
1759.000000	96.686879 
1758.000000	96.687477 
1757.000000	96.687467 
1756.000000	96.688443 
1755.000000	96.690644 
1754.000000	96.691565 
1753.000000	96.689189 
1752.000000	96.684583 
1751.000000	96.681439 
1750.000000	96.681812 
1749.000000	96.684420 
1748.000000	96.687342 
1747.000000	96.689865 
1746.000000	96.690492 
1745.000000	96.689078 
1744.000000	96.687963 
1743.000000	96.688226 
1742.000000	96.688815 
1741.000000	96.689575 
1740.000000	96.691296 
1739.000000	96.693408 
1738.000000	96.693930 
1737.000000	96.693053 
1736.000000	96.691688 
1735.000000	96.688713 
1734.000000	96.683931 
1733.000000	96.679070 
1732.000000	96.676515 
1731.000000	96.678464 
1730.000000	96.684327 
1729.000000	96.689252 
1728.000000	96.691005 
1727.000000	96.691146 
1726.000000	96.691317 
1725.000000	96.691610 
1724.000000	96.691483 
1723.000000	96.690150 
1722.000000	96.688187 
1721.000000	96.686127 
1720.000000	96.684185 
1719.000000	96.681475 
1718.000000	96.677911 
1717.000000	96.674508 
1716.000000	96.668401 
1715.000000	96.659190 
1714.000000	96.652434 
1713.000000	96.649405 
1712.000000	96.646147 
1711.000000	96.641859 
1710.000000	96.639311 
1709.000000	96.638415 
1708.000000	96.636361 
1707.000000	96.632434 
1706.000000	96.629160 
1705.000000	96.627197 
1704.000000	96.621778 
1703.000000	96.611684 
1702.000000	96.600057 
1701.000000	96.591584 
1700.000000	96.586484 
1699.000000	96.579162 
1698.000000	96.571761 
1697.000000	96.569126 
1696.000000	96.568949 
1695.000000	96.566198 
1694.000000	96.560080 
1693.000000	96.553058 
1692.000000	96.546418 
1691.000000	96.539537 
1690.000000	96.532140 
1689.000000	96.524384 
1688.000000	96.516771 
1687.000000	96.509890 
1686.000000	96.503866 
1685.000000	96.498559 
1684.000000	96.492410 
1683.000000	96.484682 
1682.000000	96.476528 
1681.000000	96.468695 
1680.000000	96.461978 
1679.000000	96.456040 
1678.000000	96.450104 
1677.000000	96.443390 
1676.000000	96.436475 
1675.000000	96.430052 
1674.000000	96.422501 
1673.000000	96.412767 
1672.000000	96.403046 
1671.000000	96.395456 
1670.000000	96.389568 
1669.000000	96.382667 
1668.000000	96.374985 
1667.000000	96.368884 
1666.000000	96.363914 
1665.000000	96.358822 
1664.000000	96.353667 
1663.000000	96.349512 
1662.000000	96.344959 
1661.000000	96.336219 
1660.000000	96.325600 
1659.000000	96.317671 
1658.000000	96.313263 
1657.000000	96.307663 
1656.000000	96.301189 
1655.000000	96.295367 
1654.000000	96.291217 
1653.000000	96.288471 
1652.000000	96.278901 
1651.000000	96.261543 
1650.000000	96.244202 
1649.000000	96.234399 
1648.000000	96.229607 
1647.000000	96.227761 
1646.000000	96.226008 
1645.000000	96.223478 
1644.000000	96.217575 
1643.000000	96.211319 
1642.000000	96.207843 
1641.000000	96.206910 
1640.000000	96.206060 
1639.000000	96.203234 
1638.000000	96.199711 
1637.000000	96.197259 
1636.000000	96.196465 
1635.000000	96.197530 
1634.000000	96.197526 
1633.000000	96.194520 
1632.000000	96.189453 
1631.000000	96.185269 
1630.000000	96.185243 
1629.000000	96.188689 
1628.000000	96.192191 
1627.000000	96.194549 
1626.000000	96.196075 
1625.000000	96.196554 
1624.000000	96.197369 
1623.000000	96.201687 
1622.000000	96.208718 
1621.000000	96.212599 
1620.000000	96.213304 
1619.000000	96.216158 
1618.000000	96.223445 
1617.000000	96.229551 
1616.000000	96.228376 
1615.000000	96.224172 
1614.000000	96.222708 
1613.000000	96.223369 
1612.000000	96.223152 
1611.000000	96.222775 
1610.000000	96.224022 
1609.000000	96.226501 
1608.000000	96.230998 
1607.000000	96.239570 
1606.000000	96.249094 
1605.000000	96.253860 
1604.000000	96.255418 
1603.000000	96.258673 
1602.000000	96.263712 
1601.000000	96.266953 
1600.000000	96.268267 
1599.000000	96.270782 
1598.000000	96.274744 
1597.000000	96.278258 
1596.000000	96.281901 
1595.000000	96.288507 
1594.000000	96.298361 
1593.000000	96.308063 
1592.000000	96.315766 
1591.000000	96.323331 
1590.000000	96.331928 
1589.000000	96.339770 
1588.000000	96.346419 
1587.000000	96.354292 
1586.000000	96.363699 
1585.000000	96.370493 
1584.000000	96.374140 
1583.000000	96.379961 
1582.000000	96.389356 
1581.000000	96.398251 
1580.000000	96.405043 
1579.000000	96.413411 
1578.000000	96.425377 
1577.000000	96.438693 
1576.000000	96.450390 
1575.000000	96.459695 
1574.000000	96.465124 
1573.000000	96.467520 
1572.000000	96.472376 
1571.000000	96.483186 
1570.000000	96.496167 
1569.000000	96.500838 
1568.000000	96.498006 
1567.000000	96.496761 
1566.000000	96.500255 
1565.000000	96.504431 
1564.000000	96.508688 
1563.000000	96.512643 
1562.000000	96.515242 
1561.000000	96.511887 
1560.000000	96.508465 
1559.000000	96.517416 
1558.000000	96.529966 
1557.000000	96.533607 
1556.000000	96.530598 
1555.000000	96.533460 
1554.000000	96.536409 
1553.000000	96.537024 
1552.000000	96.534959 
1551.000000	96.532556 
1550.000000	96.528837 
1549.000000	96.524841 
1548.000000	96.522472 
1547.000000	96.522897 
1546.000000	96.523112 
1545.000000	96.519831 
1544.000000	96.514564 
1543.000000	96.511117 
1542.000000	96.512204 
1541.000000	96.517643 
1540.000000	96.518885 
1539.000000	96.511858 
1538.000000	96.499761 
1537.000000	96.484958 
1536.000000	96.471895 
1535.000000	96.464057 
1534.000000	96.462430 
1533.000000	96.463044 
1532.000000	96.460450 
1531.000000	96.452087 
1530.000000	96.441798 
1529.000000	96.433027 
1528.000000	96.424811 
1527.000000	96.415800 
1526.000000	96.406447 
1525.000000	96.397939 
1524.000000	96.391384 
1523.000000	96.386852 
1522.000000	96.382758 
1521.000000	96.375564 
1520.000000	96.362596 
1519.000000	96.345982 
1518.000000	96.330026 
1517.000000	96.317042 
1516.000000	96.306507 
1515.000000	96.297968 
1514.000000	96.291605 
1513.000000	96.287471 
1512.000000	96.282679 
1511.000000	96.272665 
1510.000000	96.257200 
1509.000000	96.240650 
1508.000000	96.227406 
1507.000000	96.217592 
1506.000000	96.210561 
1505.000000	96.202798 
1504.000000	96.190946 
1503.000000	96.177744 
1502.000000	96.164689 
1501.000000	96.152917 
1500.000000	96.142430 
1499.000000	96.132040 
1498.000000	96.119796 
1497.000000	96.107876 
1496.000000	96.099060 
1495.000000	96.091862 
1494.000000	96.084714 
1493.000000	96.078584 
1492.000000	96.074014 
1491.000000	96.068974 
1490.000000	96.061399 
1489.000000	96.052579 
1488.000000	96.042610 
1487.000000	96.029733 
1486.000000	96.016199 
1485.000000	96.002203 
1484.000000	95.987446 
1483.000000	95.974545 
1482.000000	95.964980 
1481.000000	95.957341 
1480.000000	95.947748 
1479.000000	95.935091 
1478.000000	95.921538 
1477.000000	95.909134 
1476.000000	95.895600 
1475.000000	95.878636 
1474.000000	95.861137 
1473.000000	95.849240 
1472.000000	95.845248 
1471.000000	95.842513 
1470.000000	95.836072 
1469.000000	95.827098 
1468.000000	95.816316 
1467.000000	95.802995 
1466.000000	95.789382 
1465.000000	95.779839 
1464.000000	95.775749 
1463.000000	95.770539 
1462.000000	95.759544 
1461.000000	95.746195 
1460.000000	95.735937 
1459.000000	95.729729 
1458.000000	95.720063 
1457.000000	95.705724 
1456.000000	95.695226 
1455.000000	95.687217 
1454.000000	95.676000 
1453.000000	95.666630 
1452.000000	95.663422 
1451.000000	95.665640 
1450.000000	95.669759 
1449.000000	95.676714 
1448.000000	95.685943 
1447.000000	95.692388 
1446.000000	95.691903 
1445.000000	95.687352 
1444.000000	95.685561 
1443.000000	95.685703 
1442.000000	95.683359 
1441.000000	95.678156 
1440.000000	95.673607 
1439.000000	95.670002 
1438.000000	95.664004 
1437.000000	95.657651 
1436.000000	95.656500 
1435.000000	95.656737 
1434.000000	95.652312 
1433.000000	95.647711 
1432.000000	95.648444 
1431.000000	95.653994 
1430.000000	95.659492 
1429.000000	95.663957 
1428.000000	95.668412 
1427.000000	95.672425 
1426.000000	95.675240 
1425.000000	95.678079 
1424.000000	95.685328 
1423.000000	95.694163 
1422.000000	95.698124 
1421.000000	95.699152 
1420.000000	95.705569 
1419.000000	95.715066 
1418.000000	95.715118 
1417.000000	95.708946 
1416.000000	95.710810 
1415.000000	95.723689 
1414.000000	95.737231 
1413.000000	95.743939 
1412.000000	95.747839 
1411.000000	95.754412 
1410.000000	95.761943 
1409.000000	95.769114 
1408.000000	95.778128 
1407.000000	95.790311 
1406.000000	95.804044 
1405.000000	95.818819 
1404.000000	95.837948 
1403.000000	95.858617 
1402.000000	95.874219 
1401.000000	95.886337 
1400.000000	95.903034 
1399.000000	95.925979 
1398.000000	95.945822 
1397.000000	95.956517 
1396.000000	95.963625 
1395.000000	95.976404 
1394.000000	95.995627 
1393.000000	96.016629 
1392.000000	96.039403 
1391.000000	96.064113 
1390.000000	96.086877 
1389.000000	96.103588 
1388.000000	96.114129 
1387.000000	96.121901 
1386.000000	96.130288 
1385.000000	96.141387 
1384.000000	96.157016 
1383.000000	96.175890 
1382.000000	96.193568 
1381.000000	96.207641 
1380.000000	96.219315 
1379.000000	96.231455 
1378.000000	96.245319 
1377.000000	96.260107 
1376.000000	96.274560 
1375.000000	96.288238 
1374.000000	96.301239 
1373.000000	96.314720 
1372.000000	96.330039 
1371.000000	96.347550 
1370.000000	96.365698 
1369.000000	96.381016 
1368.000000	96.393510 
1367.000000	96.405860 
1366.000000	96.419473 
1365.000000	96.433533 
1364.000000	96.445466 
1363.000000	96.452740 
1362.000000	96.456736 
1361.000000	96.462397 
1360.000000	96.473204 
1359.000000	96.488987 
1358.000000	96.506680 
1357.000000	96.522528 
1356.000000	96.534878 
1355.000000	96.544371 
1354.000000	96.552809 
1353.000000	96.562800 
1352.000000	96.574987 
1351.000000	96.588430 
1350.000000	96.601880 
1349.000000	96.612206 
1348.000000	96.618131 
1347.000000	96.621555 
1346.000000	96.626055 
1345.000000	96.633070 
1344.000000	96.641339 
1343.000000	96.649047 
1342.000000	96.655576 
1341.000000	96.660463 
1340.000000	96.663070 
1339.000000	96.664306 
1338.000000	96.666399 
1337.000000	96.670558 
1336.000000	96.675842 
1335.000000	96.680093 
1334.000000	96.682210 
1333.000000	96.683196 
1332.000000	96.684496 
1331.000000	96.686543 
1330.000000	96.688839 
1329.000000	96.690788 
1328.000000	96.692154 
1327.000000	96.693310 
1326.000000	96.694343 
1325.000000	96.693812 
1324.000000	96.690924 
1323.000000	96.686133 
1322.000000	96.680478 
1321.000000	96.675266 
1320.000000	96.672311 
1319.000000	96.672740 
1318.000000	96.675807 
1317.000000	96.679733 
1316.000000	96.682917 
1315.000000	96.683966 
1314.000000	96.682107 
1313.000000	96.679149 
1312.000000	96.678858 
1311.000000	96.682762 
1310.000000	96.687990 
1309.000000	96.691027 
1308.000000	96.691678 
1307.000000	96.692205 
1306.000000	96.693783 
1305.000000	96.695389 
1304.000000	96.696586 
1303.000000	96.697439 
1302.000000	96.697055 
1301.000000	96.694460 
1300.000000	96.691080 
1299.000000	96.689661 
1298.000000	96.690687 
1297.000000	96.691766 
1296.000000	96.690915 
1295.000000	96.689061 
1294.000000	96.688334 
1293.000000	96.689607 
1292.000000	96.692243 
1291.000000	96.695083 
1290.000000	96.697195 
1289.000000	96.698124 
1288.000000	96.697638 
1287.000000	96.695384 
1286.000000	96.691342 
1285.000000	96.687061 
1284.000000	96.685311 
1283.000000	96.687019 
1282.000000	96.689480 
1281.000000	96.688985 
1280.000000	96.685009 
1279.000000	96.680797 
1278.000000	96.679819 
1277.000000	96.682937 
1276.000000	96.688424 
1275.000000	96.693661 
1274.000000	96.696531 
1273.000000	96.696611 
1272.000000	96.695351 
1271.000000	96.694336 
1270.000000	96.693414 
1269.000000	96.691485 
1268.000000	96.688838 
1267.000000	96.686878 
1266.000000	96.685589 
1265.000000	96.683821 
1264.000000	96.682065 
1263.000000	96.682566 
1262.000000	96.686096 
1261.000000	96.690450 
1260.000000	96.693434 
1259.000000	96.695705 
1258.000000	96.698591 
1257.000000	96.700828 
1256.000000	96.699483 
1255.000000	96.694411 
1254.000000	96.689946 
1253.000000	96.690586 
1252.000000	96.695281 
1251.000000	96.698046 
1250.000000	96.694885 
1249.000000	96.688637 
1248.000000	96.685605 
1247.000000	96.688138 
1246.000000	96.692413 
1245.000000	96.693676 
1244.000000	96.691059 
1243.000000	96.686877 
1242.000000	96.683899 
1241.000000	96.684287 
1240.000000	96.688461 
1239.000000	96.693151 
1238.000000	96.692734 
1237.000000	96.684558 
1236.000000	96.671540 
1235.000000	96.658276 
1234.000000	96.646385 
1233.000000	96.635093 
1232.000000	96.623996 
1231.000000	96.612624 
1230.000000	96.599222 
1229.000000	96.582722 
1228.000000	96.564382 
1227.000000	96.544903 
1226.000000	96.521438 
1225.000000	96.490265 
1224.000000	96.451505 
1223.000000	96.408556 
1222.000000	96.363557 
1221.000000	96.315968 
1220.000000	96.265228 
1219.000000	96.212104 
1218.000000	96.157103 
1217.000000	96.099564 
1216.000000	96.038122 
1215.000000	95.970771 
1214.000000	95.895995 
1213.000000	95.816214 
1212.000000	95.738094 
1211.000000	95.665439 
1210.000000	95.593134 
1209.000000	95.512693 
1208.000000	95.423232 
1207.000000	95.332430 
1206.000000	95.246587 
1205.000000	95.164200 
1204.000000	95.080361 
1203.000000	94.993110 
1202.000000	94.903780 
1201.000000	94.814452 
1200.000000	94.726784 
1199.000000	94.640911 
1198.000000	94.554324 
1197.000000	94.464333 
1196.000000	94.371950 
1195.000000	94.280755 
1194.000000	94.191838 
1193.000000	94.102523 
1192.000000	94.010269 
1191.000000	93.914814 
1190.000000	93.816390 
1189.000000	93.714937 
1188.000000	93.611348 
1187.000000	93.506671 
1186.000000	93.400096 
1185.000000	93.290470 
1184.000000	93.179023 
1183.000000	93.067451 
1182.000000	92.954349 
1181.000000	92.837156 
1180.000000	92.716382 
1179.000000	92.593594 
1178.000000	92.466318 
1177.000000	92.330269 
1176.000000	92.186190 
1175.000000	92.039263 
1174.000000	91.891963 
1173.000000	91.742892 
1172.000000	91.592596 
1171.000000	91.444096 
1170.000000	91.297110 
1169.000000	91.148602 
1168.000000	91.000759 
1167.000000	90.862640 
1166.000000	90.743042 
1165.000000	90.648153 
1164.000000	90.586575 
1163.000000	90.567931 
1162.000000	90.592569 
1161.000000	90.647198 
1160.000000	90.711791 
1159.000000	90.766280 
1158.000000	90.792255 
1157.000000	90.777333 
1156.000000	90.721239 
1155.000000	90.633432 
1154.000000	90.523847 
1153.000000	90.399779 
1152.000000	90.270131 
1151.000000	90.144246 
1150.000000	90.024462 
1149.000000	89.906745 
1148.000000	89.790208 
1147.000000	89.678708 
1146.000000	89.571613 
1145.000000	89.461517 
1144.000000	89.344289 
1143.000000	89.224126 
1142.000000	89.105512 
1141.000000	88.987127 
1140.000000	88.866901 
1139.000000	88.746295 
1138.000000	88.626189 
1137.000000	88.504536 
1136.000000	88.380718 
1135.000000	88.256362 
1134.000000	88.130081 
1133.000000	87.998077 
1132.000000	87.861615 
1131.000000	87.726823 
1130.000000	87.595367 
1129.000000	87.462654 
1128.000000	87.326764 
1127.000000	87.190940 
1126.000000	87.055315 
1125.000000	86.914783 
1124.000000	86.767841 
1123.000000	86.619488 
1122.000000	86.472686 
1121.000000	86.324993 
1120.000000	86.176170 
1119.000000	86.030498 
1118.000000	85.888975 
1117.000000	85.748175 
1116.000000	85.609176 
1115.000000	85.478269 
1114.000000	85.356398 
1113.000000	85.237522 
1112.000000	85.119399 
1111.000000	85.005455 
1110.000000	84.894292 
1109.000000	84.779049 
1108.000000	84.659135 
1107.000000	84.540897 
1106.000000	84.425280 
1105.000000	84.306203 
1104.000000	84.182579 
1103.000000	84.060067 
1102.000000	83.938881 
1101.000000	83.813341 
1100.000000	83.685121 
1099.000000	83.563149 
1098.000000	83.450402 
1097.000000	83.340904 
1096.000000	83.232550 
1095.000000	83.128822 
1094.000000	83.026796 
1093.000000	82.918075 
1092.000000	82.804352 
1091.000000	82.697877 
1090.000000	82.603656 
1089.000000	82.514715 
1088.000000	82.426651 
1087.000000	82.342210 
1086.000000	82.259742 
1085.000000	82.172814 
1084.000000	82.083909 
1083.000000	82.003117 
1082.000000	81.930490 
1081.000000	81.855152 
1080.000000	81.774475 
1079.000000	81.697898 
1078.000000	81.628330 
1077.000000	81.555664 
1076.000000	81.472265 
1075.000000	81.379063 
1074.000000	81.273292 
1073.000000	81.146394 
1072.000000	80.997325 
1071.000000	80.831879 
1070.000000	80.645784 
1069.000000	80.425608 
1068.000000	80.171184 
1067.000000	79.901396 
1066.000000	79.632932 
1065.000000	79.368158 
1064.000000	79.107559 
1063.000000	78.855449 
1062.000000	78.606839 
1061.000000	78.346515 
1060.000000	78.069261 
1059.000000	77.786537 
1058.000000	77.507717 
1057.000000	77.229625 
1056.000000	76.948965 
1055.000000	76.668241 
1054.000000	76.383983 
1053.000000	76.086043 
1052.000000	75.774996 
1051.000000	75.463524 
1050.000000	75.154509 
1049.000000	74.836597 
1048.000000	74.506448 
1047.000000	74.174209 
1046.000000	73.843455 
1045.000000	73.507405 
1044.000000	73.167640 
1043.000000	72.835419 
1042.000000	72.511431 
1041.000000	72.184731 
1040.000000	71.855253 
1039.000000	71.537059 
1038.000000	71.236179 
1037.000000	70.946519 
1036.000000	70.670262 
1035.000000	70.419331 
1034.000000	70.193320 
1033.000000	69.979219 
1032.000000	69.776199 
1031.000000	69.596823 
1030.000000	69.441137 
1029.000000	69.295155 
1028.000000	69.158456 
1027.000000	69.046507 
1026.000000	68.960586 
1025.000000	68.881586 
1024.000000	68.798995 
1023.000000	68.720279 
1022.000000	68.646422 
1021.000000	68.565084 
1020.000000	68.474376 
1019.000000	68.387784 
1018.000000	68.309102 
1017.000000	68.227235 
1016.000000	68.141236 
1015.000000	68.065047 
1014.000000	68.001483 
1013.000000	67.936684 
1012.000000	67.866346 
1011.000000	67.802891 
1010.000000	67.751425 
1009.000000	67.703795 
1008.000000	67.661717 
1007.000000	67.640295 
1006.000000	67.642817 
1005.000000	67.656648 
1004.000000	67.678567 
1003.000000	67.718672 
1002.000000	67.774813 
1001.000000	67.830253 
1000.000000	67.882835 
999.000000	 67.950131 
998.000000	 68.038914 
997.000000	 68.135010 
996.000000	 68.229966 
995.000000	 68.332958 
994.000000	 68.449128 
993.000000	 68.570173 
992.000000	 68.693118 
991.000000	 68.825565 
990.000000	 68.966776 
989.000000	 69.106483 
988.000000	 69.247268 
987.000000	 69.404957 
986.000000	 69.582714 
985.000000	 69.768356 
984.000000	 69.960672 
983.000000	 70.173282 
982.000000	 70.407803 
981.000000	 70.648501 
980.000000	 70.889230 
979.000000	 71.141314 
978.000000	 71.408909 
977.000000	 71.681129 
976.000000	 71.954932 
975.000000	 72.241972 
974.000000	 72.545469 
973.000000	 72.852720 
972.000000	 73.157439 
971.000000	 73.468224 
970.000000	 73.788168 
969.000000	 74.106673 
968.000000	 74.417984 
967.000000	 74.728622 
966.000000	 75.041001 
965.000000	 75.348584 
964.000000	 75.651831 
963.000000	 75.959818 
962.000000	 76.271374 
961.000000	 76.573311 
960.000000	 76.861504 
959.000000	 77.145321 
958.000000	 77.427597 
957.000000	 77.699158 
956.000000	 77.957414 
955.000000	 78.211652 
954.000000	 78.465240 
953.000000	 78.710290 
952.000000	 78.944176 
951.000000	 79.173545 
950.000000	 79.398012 
949.000000	 79.607604 
948.000000	 79.800621 
947.000000	 79.986786 
946.000000	 80.168600 
945.000000	 80.336605 
944.000000	 80.487534 
943.000000	 80.630582 
942.000000	 80.771508 
941.000000	 80.906977 
940.000000	 81.038853 
939.000000	 81.177041 
938.000000	 81.323044 
937.000000	 81.466821 
936.000000	 81.604937 
935.000000	 81.746103 
934.000000	 81.894219 
933.000000	 82.041777 
932.000000	 82.184988 
931.000000	 82.329944 
930.000000	 82.478620 
929.000000	 82.623506 
928.000000	 82.761372 
927.000000	 82.898392 
926.000000	 83.036468 
925.000000	 83.167126 
924.000000	 83.283404 
923.000000	 83.386553 
922.000000	 83.479045 
921.000000	 83.563173 
920.000000	 83.647439 
919.000000	 83.740267 
918.000000	 83.835496 
917.000000	 83.918169 
916.000000	 83.987307 
915.000000	 84.059982 
914.000000	 84.151617 
913.000000	 84.265914 
912.000000	 84.404202 
911.000000	 84.568617 
910.000000	 84.753833 
909.000000	 84.950892 
908.000000	 85.161614 
907.000000	 85.395589 
906.000000	 85.652867 
905.000000	 85.923766 
904.000000	 86.204018 
903.000000	 86.493984 
902.000000	 86.785008 
901.000000	 87.065118 
900.000000	 87.338140 
899.000000	 87.619032 
898.000000	 87.909228 
897.000000	 88.193026 
896.000000	 88.458993 
895.000000	 88.708285 
894.000000	 88.941975 
893.000000	 89.157833 
892.000000	 89.361535 
891.000000	 89.564404 
890.000000	 89.766574 
889.000000	 89.956119 
888.000000	 90.126141 
887.000000	 90.279239 
886.000000	 90.416229 
885.000000	 90.536148 
884.000000	 90.646882 
883.000000	 90.758791 
882.000000	 90.867781 
881.000000	 90.963295 
880.000000	 91.053607 
879.000000	 91.162178 
878.000000	 91.295387 
877.000000	 91.435230 
876.000000	 91.569140 
875.000000	 91.705693 
874.000000	 91.854887 
873.000000	 92.014508 
872.000000	 92.183804 
871.000000	 92.370110 
870.000000	 92.572356 
869.000000	 92.774847 
868.000000	 92.965898 
867.000000	 93.148463 
866.000000	 93.326983 
865.000000	 93.498972 
864.000000	 93.666034 
863.000000	 93.838556 
862.000000	 94.021152 
861.000000	 94.204835 
860.000000	 94.380244 
859.000000	 94.547678 
858.000000	 94.708869 
857.000000	 94.860340 
856.000000	 95.000881 
855.000000	 95.135041 
854.000000	 95.263111 
853.000000	 95.377220 
852.000000	 95.473330 
851.000000	 95.558898 
850.000000	 95.644060 
849.000000	 95.732422 
848.000000	 95.822870 
847.000000	 95.911402 
846.000000	 95.989054 
845.000000	 96.047992 
844.000000	 96.092317 
843.000000	 96.133871 
842.000000	 96.175922 
841.000000	 96.210453 
840.000000	 96.231554 
839.000000	 96.239739 
838.000000	 96.233072 
837.000000	 96.208470 
836.000000	 96.174887 
835.000000	 96.151249 
834.000000	 96.145613 
833.000000	 96.148208 
832.000000	 96.149886 
831.000000	 96.154569 
830.000000	 96.167923 
829.000000	 96.187876 
828.000000	 96.215385 
827.000000	 96.261504 
826.000000	 96.331715 
825.000000	 96.412943 
824.000000	 96.486968 
823.000000	 96.547886 
822.000000	 96.598262 
821.000000	 96.638838 
820.000000	 96.670243 
819.000000	 96.694701 
818.000000	 96.708345 
817.000000	 96.699033 
816.000000	 96.657068 
815.000000	 96.582273 
814.000000	 96.477000 
813.000000	 96.337860 
812.000000	 96.156831 
811.000000	 95.923549 
810.000000	 95.623764 
809.000000	 95.243663 
808.000000	 94.781299 
807.000000	 94.249713 
806.000000	 93.667472 
805.000000	 93.053189 
804.000000	 92.430986 
803.000000	 91.830484 
802.000000	 91.276284 
801.000000	 90.787057 
800.000000	 90.386639 
799.000000	 90.100446 
798.000000	 89.934596 
797.000000	 89.871101 
796.000000	 89.886104 
795.000000	 89.958298 
794.000000	 90.060315 
793.000000	 90.163346 
792.000000	 90.255867 
791.000000	 90.341510 
790.000000	 90.415503 
789.000000	 90.459186 
788.000000	 90.459048 
787.000000	 90.413337 
786.000000	 90.318207 
785.000000	 90.166569 
784.000000	 89.965478 
783.000000	 89.737653 
782.000000	 89.502038 
781.000000	 89.270984 
780.000000	 89.069258 
779.000000	 88.932742 
778.000000	 88.879387 
777.000000	 88.899854 
776.000000	 88.982061 
775.000000	 89.123191 
774.000000	 89.310616 
773.000000	 89.514829 
772.000000	 89.713320 
771.000000	 89.903506 
770.000000	 90.083766 
769.000000	 90.241193 
768.000000	 90.367485 
767.000000	 90.468703 
766.000000	 90.549957 
765.000000	 90.608674 
764.000000	 90.653027 
763.000000	 90.707780 
762.000000	 90.788071 
761.000000	 90.882474 
760.000000	 90.974039 
759.000000	 91.063358 
758.000000	 91.159287 
757.000000	 91.262423 
756.000000	 91.371575 
755.000000	 91.493053 
754.000000	 91.628208 
753.000000	 91.761156 
752.000000	 91.872456 
751.000000	 91.959163 
750.000000	 92.033563 
749.000000	 92.109641 
748.000000	 92.197077 
747.000000	 92.298984 
746.000000	 92.407990 
745.000000	 92.512722 
744.000000	 92.613995 
743.000000	 92.725877 
742.000000	 92.856253 
741.000000	 92.996786 
740.000000	 93.136776 
739.000000	 93.275293 
738.000000	 93.413791 
737.000000	 93.547399 
736.000000	 93.670298 
735.000000	 93.781607 
734.000000	 93.881276 
733.000000	 93.968118 
732.000000	 94.044516 
731.000000	 94.114262 
730.000000	 94.173977 
729.000000	 94.216208 
728.000000	 94.243872 
727.000000	 94.271181 
726.000000	 94.308936 
725.000000	 94.360622 
724.000000	 94.430612 
723.000000	 94.520754 
722.000000	 94.618875 
721.000000	 94.707524 
720.000000	 94.786967 
719.000000	 94.872451 
718.000000	 94.966812 
717.000000	 95.056546 
716.000000	 95.135764 
715.000000	 95.212476 
714.000000	 95.287573 
713.000000	 95.348870 
712.000000	 95.394943 
711.000000	 95.444441 
710.000000	 95.509902 
709.000000	 95.579520 
708.000000	 95.635927 
707.000000	 95.676483 
706.000000	 95.702216 
705.000000	 95.704783 
704.000000	 95.677300 
703.000000	 95.621681 
702.000000	 95.532777 
701.000000	 95.388323 
700.000000	 95.168047 
699.000000	 94.876395 
698.000000	 94.539058 
697.000000	 94.193389 
696.000000	 93.891224 
695.000000	 93.689476 
694.000000	 93.619970 
693.000000	 93.670912 
692.000000	 93.802963 
691.000000	 93.977237 
690.000000	 94.164262 
689.000000	 94.343916 
688.000000	 94.509393 
687.000000	 94.662306 
686.000000	 94.799719 
685.000000	 94.915779 
684.000000	 95.016471 
683.000000	 95.116411 
682.000000	 95.217077 
681.000000	 95.306253 
680.000000	 95.382392 
679.000000	 95.461079 
678.000000	 95.548290 
677.000000	 95.631374 
676.000000	 95.709983 
675.000000	 95.798990 
674.000000	 95.896344 
673.000000	 95.973994 
672.000000	 96.017446 
671.000000	 96.053092 
670.000000	 96.135675 
669.000000	 96.293767 
668.000000	 96.452783 
667.000000	 96.516452 
666.000000	 96.527062 
665.000000	 96.525940 
664.000000	 96.524204 
663.000000	 96.538896 
662.000000	 96.580890 
661.000000	 96.630795 
660.000000	 96.674646 
659.000000	 96.721745 
658.000000	 96.773509 
657.000000	 96.805485 
656.000000	 96.806570 
655.000000	 96.791430 
654.000000	 96.764286 
653.000000	 96.707829 
652.000000	 96.630043 
651.000000	 96.584157 
650.000000	 96.606227 

