4000.000000	97.510148 
3999.000000	97.509044 
3998.000000	97.507476 
3997.000000	97.505657 
3996.000000	97.504060 
3995.000000	97.503135 
3994.000000	97.502961 
3993.000000	97.503116 
3992.000000	97.503081 
3991.000000	97.502709 
3990.000000	97.502235 
3989.000000	97.501919 
3988.000000	97.501776 
3987.000000	97.501616 
3986.000000	97.501270 
3985.000000	97.500733 
3984.000000	97.500108 
3983.000000	97.499476 
3982.000000	97.498887 
3981.000000	97.498361 
3980.000000	97.497843 
3979.000000	97.497179 
3978.000000	97.496265 
3977.000000	97.495201 
3976.000000	97.494257 
3975.000000	97.493604 
3974.000000	97.493152 
3973.000000	97.492645 
3972.000000	97.491890 
3971.000000	97.490892 
3970.000000	97.489826 
3969.000000	97.488938 
3968.000000	97.488408 
3967.000000	97.488235 
3966.000000	97.488210 
3965.000000	97.488011 
3964.000000	97.487395 
3963.000000	97.486348 
3962.000000	97.485087 
3961.000000	97.483930 
3960.000000	97.483038 
3959.000000	97.482364 
3958.000000	97.481769 
3957.000000	97.481144 
3956.000000	97.480429 
3955.000000	97.479596 
3954.000000	97.478667 
3953.000000	97.477706 
3952.000000	97.476771 
3951.000000	97.475867 
3950.000000	97.474959 
3949.000000	97.474019 
3948.000000	97.473061 
3947.000000	97.472140 
3946.000000	97.471301 
3945.000000	97.470515 
3944.000000	97.469684 
3943.000000	97.468731 
3942.000000	97.467699 
3941.000000	97.466713 
3940.000000	97.465837 
3939.000000	97.465028 
3938.000000	97.464238 
3937.000000	97.463546 
3936.000000	97.463074 
3935.000000	97.462752 
3934.000000	97.462311 
3933.000000	97.461509 
3932.000000	97.460350 
3931.000000	97.458968 
3930.000000	97.457552 
3929.000000	97.456436 
3928.000000	97.455976 
3927.000000	97.456134 
3926.000000	97.456171 
3925.000000	97.455278 
3924.000000	97.453533 
3923.000000	97.451746 
3922.000000	97.450412 
3921.000000	97.449418 
3920.000000	97.448518 
3919.000000	97.447639 
3918.000000	97.446635 
3917.000000	97.445387 
3916.000000	97.444212 
3915.000000	97.443679 
3914.000000	97.443879 
3913.000000	97.444347 
3912.000000	97.444600 
3911.000000	97.444601 
3910.000000	97.444378 
3909.000000	97.443903 
3908.000000	97.443201 
3907.000000	97.442383 
3906.000000	97.441378 
3905.000000	97.439814 
3904.000000	97.437580 
3903.000000	97.435165 
3902.000000	97.433255 
3901.000000	97.432197 
3900.000000	97.431908 
3899.000000	97.432119 
3898.000000	97.432506 
3897.000000	97.432680 
3896.000000	97.432395 
3895.000000	97.431773 
3894.000000	97.431084 
3893.000000	97.430480 
3892.000000	97.429822 
3891.000000	97.429010 
3890.000000	97.428171 
3889.000000	97.427479 
3888.000000	97.426946 
3887.000000	97.426452 
3886.000000	97.425952 
3885.000000	97.425487 
3884.000000	97.425022 
3883.000000	97.424490 
3882.000000	97.423913 
3881.000000	97.423350 
3880.000000	97.422836 
3879.000000	97.422359 
3878.000000	97.421902 
3877.000000	97.421458 
3876.000000	97.421018 
3875.000000	97.420573 
3874.000000	97.420119 
3873.000000	97.419656 
3872.000000	97.419182 
3871.000000	97.418699 
3870.000000	97.418214 
3869.000000	97.417746 
3868.000000	97.417306 
3867.000000	97.416888 
3866.000000	97.416484 
3865.000000	97.416091 
3864.000000	97.415713 
3863.000000	97.415345 
3862.000000	97.414970 
3861.000000	97.414575 
3860.000000	97.414153 
3859.000000	97.413699 
3858.000000	97.413212 
3857.000000	97.412697 
3856.000000	97.412169 
3855.000000	97.411644 
3854.000000	97.411130 
3853.000000	97.410631 
3852.000000	97.410148 
3851.000000	97.409681 
3850.000000	97.409231 
3849.000000	97.408798 
3848.000000	97.408377 
3847.000000	97.407961 
3846.000000	97.407538 
3845.000000	97.407104 
3844.000000	97.406659 
3843.000000	97.406213 
3842.000000	97.405778 
3841.000000	97.405360 
3840.000000	97.404960 
3839.000000	97.404567 
3838.000000	97.404172 
3837.000000	97.403768 
3836.000000	97.403360 
3835.000000	97.402959 
3834.000000	97.402579 
3833.000000	97.402231 
3832.000000	97.401919 
3831.000000	97.401640 
3830.000000	97.401388 
3829.000000	97.401154 
3828.000000	97.400934 
3827.000000	97.400720 
3826.000000	97.400503 
3825.000000	97.400280 
3824.000000	97.400052 
3823.000000	97.399827 
3822.000000	97.399612 
3821.000000	97.399421 
3820.000000	97.399279 
3819.000000	97.399199 
3818.000000	97.399176 
3817.000000	97.399195 
3816.000000	97.399245 
3815.000000	97.399322 
3814.000000	97.399410 
3813.000000	97.399481 
3812.000000	97.399517 
3811.000000	97.399531 
3810.000000	97.399565 
3809.000000	97.399640 
3808.000000	97.399714 
3807.000000	97.399719 
3806.000000	97.399669 
3805.000000	97.399659 
3804.000000	97.399735 
3803.000000	97.399850 
3802.000000	97.399928 
3801.000000	97.400026 
3800.000000	97.400173 
3799.000000	97.400185 
3798.000000	97.399954 
3797.000000	97.399736 
3796.000000	97.399968 
3795.000000	97.400743 
3794.000000	97.401590 
3793.000000	97.401968 
3792.000000	97.401922 
3791.000000	97.402018 
3790.000000	97.402596 
3789.000000	97.403287 
3788.000000	97.403482 
3787.000000	97.402951 
3786.000000	97.401878 
3785.000000	97.400560 
3784.000000	97.399302 
3783.000000	97.398410 
3782.000000	97.397798 
3781.000000	97.397201 
3780.000000	97.396860 
3779.000000	97.397654 
3778.000000	97.399729 
3777.000000	97.401673 
3776.000000	97.401666 
3775.000000	97.399244 
3774.000000	97.395675 
3773.000000	97.392821 
3772.000000	97.391274 
3771.000000	97.390337 
3770.000000	97.389694 
3769.000000	97.389770 
3768.000000	97.390142 
3767.000000	97.389553 
3766.000000	97.387489 
3765.000000	97.385051 
3764.000000	97.383915 
3763.000000	97.384195 
3762.000000	97.384129 
3761.000000	97.382431 
3760.000000	97.380025 
3759.000000	97.378612 
3758.000000	97.377450 
3757.000000	97.375044 
3756.000000	97.371961 
3755.000000	97.369371 
3754.000000	97.366729 
3753.000000	97.362635 
3752.000000	97.358043 
3751.000000	97.355169 
3750.000000	97.353125 
3749.000000	97.349795 
3748.000000	97.346474 
3747.000000	97.345451 
3746.000000	97.345557 
3745.000000	97.344631 
3744.000000	97.345642 
3743.000000	97.350339 
3742.000000	97.354616 
3741.000000	97.355034 
3740.000000	97.352593 
3739.000000	97.351095 
3738.000000	97.351563 
3737.000000	97.350703 
3736.000000	97.347186 
3735.000000	97.345037 
3734.000000	97.347434 
3733.000000	97.351367 
3732.000000	97.352568 
3731.000000	97.350745 
3730.000000	97.347841 
3729.000000	97.344927 
3728.000000	97.341668 
3727.000000	97.338008 
3726.000000	97.335243 
3725.000000	97.334119 
3724.000000	97.333807 
3723.000000	97.333757 
3722.000000	97.334820 
3721.000000	97.337442 
3720.000000	97.340315 
3719.000000	97.342287 
3718.000000	97.342979 
3717.000000	97.342639 
3716.000000	97.341725 
3715.000000	97.339409 
3714.000000	97.334152 
3713.000000	97.326093 
3712.000000	97.318110 
3711.000000	97.313374 
3710.000000	97.312361 
3709.000000	97.313813 
3708.000000	97.315892 
3707.000000	97.316704 
3706.000000	97.315786 
3705.000000	97.314391 
3704.000000	97.314044 
3703.000000	97.314368 
3702.000000	97.312552 
3701.000000	97.305983 
3700.000000	97.295233 
3699.000000	97.283879 
3698.000000	97.274866 
3697.000000	97.268449 
3696.000000	97.263887 
3695.000000	97.259845 
3694.000000	97.254431 
3693.000000	97.248016 
3692.000000	97.244453 
3691.000000	97.247036 
3690.000000	97.253184 
3689.000000	97.257565 
3688.000000	97.258139 
3687.000000	97.255993 
3686.000000	97.252259 
3685.000000	97.246488 
3684.000000	97.238885 
3683.000000	97.232658 
3682.000000	97.230526 
3681.000000	97.229337 
3680.000000	97.223550 
3679.000000	97.212539 
3678.000000	97.200607 
3677.000000	97.188385 
3676.000000	97.173178 
3675.000000	97.158620 
3674.000000	97.148792 
3673.000000	97.141031 
3672.000000	97.130903 
3671.000000	97.118856 
3670.000000	97.111536 
3669.000000	97.112320 
3668.000000	97.114102 
3667.000000	97.109492 
3666.000000	97.099329 
3665.000000	97.088171 
3664.000000	97.078346 
3663.000000	97.069114 
3662.000000	97.058254 
3661.000000	97.044197 
3660.000000	97.027679 
3659.000000	97.010632 
3658.000000	96.995015 
3657.000000	96.980942 
3656.000000	96.968201 
3655.000000	96.956959 
3654.000000	96.946515 
3653.000000	96.935447 
3652.000000	96.921821 
3651.000000	96.904381 
3650.000000	96.883889 
3649.000000	96.862877 
3648.000000	96.844727 
3647.000000	96.833014 
3646.000000	96.829107 
3645.000000	96.830212 
3644.000000	96.831058 
3643.000000	96.828182 
3642.000000	96.821685 
3641.000000	96.813823 
3640.000000	96.805595 
3639.000000	96.795690 
3638.000000	96.783404 
3637.000000	96.769724 
3636.000000	96.755373 
3635.000000	96.739439 
3634.000000	96.722590 
3633.000000	96.708662 
3632.000000	96.699799 
3631.000000	96.691130 
3630.000000	96.673866 
3629.000000	96.649044 
3628.000000	96.629908 
3627.000000	96.623177 
3626.000000	96.624550 
3625.000000	96.629626 
3624.000000	96.637865 
3623.000000	96.649614 
3622.000000	96.662066 
3621.000000	96.668776 
3620.000000	96.664490 
3619.000000	96.650620 
3618.000000	96.633821 
3617.000000	96.620381 
3616.000000	96.613765 
3615.000000	96.613616 
3614.000000	96.617178 
3613.000000	96.622526 
3612.000000	96.628797 
3611.000000	96.633568 
3610.000000	96.633652 
3609.000000	96.629425 
3608.000000	96.625968 
3607.000000	96.628138 
3606.000000	96.635640 
3605.000000	96.645381 
3604.000000	96.655823 
3603.000000	96.667010 
3602.000000	96.678401 
3601.000000	96.687655 
3600.000000	96.692793 
3599.000000	96.693544 
3598.000000	96.691291 
3597.000000	96.688772 
3596.000000	96.689370 
3595.000000	96.693534 
3594.000000	96.698514 
3593.000000	96.701252 
3592.000000	96.701059 
3591.000000	96.699753 
3590.000000	96.699032 
3589.000000	96.698524 
3588.000000	96.697287 
3587.000000	96.696739 
3586.000000	96.698943 
3585.000000	96.703516 
3584.000000	96.708745 
3583.000000	96.713383 
3582.000000	96.717202 
3581.000000	96.720172 
3580.000000	96.722248 
3579.000000	96.723416 
3578.000000	96.723792 
3577.000000	96.723608 
3576.000000	96.722948 
3575.000000	96.721726 
3574.000000	96.719774 
3573.000000	96.717505 
3572.000000	96.715826 
3571.000000	96.715588 
3570.000000	96.716460 
3569.000000	96.716257 
3568.000000	96.712595 
3567.000000	96.706241 
3566.000000	96.701136 
3565.000000	96.700141 
3564.000000	96.703031 
3563.000000	96.707808 
3562.000000	96.712334 
3561.000000	96.715362 
3560.000000	96.716555 
3559.000000	96.716110 
3558.000000	96.714523 
3557.000000	96.712627 
3556.000000	96.711264 
3555.000000	96.710714 
3554.000000	96.710455 
3553.000000	96.709797 
3552.000000	96.708749 
3551.000000	96.707927 
3550.000000	96.707680 
3549.000000	96.707678 
3548.000000	96.707256 
3547.000000	96.705998 
3546.000000	96.704072 
3545.000000	96.702147 
3544.000000	96.700952 
3543.000000	96.700789 
3542.000000	96.701398 
3541.000000	96.702305 
3540.000000	96.703206 
3539.000000	96.703967 
3538.000000	96.704449 
3537.000000	96.704554 
3536.000000	96.704365 
3535.000000	96.703972 
3534.000000	96.703341 
3533.000000	96.702462 
3532.000000	96.701606 
3531.000000	96.701206 
3530.000000	96.701422 
3529.000000	96.701933 
3528.000000	96.702200 
3527.000000	96.701927 
3526.000000	96.701125 
3525.000000	96.699955 
3524.000000	96.698691 
3523.000000	96.697694 
3522.000000	96.697235 
3521.000000	96.697301 
3520.000000	96.697660 
3519.000000	96.698055 
3518.000000	96.698298 
3517.000000	96.698225 
3516.000000	96.697710 
3515.000000	96.696802 
3514.000000	96.695801 
3513.000000	96.695062 
3512.000000	96.694667 
3511.000000	96.694413 
3510.000000	96.694095 
3509.000000	96.693757 
3508.000000	96.693579 
3507.000000	96.693621 
3506.000000	96.693733 
3505.000000	96.693692 
3504.000000	96.693394 
3503.000000	96.692933 
3502.000000	96.692491 
3501.000000	96.692128 
3500.000000	96.691712 
3499.000000	96.691048 
3498.000000	96.690102 
3497.000000	96.689126 
3496.000000	96.688486 
3495.000000	96.688344 
3494.000000	96.688574 
3493.000000	96.688953 
3492.000000	96.689279 
3491.000000	96.689297 
3490.000000	96.688767 
3489.000000	96.687724 
3488.000000	96.686591 
3487.000000	96.685838 
3486.000000	96.685586 
3485.000000	96.685697 
3484.000000	96.686033 
3483.000000	96.686416 
3482.000000	96.686485 
3481.000000	96.685944 
3480.000000	96.684964 
3479.000000	96.684117 
3478.000000	96.683755 
3477.000000	96.683566 
3476.000000	96.682831 
3475.000000	96.681140 
3474.000000	96.678887 
3473.000000	96.677063 
3472.000000	96.676392 
3471.000000	96.676659 
3470.000000	96.677007 
3469.000000	96.676941 
3468.000000	96.676778 
3467.000000	96.677022 
3466.000000	96.677528 
3465.000000	96.677542 
3464.000000	96.676455 
3463.000000	96.674245 
3462.000000	96.671338 
3461.000000	96.668356 
3460.000000	96.665857 
3459.000000	96.663990 
3458.000000	96.662286 
3457.000000	96.659984 
3456.000000	96.656861 
3455.000000	96.653666 
3454.000000	96.651625 
3453.000000	96.651406 
3452.000000	96.652711 
3451.000000	96.654608 
3450.000000	96.656018 
3449.000000	96.656034 
3448.000000	96.654105 
3447.000000	96.650314 
3446.000000	96.645406 
3445.000000	96.640425 
3444.000000	96.636271 
3443.000000	96.633468 
3442.000000	96.631997 
3441.000000	96.631246 
3440.000000	96.630427 
3439.000000	96.629172 
3438.000000	96.627623 
3437.000000	96.625935 
3436.000000	96.624053 
3435.000000	96.622083 
3434.000000	96.620562 
3433.000000	96.619899 
3432.000000	96.619777 
3431.000000	96.619429 
3430.000000	96.618482 
3429.000000	96.617273 
3428.000000	96.616264 
3427.000000	96.615440 
3426.000000	96.614453 
3425.000000	96.613125 
3424.000000	96.611476 
3423.000000	96.609397 
3422.000000	96.606752 
3421.000000	96.603884 
3420.000000	96.601653 
3419.000000	96.600612 
3418.000000	96.600449 
3417.000000	96.600416 
3416.000000	96.600162 
3415.000000	96.599811 
3414.000000	96.599318 
3413.000000	96.598273 
3412.000000	96.596435 
3411.000000	96.594144 
3410.000000	96.592030 
3409.000000	96.590496 
3408.000000	96.589584 
3407.000000	96.589179 
3406.000000	96.589107 
3405.000000	96.589197 
3404.000000	96.589367 
3403.000000	96.589575 
3402.000000	96.589684 
3401.000000	96.589489 
3400.000000	96.588907 
3399.000000	96.588048 
3398.000000	96.587100 
3397.000000	96.586251 
3396.000000	96.585698 
3395.000000	96.585583 
3394.000000	96.585815 
3393.000000	96.585998 
3392.000000	96.585718 
3391.000000	96.584884 
3390.000000	96.583779 
3389.000000	96.582810 
3388.000000	96.582238 
3387.000000	96.582124 
3386.000000	96.582328 
3385.000000	96.582485 
3384.000000	96.582161 
3383.000000	96.581239 
3382.000000	96.580193 
3381.000000	96.579764 
3380.000000	96.580205 
3379.000000	96.581004 
3378.000000	96.581410 
3377.000000	96.581300 
3376.000000	96.581207 
3375.000000	96.581559 
3374.000000	96.582150 
3373.000000	96.582502 
3372.000000	96.582586 
3371.000000	96.582950 
3370.000000	96.584073 
3369.000000	96.585756 
3368.000000	96.587186 
3367.000000	96.587649 
3366.000000	96.587067 
3365.000000	96.585953 
3364.000000	96.584891 
3363.000000	96.584045 
3362.000000	96.583198 
3361.000000	96.582225 
3360.000000	96.581455 
3359.000000	96.581465 
3358.000000	96.582501 
3357.000000	96.584205 
3356.000000	96.585993 
3355.000000	96.587669 
3354.000000	96.589470 
3353.000000	96.591436 
3352.000000	96.593035 
3351.000000	96.593667 
3350.000000	96.593389 
3349.000000	96.592895 
3348.000000	96.592776 
3347.000000	96.593072 
3346.000000	96.593733 
3345.000000	96.594984 
3344.000000	96.596865 
3343.000000	96.598706 
3342.000000	96.599669 
3341.000000	96.599789 
3340.000000	96.599981 
3339.000000	96.600849 
3338.000000	96.601993 
3337.000000	96.602734 
3336.000000	96.603088 
3335.000000	96.603602 
3334.000000	96.604450 
3333.000000	96.605106 
3332.000000	96.604973 
3331.000000	96.604052 
3330.000000	96.602941 
3329.000000	96.602286 
3328.000000	96.602311 
3327.000000	96.602802 
3326.000000	96.603455 
3325.000000	96.604252 
3324.000000	96.605435 
3323.000000	96.607070 
3322.000000	96.608860 
3321.000000	96.610473 
3320.000000	96.611838 
3319.000000	96.613002 
3318.000000	96.613799 
3317.000000	96.613910 
3316.000000	96.613359 
3315.000000	96.612823 
3314.000000	96.613228 
3313.000000	96.614961 
3312.000000	96.617566 
3311.000000	96.620148 
3310.000000	96.622131 
3309.000000	96.623452 
3308.000000	96.624133 
3307.000000	96.624011 
3306.000000	96.623029 
3305.000000	96.621608 
3304.000000	96.620503 
3303.000000	96.620216 
3302.000000	96.620707 
3301.000000	96.621563 
3300.000000	96.622337 
3299.000000	96.622794 
3298.000000	96.622962 
3297.000000	96.623072 
3296.000000	96.623410 
3295.000000	96.624141 
3294.000000	96.625197 
3293.000000	96.626327 
3292.000000	96.627265 
3291.000000	96.627911 
3290.000000	96.628394 
3289.000000	96.628979 
3288.000000	96.629870 
3287.000000	96.631040 
3286.000000	96.632220 
3285.000000	96.633063 
3284.000000	96.633423 
3283.000000	96.633442 
3282.000000	96.633492 
3281.000000	96.633902 
3280.000000	96.634712 
3279.000000	96.635741 
3278.000000	96.636775 
3277.000000	96.637735 
3276.000000	96.638626 
3275.000000	96.639437 
3274.000000	96.640158 
3273.000000	96.640830 
3272.000000	96.641513 
3271.000000	96.642229 
3270.000000	96.642962 
3269.000000	96.643703 
3268.000000	96.644456 
3267.000000	96.645228 
3266.000000	96.646029 
3265.000000	96.646864 
3264.000000	96.647737 
3263.000000	96.648647 
3262.000000	96.649593 
3261.000000	96.650564 
3260.000000	96.651552 
3259.000000	96.652546 
3258.000000	96.653537 
3257.000000	96.654525 
3256.000000	96.655514 
3255.000000	96.656511 
3254.000000	96.657515 
3253.000000	96.658523 
3252.000000	96.659534 
3251.000000	96.660549 
3250.000000	96.661574 
3249.000000	96.662609 
3248.000000	96.663655 
3247.000000	96.664709 
3246.000000	96.665767 
3245.000000	96.666824 
3244.000000	96.667876 
3243.000000	96.668924 
3242.000000	96.669977 
3241.000000	96.671042 
3240.000000	96.672122 
3239.000000	96.673214 
3238.000000	96.674309 
3237.000000	96.675398 
3236.000000	96.676475 
3235.000000	96.677538 
3234.000000	96.678590 
3233.000000	96.679642 
3232.000000	96.680705 
3231.000000	96.681791 
3230.000000	96.682901 
3229.000000	96.684033 
3228.000000	96.685178 
3227.000000	96.686330 
3226.000000	96.687489 
3225.000000	96.688659 
3224.000000	96.689841 
3223.000000	96.691032 
3222.000000	96.692226 
3221.000000	96.693420 
3220.000000	96.694608 
3219.000000	96.695787 
3218.000000	96.696950 
3217.000000	96.698095 
3216.000000	96.699244 
3215.000000	96.700430 
3214.000000	96.701684 
3213.000000	96.703020 
3212.000000	96.704423 
3211.000000	96.705840 
3210.000000	96.707214 
3209.000000	96.708525 
3208.000000	96.709828 
3207.000000	96.711200 
3206.000000	96.712658 
3205.000000	96.714144 
3204.000000	96.715602 
3203.000000	96.717054 
3202.000000	96.718567 
3201.000000	96.720116 
3200.000000	96.721527 
3199.000000	96.722645 
3198.000000	96.723623 
3197.000000	96.724913 
3196.000000	96.726797 
3195.000000	96.729072 
3194.000000	96.731284 
3193.000000	96.733251 
3192.000000	96.735142 
3191.000000	96.737144 
3190.000000	96.739199 
3189.000000	96.741081 
3188.000000	96.742628 
3187.000000	96.743955 
3186.000000	96.745489 
3185.000000	96.747629 
3184.000000	96.750245 
3183.000000	96.752656 
3182.000000	96.754316 
3181.000000	96.755301 
3180.000000	96.756078 
3179.000000	96.756987 
3178.000000	96.758212 
3177.000000	96.760060 
3176.000000	96.762802 
3175.000000	96.766210 
3174.000000	96.769591 
3173.000000	96.772386 
3172.000000	96.774490 
3171.000000	96.776090 
3170.000000	96.777527 
3169.000000	96.779244 
3168.000000	96.781439 
3167.000000	96.783768 
3166.000000	96.785742 
3165.000000	96.787353 
3164.000000	96.788958 
3163.000000	96.790635 
3162.000000	96.792072 
3161.000000	96.793106 
3160.000000	96.793978 
3159.000000	96.794981 
3158.000000	96.796201 
3157.000000	96.797653 
3156.000000	96.799321 
3155.000000	96.801005 
3154.000000	96.802476 
3153.000000	96.803870 
3152.000000	96.805614 
3151.000000	96.807800 
3150.000000	96.809936 
3149.000000	96.811470 
3148.000000	96.812405 
3147.000000	96.813299 
3146.000000	96.814799 
3145.000000	96.817201 
3144.000000	96.820235 
3143.000000	96.823119 
3142.000000	96.825115 
3141.000000	96.826159 
3140.000000	96.826874 
3139.000000	96.827946 
3138.000000	96.829612 
3137.000000	96.831774 
3136.000000	96.834242 
3135.000000	96.836709 
3134.000000	96.838804 
3133.000000	96.840425 
3132.000000	96.841808 
3131.000000	96.843159 
3130.000000	96.844499 
3129.000000	96.845994 
3128.000000	96.848098 
3127.000000	96.851077 
3126.000000	96.854582 
3125.000000	96.857877 
3124.000000	96.860536 
3123.000000	96.862617 
3122.000000	96.864305 
3121.000000	96.865672 
3120.000000	96.866742 
3119.000000	96.867614 
3118.000000	96.868476 
3117.000000	96.869596 
3116.000000	96.871210 
3115.000000	96.873295 
3114.000000	96.875505 
3113.000000	96.877490 
3112.000000	96.879308 
3111.000000	96.881386 
3110.000000	96.884001 
3109.000000	96.886886 
3108.000000	96.889440 
3107.000000	96.891318 
3106.000000	96.892696 
3105.000000	96.893973 
3104.000000	96.895324 
3103.000000	96.896696 
3102.000000	96.898127 
3101.000000	96.899792 
3100.000000	96.901612 
3099.000000	96.903088 
3098.000000	96.903859 
3097.000000	96.904369 
3096.000000	96.905552 
3095.000000	96.907764 
3094.000000	96.910462 
3093.000000	96.912870 
3092.000000	96.914737 
3091.000000	96.916188 
3090.000000	96.917263 
3089.000000	96.918015 
3088.000000	96.918856 
3087.000000	96.920373 
3086.000000	96.922785 
3085.000000	96.925676 
3084.000000	96.928267 
3083.000000	96.930026 
3082.000000	96.931034 
3081.000000	96.931949 
3080.000000	96.933410 
3079.000000	96.935375 
3078.000000	96.937298 
3077.000000	96.938974 
3076.000000	96.940839 
3075.000000	96.943169 
3074.000000	96.945416 
3073.000000	96.946827 
3072.000000	96.947418 
3071.000000	96.947850 
3070.000000	96.948576 
3069.000000	96.949594 
3068.000000	96.950859 
3067.000000	96.952301 
3066.000000	96.953521 
3065.000000	96.954042 
3064.000000	96.953935 
3063.000000	96.953791 
3062.000000	96.954015 
3061.000000	96.954540 
3060.000000	96.955285 
3059.000000	96.956463 
3058.000000	96.958255 
3057.000000	96.960473 
3056.000000	96.962676 
3055.000000	96.964427 
3054.000000	96.965449 
3053.000000	96.965817 
3052.000000	96.966131 
3051.000000	96.967160 
3050.000000	96.969115 
3049.000000	96.971438 
3048.000000	96.973318 
3047.000000	96.974442 
3046.000000	96.975042 
3045.000000	96.975513 
3044.000000	96.976176 
3043.000000	96.977282 
3042.000000	96.978951 
3041.000000	96.980942 
3040.000000	96.982634 
3039.000000	96.983519 
3038.000000	96.983650 
3037.000000	96.983574 
3036.000000	96.983821 
3035.000000	96.984441 
3034.000000	96.985147 
3033.000000	96.985731 
3032.000000	96.986253 
3031.000000	96.986871 
3030.000000	96.987627 
3029.000000	96.988450 
3028.000000	96.989241 
3027.000000	96.989845 
3026.000000	96.990025 
3025.000000	96.989688 
3024.000000	96.989161 
3023.000000	96.989039 
3022.000000	96.989634 
3021.000000	96.990766 
3020.000000	96.992164 
3019.000000	96.993823 
3018.000000	96.995649 
3017.000000	96.997053 
3016.000000	96.997377 
3015.000000	96.996674 
3014.000000	96.995784 
3013.000000	96.995488 
3012.000000	96.995808 
3011.000000	96.996228 
3010.000000	96.996342 
3009.000000	96.996141 
3008.000000	96.995813 
3007.000000	96.995431 
3006.000000	96.994958 
3005.000000	96.994600 
3004.000000	96.994934 
3003.000000	96.996379 
3002.000000	96.998575 
3001.000000	97.000602 
3000.000000	97.001878 
2999.000000	97.002433 
2998.000000	97.002261 
2997.000000	97.001105 
2996.000000	96.999203 
2995.000000	96.997617 
2994.000000	96.997155 
2993.000000	96.997385 
2992.000000	96.997243 
2991.000000	96.996398 
2990.000000	96.995459 
2989.000000	96.995069 
2988.000000	96.995424 
2987.000000	96.996520 
2986.000000	96.998289 
2985.000000	97.000469 
2984.000000	97.002730 
2983.000000	97.005025 
2982.000000	97.007547 
2981.000000	97.010321 
2980.000000	97.012972 
2979.000000	97.014878 
2978.000000	97.015599 
2977.000000	97.015375 
2976.000000	97.015353 
2975.000000	97.016878 
2974.000000	97.020253 
2973.000000	97.024340 
2972.000000	97.027622 
2971.000000	97.029578 
2970.000000	97.030715 
2969.000000	97.031630 
2968.000000	97.032452 
2967.000000	97.033087 
2966.000000	97.033572 
2965.000000	97.034021 
2964.000000	97.034493 
2963.000000	97.035020 
2962.000000	97.035660 
2961.000000	97.036560 
2960.000000	97.038017 
2959.000000	97.040305 
2958.000000	97.043302 
2957.000000	97.046317 
2956.000000	97.048550 
2955.000000	97.049726 
2954.000000	97.050206 
2953.000000	97.050663 
2952.000000	97.051698 
2951.000000	97.053561 
2950.000000	97.055992 
2949.000000	97.058297 
2948.000000	97.059903 
2947.000000	97.060861 
2946.000000	97.061663 
2945.000000	97.062618 
2944.000000	97.063569 
2943.000000	97.064261 
2942.000000	97.064658 
2941.000000	97.064858 
2940.000000	97.064957 
2939.000000	97.065191 
2938.000000	97.066005 
2937.000000	97.067670 
2936.000000	97.069832 
2935.000000	97.071664 
2934.000000	97.072643 
2933.000000	97.072938 
2932.000000	97.073111 
2931.000000	97.073536 
2930.000000	97.074125 
2929.000000	97.074507 
2928.000000	97.074400 
2927.000000	97.073898 
2926.000000	97.073459 
2925.000000	97.073592 
2924.000000	97.074555 
2923.000000	97.076274 
2922.000000	97.078326 
2921.000000	97.079989 
2920.000000	97.080712 
2919.000000	97.080752 
2918.000000	97.081096 
2917.000000	97.082283 
2916.000000	97.083496 
2915.000000	97.083426 
2914.000000	97.081893 
2913.000000	97.080172 
2912.000000	97.079580 
2911.000000	97.080086 
2910.000000	97.080674 
2909.000000	97.080649 
2908.000000	97.080271 
2907.000000	97.080228 
2906.000000	97.080804 
2905.000000	97.081602 
2904.000000	97.081754 
2903.000000	97.080832 
2902.000000	97.079537 
2901.000000	97.079171 
2900.000000	97.080434 
2899.000000	97.082740 
2898.000000	97.085103 
2897.000000	97.087221 
2896.000000	97.089275 
2895.000000	97.091016 
2894.000000	97.091845 
2893.000000	97.091779 
2892.000000	97.091674 
2891.000000	97.092258 
2890.000000	97.093433 
2889.000000	97.094828 
2888.000000	97.096540 
2887.000000	97.098766 
2886.000000	97.100934 
2885.000000	97.101974 
2884.000000	97.101726 
2883.000000	97.101517 
2882.000000	97.102823 
2881.000000	97.105538 
2880.000000	97.108167 
2879.000000	97.109786 
2878.000000	97.111009 
2877.000000	97.112846 
2876.000000	97.115240 
2875.000000	97.117278 
2874.000000	97.118495 
2873.000000	97.119266 
2872.000000	97.119991 
2871.000000	97.120619 
2870.000000	97.121057 
2869.000000	97.121504 
2868.000000	97.122157 
2867.000000	97.122870 
2866.000000	97.123361 
2865.000000	97.123580 
2864.000000	97.123756 
2863.000000	97.124284 
2862.000000	97.125542 
2861.000000	97.127615 
2860.000000	97.130096 
2859.000000	97.132335 
2858.000000	97.134023 
2857.000000	97.135349 
2856.000000	97.136590 
2855.000000	97.137774 
2854.000000	97.138810 
2853.000000	97.139752 
2852.000000	97.140755 
2851.000000	97.141863 
2850.000000	97.142990 
2849.000000	97.144054 
2848.000000	97.145003 
2847.000000	97.145784 
2846.000000	97.146395 
2845.000000	97.146976 
2844.000000	97.147743 
2843.000000	97.148816 
2842.000000	97.150141 
2841.000000	97.151538 
2840.000000	97.152781 
2839.000000	97.153726 
2838.000000	97.154383 
2837.000000	97.154926 
2836.000000	97.155582 
2835.000000	97.156456 
2834.000000	97.157520 
2833.000000	97.158728 
2832.000000	97.160070 
2831.000000	97.161497 
2830.000000	97.162855 
2829.000000	97.163994 
2828.000000	97.164902 
2827.000000	97.165706 
2826.000000	97.166557 
2825.000000	97.167522 
2824.000000	97.168594 
2823.000000	97.169721 
2822.000000	97.170807 
2821.000000	97.171767 
2820.000000	97.172576 
2819.000000	97.173267 
2818.000000	97.173896 
2817.000000	97.174543 
2816.000000	97.175308 
2815.000000	97.176253 
2814.000000	97.177328 
2813.000000	97.178370 
2812.000000	97.179230 
2811.000000	97.179858 
2810.000000	97.180319 
2809.000000	97.180780 
2808.000000	97.181453 
2807.000000	97.182484 
2806.000000	97.183861 
2805.000000	97.185415 
2804.000000	97.186913 
2803.000000	97.188143 
2802.000000	97.188985 
2801.000000	97.189509 
2800.000000	97.190037 
2799.000000	97.190924 
2798.000000	97.192239 
2797.000000	97.193753 
2796.000000	97.195245 
2795.000000	97.196693 
2794.000000	97.198103 
2793.000000	97.199327 
2792.000000	97.200274 
2791.000000	97.201105 
2790.000000	97.201984 
2789.000000	97.202759 
2788.000000	97.203170 
2787.000000	97.203292 
2786.000000	97.203520 
2785.000000	97.204058 
2784.000000	97.204679 
2783.000000	97.205145 
2782.000000	97.205568 
2781.000000	97.206206 
2780.000000	97.207113 
2779.000000	97.208186 
2778.000000	97.209388 
2777.000000	97.210689 
2776.000000	97.211908 
2775.000000	97.212881 
2774.000000	97.213806 
2773.000000	97.215147 
2772.000000	97.217053 
2771.000000	97.219054 
2770.000000	97.220500 
2769.000000	97.221206 
2768.000000	97.221513 
2767.000000	97.221806 
2766.000000	97.222189 
2765.000000	97.222682 
2764.000000	97.223409 
2763.000000	97.224407 
2762.000000	97.225382 
2761.000000	97.225923 
2760.000000	97.225983 
2759.000000	97.225997 
2758.000000	97.226373 
2757.000000	97.227007 
2756.000000	97.227467 
2755.000000	97.227614 
2754.000000	97.227856 
2753.000000	97.228681 
2752.000000	97.230117 
2751.000000	97.231764 
2750.000000	97.233295 
2749.000000	97.234667 
2748.000000	97.235828 
2747.000000	97.236488 
2746.000000	97.236442 
2745.000000	97.235976 
2744.000000	97.235757 
2743.000000	97.236154 
2742.000000	97.236937 
2741.000000	97.237614 
2740.000000	97.237963 
2739.000000	97.238111 
2738.000000	97.238282 
2737.000000	97.238622 
2736.000000	97.239191 
2735.000000	97.239986 
2734.000000	97.240896 
2733.000000	97.241734 
2732.000000	97.242371 
2731.000000	97.242833 
2730.000000	97.243281 
2729.000000	97.243876 
2728.000000	97.244643 
2727.000000	97.245470 
2726.000000	97.246198 
2725.000000	97.246747 
2724.000000	97.247160 
2723.000000	97.247563 
2722.000000	97.248066 
2721.000000	97.248686 
2720.000000	97.249378 
2719.000000	97.250083 
2718.000000	97.250763 
2717.000000	97.251376 
2716.000000	97.251895 
2715.000000	97.252351 
2714.000000	97.252854 
2713.000000	97.253503 
2712.000000	97.254281 
2711.000000	97.255058 
2710.000000	97.255709 
2709.000000	97.256215 
2708.000000	97.256668 
2707.000000	97.257192 
2706.000000	97.257861 
2705.000000	97.258649 
2704.000000	97.259416 
2703.000000	97.259957 
2702.000000	97.260168 
2701.000000	97.260164 
2700.000000	97.260269 
2699.000000	97.260741 
2698.000000	97.261555 
2697.000000	97.262342 
2696.000000	97.262704 
2695.000000	97.262587 
2694.000000	97.262297 
2693.000000	97.262168 
2692.000000	97.262242 
2691.000000	97.262327 
2690.000000	97.262257 
2689.000000	97.262015 
2688.000000	97.261665 
2687.000000	97.261262 
2686.000000	97.260878 
2685.000000	97.260610 
2684.000000	97.260489 
2683.000000	97.260403 
2682.000000	97.260196 
2681.000000	97.259838 
2680.000000	97.259439 
2679.000000	97.259118 
2678.000000	97.258910 
2677.000000	97.258784 
2676.000000	97.258669 
2675.000000	97.258446 
2674.000000	97.258010 
2673.000000	97.257382 
2672.000000	97.256744 
2671.000000	97.256249 
2670.000000	97.255875 
2669.000000	97.255477 
2668.000000	97.254960 
2667.000000	97.254336 
2666.000000	97.253636 
2665.000000	97.252848 
2664.000000	97.251978 
2663.000000	97.251105 
2662.000000	97.250323 
2661.000000	97.249654 
2660.000000	97.249049 
2659.000000	97.248464 
2658.000000	97.247891 
2657.000000	97.247337 
2656.000000	97.246788 
2655.000000	97.246211 
2654.000000	97.245590 
2653.000000	97.244935 
2652.000000	97.244278 
2651.000000	97.243664 
2650.000000	97.243122 
2649.000000	97.242647 
2648.000000	97.242202 
2647.000000	97.241735 
2646.000000	97.241199 
2645.000000	97.240571 
2644.000000	97.239860 
2643.000000	97.239123 
2642.000000	97.238447 
2641.000000	97.237884 
2640.000000	97.237418 
2639.000000	97.236978 
2638.000000	97.236522 
2637.000000	97.236056 
2636.000000	97.235586 
2635.000000	97.235103 
2634.000000	97.234621 
2633.000000	97.234159 
2632.000000	97.233693 
2631.000000	97.233162 
2630.000000	97.232555 
2629.000000	97.231948 
2628.000000	97.231449 
2627.000000	97.231086 
2626.000000	97.230818 
2625.000000	97.230595 
2624.000000	97.230395 
2623.000000	97.230193 
2622.000000	97.229967 
2621.000000	97.229721 
2620.000000	97.229477 
2619.000000	97.229239 
2618.000000	97.228996 
2617.000000	97.228763 
2616.000000	97.228579 
2615.000000	97.228447 
2614.000000	97.228324 
2613.000000	97.228173 
2612.000000	97.227992 
2611.000000	97.227804 
2610.000000	97.227638 
2609.000000	97.227538 
2608.000000	97.227542 
2607.000000	97.227600 
2606.000000	97.227583 
2605.000000	97.227442 
2604.000000	97.227249 
2603.000000	97.227026 
2602.000000	97.226684 
2601.000000	97.226276 
2600.000000	97.226090 
2599.000000	97.226307 
2598.000000	97.226730 
2597.000000	97.227076 
2596.000000	97.227338 
2595.000000	97.227543 
2594.000000	97.227448 
2593.000000	97.226934 
2592.000000	97.226586 
2591.000000	97.227197 
2590.000000	97.228673 
2589.000000	97.229925 
2588.000000	97.230189 
2587.000000	97.229929 
2586.000000	97.230102 
2585.000000	97.230970 
2584.000000	97.232069 
2583.000000	97.232946 
2582.000000	97.233480 
2581.000000	97.233659 
2580.000000	97.233499 
2579.000000	97.233237 
2578.000000	97.233380 
2577.000000	97.234333 
2576.000000	97.235841 
2575.000000	97.236856 
2574.000000	97.236284 
2573.000000	97.233982 
2572.000000	97.230891 
2571.000000	97.228055 
2570.000000	97.225879 
2569.000000	97.224692 
2568.000000	97.225347 
2567.000000	97.228291 
2566.000000	97.232377 
2565.000000	97.235530 
2564.000000	97.236799 
2563.000000	97.236928 
2562.000000	97.236974 
2561.000000	97.237227 
2560.000000	97.237776 
2559.000000	97.239158 
2558.000000	97.241599 
2557.000000	97.244098 
2556.000000	97.245252 
2555.000000	97.244850 
2554.000000	97.243942 
2553.000000	97.243396 
2552.000000	97.243031 
2551.000000	97.242486 
2550.000000	97.242067 
2549.000000	97.242102 
2548.000000	97.241989 
2547.000000	97.240780 
2546.000000	97.238649 
2545.000000	97.237044 
2544.000000	97.237021 
2543.000000	97.237996 
2542.000000	97.238573 
2541.000000	97.238335 
2540.000000	97.238107 
2539.000000	97.238518 
2538.000000	97.239040 
2537.000000	97.238811 
2536.000000	97.237846 
2535.000000	97.236918 
2534.000000	97.236500 
2533.000000	97.236384 
2532.000000	97.236325 
2531.000000	97.236459 
2530.000000	97.236867 
2529.000000	97.237135 
2528.000000	97.236761 
2527.000000	97.235854 
2526.000000	97.235177 
2525.000000	97.235374 
2524.000000	97.236364 
2523.000000	97.237465 
2522.000000	97.238060 
2521.000000	97.238116 
2520.000000	97.238039 
2519.000000	97.238193 
2518.000000	97.238616 
2517.000000	97.239064 
2516.000000	97.239203 
2515.000000	97.238805 
2514.000000	97.237983 
2513.000000	97.237293 
2512.000000	97.237363 
2511.000000	97.238378 
2510.000000	97.239986 
2509.000000	97.241664 
2508.000000	97.243105 
2507.000000	97.244154 
2506.000000	97.244733 
2505.000000	97.245050 
2504.000000	97.245604 
2503.000000	97.246605 
2502.000000	97.247520 
2501.000000	97.247643 
2500.000000	97.247005 
2499.000000	97.246337 
2498.000000	97.246152 
2497.000000	97.246294 
2496.000000	97.246549 
2495.000000	97.247158 
2494.000000	97.248373 
2493.000000	97.249835 
2492.000000	97.250906 
2491.000000	97.251520 
2490.000000	97.252248 
2489.000000	97.253388 
2488.000000	97.254367 
2487.000000	97.254411 
2486.000000	97.253496 
2485.000000	97.252420 
2484.000000	97.252052 
2483.000000	97.252623 
2482.000000	97.253664 
2481.000000	97.254405 
2480.000000	97.254398 
2479.000000	97.253828 
2478.000000	97.253274 
2477.000000	97.253123 
2476.000000	97.253412 
2475.000000	97.254171 
2474.000000	97.255478 
2473.000000	97.256859 
2472.000000	97.257045 
2471.000000	97.254982 
2470.000000	97.251035 
2469.000000	97.247019 
2468.000000	97.244718 
2467.000000	97.244512 
2466.000000	97.245537 
2465.000000	97.246672 
2464.000000	97.247334 
2463.000000	97.247647 
2462.000000	97.248177 
2461.000000	97.249385 
2460.000000	97.251040 
2459.000000	97.252261 
2458.000000	97.252281 
2457.000000	97.251055 
2456.000000	97.249020 
2455.000000	97.246629 
2454.000000	97.244290 
2453.000000	97.242341 
2452.000000	97.240741 
2451.000000	97.239247 
2450.000000	97.238303 
2449.000000	97.239135 
2448.000000	97.242163 
2447.000000	97.245666 
2446.000000	97.246979 
2445.000000	97.245095 
2444.000000	97.241436 
2443.000000	97.238266 
2442.000000	97.236959 
2441.000000	97.237702 
2440.000000	97.239902 
2439.000000	97.242655 
2438.000000	97.245555 
2437.000000	97.249152 
2436.000000	97.253963 
2435.000000	97.259111 
2434.000000	97.262744 
2433.000000	97.263932 
2432.000000	97.263447 
2431.000000	97.262757 
2430.000000	97.263020 
2429.000000	97.264987 
2428.000000	97.268773 
2427.000000	97.273212 
2426.000000	97.276294 
2425.000000	97.276819 
2424.000000	97.275258 
2423.000000	97.272925 
2422.000000	97.270964 
2421.000000	97.270343 
2420.000000	97.271902 
2419.000000	97.275690 
2418.000000	97.280417 
2417.000000	97.284716 
2416.000000	97.288289 
2415.000000	97.291086 
2414.000000	97.292489 
2413.000000	97.292370 
2412.000000	97.291977 
2411.000000	97.292386 
2410.000000	97.293082 
2409.000000	97.293333 
2408.000000	97.293845 
2407.000000	97.295558 
2406.000000	97.297603 
2405.000000	97.298086 
2404.000000	97.296521 
2403.000000	97.294137 
2402.000000	97.292248 
2401.000000	97.291758 
2400.000000	97.293740 
2399.000000	97.298704 
2398.000000	97.305292 
2397.000000	97.311186 
2396.000000	97.315376 
2395.000000	97.318321 
2394.000000	97.320110 
2393.000000	97.320145 
2392.000000	97.318731 
2391.000000	97.317250 
2390.000000	97.316187 
2389.000000	97.314343 
2388.000000	97.310606 
2387.000000	97.305376 
2386.000000	97.299825 
2385.000000	97.294916 
2384.000000	97.291705 
2383.000000	97.291723 
2382.000000	97.296728 
2381.000000	97.308647 
2380.000000	97.329417 
2379.000000	97.358721 
2378.000000	97.390499 
2377.000000	97.413777 
2376.000000	97.419833 
2375.000000	97.408107 
2374.000000	97.385171 
2373.000000	97.358921 
2372.000000	97.335054 
2371.000000	97.318290 
2370.000000	97.312506 
2369.000000	97.316972 
2368.000000	97.324559 
2367.000000	97.327227 
2366.000000	97.323733 
2365.000000	97.319383 
2364.000000	97.317825 
2363.000000	97.316070 
2362.000000	97.310816 
2361.000000	97.304241 
2360.000000	97.298598 
2359.000000	97.292869 
2358.000000	97.287472 
2357.000000	97.286734 
2356.000000	97.292501 
2355.000000	97.298421 
2354.000000	97.300830 
2353.000000	97.299970 
2352.000000	97.297771 
2351.000000	97.294192 
2350.000000	97.287458 
2349.000000	97.279540 
2348.000000	97.274166 
2347.000000	97.273316 
2346.000000	97.269366 
2345.000000	97.253282 
2344.000000	97.230741 
2343.000000	97.213420 
2342.000000	97.212828 
2341.000000	97.229458 
2340.000000	97.254336 
2339.000000	97.275175 
2338.000000	97.287146 
2337.000000	97.294545 
2336.000000	97.299296 
2335.000000	97.300200 
2334.000000	97.296146 
2333.000000	97.290590 
2332.000000	97.282193 
2331.000000	97.268964 
2330.000000	97.244571 
2329.000000	97.212226 
2328.000000	97.173303 
2327.000000	97.136328 
2326.000000	97.105164 
2325.000000	97.082555 
2324.000000	97.069586 
2323.000000	97.067544 
2322.000000	97.076484 
2321.000000	97.090450 
2320.000000	97.102369 
2319.000000	97.111675 
2318.000000	97.120292 
2317.000000	97.131050 
2316.000000	97.140797 
2315.000000	97.149105 
2314.000000	97.151902 
2313.000000	97.149198 
2312.000000	97.139377 
2311.000000	97.127878 
2310.000000	97.116643 
2309.000000	97.107116 
2308.000000	97.097394 
2307.000000	97.091675 
2306.000000	97.092567 
2305.000000	97.098677 
2304.000000	97.102447 
2303.000000	97.101112 
2302.000000	97.096354 
2301.000000	97.092765 
2300.000000	97.090377 
2299.000000	97.089282 
2298.000000	97.088156 
2297.000000	97.087840 
2296.000000	97.087550 
2295.000000	97.088709 
2294.000000	97.091873 
2293.000000	97.097146 
2292.000000	97.101984 
2291.000000	97.104689 
2290.000000	97.105793 
2289.000000	97.107846 
2288.000000	97.112972 
2287.000000	97.120773 
2286.000000	97.128654 
2285.000000	97.133834 
2284.000000	97.136632 
2283.000000	97.139523 
2282.000000	97.144123 
2281.000000	97.149058 
2280.000000	97.152380 
2279.000000	97.153645 
2278.000000	97.153516 
2277.000000	97.152246 
2276.000000	97.150059 
2275.000000	97.148320 
2274.000000	97.148743 
2273.000000	97.151849 
2272.000000	97.156412 
2271.000000	97.160574 
2270.000000	97.162783 
2269.000000	97.162719 
2268.000000	97.161796 
2267.000000	97.162233 
2266.000000	97.164430 
2265.000000	97.166234 
2264.000000	97.165433 
2263.000000	97.162233 
2262.000000	97.158587 
2261.000000	97.155833 
2260.000000	97.154252 
2259.000000	97.153912 
2258.000000	97.154959 
2257.000000	97.157181 
2256.000000	97.160215 
2255.000000	97.163707 
2254.000000	97.166777 
2253.000000	97.168005 
2252.000000	97.166650 
2251.000000	97.163555 
2250.000000	97.160185 
2249.000000	97.157287 
2248.000000	97.155026 
2247.000000	97.153717 
2246.000000	97.153497 
2245.000000	97.153713 
2244.000000	97.153365 
2243.000000	97.152199 
2242.000000	97.150782 
2241.000000	97.149689 
2240.000000	97.148947 
2239.000000	97.148260 
2238.000000	97.147416 
2237.000000	97.146408 
2236.000000	97.145307 
2235.000000	97.144171 
2234.000000	97.143016 
2233.000000	97.141846 
2232.000000	97.140672 
2231.000000	97.139487 
2230.000000	97.138251 
2229.000000	97.136919 
2228.000000	97.135486 
2227.000000	97.133975 
2226.000000	97.132396 
2225.000000	97.130743 
2224.000000	97.129013 
2223.000000	97.127223 
2222.000000	97.125419 
2221.000000	97.123642 
2220.000000	97.121900 
2219.000000	97.120173 
2218.000000	97.118439 
2217.000000	97.116697 
2216.000000	97.114954 
2215.000000	97.113207 
2214.000000	97.111437 
2213.000000	97.109629 
2212.000000	97.107783 
2211.000000	97.105925 
2210.000000	97.104091 
2209.000000	97.102295 
2208.000000	97.100516 
2207.000000	97.098713 
2206.000000	97.096852 
2205.000000	97.094881 
2204.000000	97.092842 
2203.000000	97.091307 
2202.000000	97.090852 
2201.000000	97.091067 
2200.000000	97.090445 
2199.000000	97.087618 
2198.000000	97.083148 
2197.000000	97.079541 
2196.000000	97.078206 
2195.000000	97.077120 
2194.000000	97.073191 
2193.000000	97.066689 
2192.000000	97.061377 
2191.000000	97.059721 
2190.000000	97.059972 
2189.000000	97.059004 
2188.000000	97.056515 
2187.000000	97.054334 
2186.000000	97.052241 
2185.000000	97.047482 
2184.000000	97.040072 
2183.000000	97.036266 
2182.000000	97.042666 
2181.000000	97.056588 
2180.000000	97.066018 
2179.000000	97.062728 
2178.000000	97.052398 
2177.000000	97.048459 
2176.000000	97.056569 
2175.000000	97.069115 
2174.000000	97.074911 
2173.000000	97.070802 
2172.000000	97.062280 
2171.000000	97.056216 
2170.000000	97.055159 
2169.000000	97.056367 
2168.000000	97.054195 
2167.000000	97.045034 
2166.000000	97.031189 
2165.000000	97.018339 
2164.000000	97.008751 
2163.000000	97.000621 
2162.000000	96.995824 
2161.000000	97.003368 
2160.000000	97.030223 
2159.000000	97.071227 
2158.000000	97.112327 
2157.000000	97.143977 
2156.000000	97.166153 
2155.000000	97.181581 
2154.000000	97.191479 
2153.000000	97.198068 
2152.000000	97.204834 
2151.000000	97.211485 
2150.000000	97.212689 
2149.000000	97.205324 
2148.000000	97.194962 
2147.000000	97.191349 
2146.000000	97.197650 
2145.000000	97.207339 
2144.000000	97.212300 
2143.000000	97.211439 
2142.000000	97.209746 
2141.000000	97.211187 
2140.000000	97.215433 
2139.000000	97.221486 
2138.000000	97.231404 
2137.000000	97.247756 
2136.000000	97.267803 
2135.000000	97.282974 
2134.000000	97.286035 
2133.000000	97.278663 
2132.000000	97.270778 
2131.000000	97.271238 
2130.000000	97.279735 
2129.000000	97.288189 
2128.000000	97.289556 
2127.000000	97.284451 
2126.000000	97.279133 
2125.000000	97.278179 
2124.000000	97.280311 
2123.000000	97.281186 
2122.000000	97.278348 
2121.000000	97.272521 
2120.000000	97.265377 
2119.000000	97.257831 
2118.000000	97.250531 
2117.000000	97.244342 
2116.000000	97.239245 
2115.000000	97.233798 
2114.000000	97.227033 
2113.000000	97.220629 
2112.000000	97.217921 
2111.000000	97.220413 
2110.000000	97.226081 
2109.000000	97.231438 
2108.000000	97.234633 
2107.000000	97.235955 
2106.000000	97.236251 
2105.000000	97.236195 
2104.000000	97.236728 
2103.000000	97.238386 
2102.000000	97.239660 
2101.000000	97.237571 
2100.000000	97.231193 
2099.000000	97.224157 
2098.000000	97.222144 
2097.000000	97.227570 
2096.000000	97.237641 
2095.000000	97.247033 
2094.000000	97.252213 
2093.000000	97.252856 
2092.000000	97.250174 
2091.000000	97.245549 
2090.000000	97.240614 
2089.000000	97.237268 
2088.000000	97.236646 
2087.000000	97.238111 
2086.000000	97.239695 
2085.000000	97.239733 
2084.000000	97.238081 
2083.000000	97.235785 
2082.000000	97.233940 
2081.000000	97.233053 
2080.000000	97.233190 
2079.000000	97.234208 
2078.000000	97.235547 
2077.000000	97.236194 
2076.000000	97.235369 
2075.000000	97.233189 
2074.000000	97.230565 
2073.000000	97.228230 
2072.000000	97.226126 
2071.000000	97.223939 
2070.000000	97.221726 
2069.000000	97.219838 
2068.000000	97.218453 
2067.000000	97.217334 
2066.000000	97.215990 
2065.000000	97.214039 
2064.000000	97.211503 
2063.000000	97.208777 
2062.000000	97.206452 
2061.000000	97.204898 
2060.000000	97.203959 
2059.000000	97.203187 
2058.000000	97.202146 
2057.000000	97.200734 
2056.000000	97.199096 
2055.000000	97.197368 
2054.000000	97.195626 
2053.000000	97.193892 
2052.000000	97.192169 
2051.000000	97.190477 
2050.000000	97.188851 
2049.000000	97.187308 
2048.000000	97.185854 
2047.000000	97.184489 
2046.000000	97.183216 
2045.000000	97.182033 
2044.000000	97.180937 
2043.000000	97.179926 
2042.000000	97.179003 
2041.000000	97.178169 
2040.000000	97.177424 
2039.000000	97.176760 
2038.000000	97.176155 
2037.000000	97.175579 
2036.000000	97.174999 
2035.000000	97.174410 
2034.000000	97.173837 
2033.000000	97.173321 
2032.000000	97.172886 
2031.000000	97.172520 
2030.000000	97.172186 
2029.000000	97.171850 
2028.000000	97.171500 
2027.000000	97.171134 
2026.000000	97.170739 
2025.000000	97.170293 
2024.000000	97.169784 
2023.000000	97.169271 
2022.000000	97.168984 
2021.000000	97.169134 
2020.000000	97.169369 
2019.000000	97.168761 
2018.000000	97.166556 
2017.000000	97.163220 
2016.000000	97.160440 
2015.000000	97.159704 
2014.000000	97.160757 
2013.000000	97.161209 
2012.000000	97.158861 
2011.000000	97.154515 
2010.000000	97.151728 
2009.000000	97.152904 
2008.000000	97.156584 
2007.000000	97.159523 
2006.000000	97.160971 
2005.000000	97.162991 
2004.000000	97.167076 
2003.000000	97.172360 
2002.000000	97.177158 
2001.000000	97.180267 
2000.000000	97.180365 
1999.000000	97.175789 
1998.000000	97.166017 
1997.000000	97.153090 
1996.000000	97.140950 
1995.000000	97.133099 
1994.000000	97.130728 
1993.000000	97.132144 
1992.000000	97.133649 
1991.000000	97.132775 
1990.000000	97.131272 
1989.000000	97.133230 
1988.000000	97.139434 
1987.000000	97.144669 
1986.000000	97.141997 
1985.000000	97.129606 
1984.000000	97.112547 
1983.000000	97.098077 
1982.000000	97.090393 
1981.000000	97.089793 
1980.000000	97.095017 
1979.000000	97.104865 
1978.000000	97.117684 
1977.000000	97.130591 
1976.000000	97.140037 
1975.000000	97.143995 
1974.000000	97.144222 
1973.000000	97.146033 
1972.000000	97.153989 
1971.000000	97.166983 
1970.000000	97.178489 
1969.000000	97.182425 
1968.000000	97.178387 
1967.000000	97.171063 
1966.000000	97.165865 
1965.000000	97.165656 
1964.000000	97.171167 
1963.000000	97.182381 
1962.000000	97.197956 
1961.000000	97.213604 
1960.000000	97.223151 
1959.000000	97.223183 
1958.000000	97.216528 
1957.000000	97.210480 
1956.000000	97.209634 
1955.000000	97.211661 
1954.000000	97.211601 
1953.000000	97.208619 
1952.000000	97.206344 
1951.000000	97.207452 
1950.000000	97.211113 
1949.000000	97.215641 
1948.000000	97.220779 
1947.000000	97.226373 
1946.000000	97.230902 
1945.000000	97.232918 
1944.000000	97.232678 
1943.000000	97.231444 
1942.000000	97.230381 
1941.000000	97.230534 
1940.000000	97.232650 
1939.000000	97.236226 
1938.000000	97.239784 
1937.000000	97.242733 
1936.000000	97.246006 
1935.000000	97.250198 
1934.000000	97.254081 
1933.000000	97.256244 
1932.000000	97.257254 
1931.000000	97.258592 
1930.000000	97.260224 
1929.000000	97.260952 
1928.000000	97.261119 
1927.000000	97.262462 
1926.000000	97.265158 
1925.000000	97.267389 
1924.000000	97.268230 
1923.000000	97.269029 
1922.000000	97.270737 
1921.000000	97.271950 
1920.000000	97.271399 
1919.000000	97.269937 
1918.000000	97.268738 
1917.000000	97.267382 
1916.000000	97.265444 
1915.000000	97.264181 
1914.000000	97.264494 
1913.000000	97.265276 
1912.000000	97.264951 
1911.000000	97.263794 
1910.000000	97.263376 
1909.000000	97.264356 
1908.000000	97.266422 
1907.000000	97.269231 
1906.000000	97.271980 
1905.000000	97.272967 
1904.000000	97.271180 
1903.000000	97.268183 
1902.000000	97.266554 
1901.000000	97.266621 
1900.000000	97.266772 
1899.000000	97.266220 
1898.000000	97.265724 
1897.000000	97.265844 
1896.000000	97.265854 
1895.000000	97.264981 
1894.000000	97.263387 
1893.000000	97.261449 
1892.000000	97.259175 
1891.000000	97.256740 
1890.000000	97.254887 
1889.000000	97.254248 
1888.000000	97.254737 
1887.000000	97.256056 
1886.000000	97.257889 
1885.000000	97.259392 
1884.000000	97.259515 
1883.000000	97.258263 
1882.000000	97.257033 
1881.000000	97.257238 
1880.000000	97.258951 
1879.000000	97.260934 
1878.000000	97.261901 
1877.000000	97.261940 
1876.000000	97.262338 
1875.000000	97.264062 
1874.000000	97.266755 
1873.000000	97.269184 
1872.000000	97.270569 
1871.000000	97.270999 
1870.000000	97.270778 
1869.000000	97.270212 
1868.000000	97.270085 
1867.000000	97.271351 
1866.000000	97.273733 
1865.000000	97.275425 
1864.000000	97.275196 
1863.000000	97.274234 
1862.000000	97.274833 
1861.000000	97.277498 
1860.000000	97.280654 
1859.000000	97.283117 
1858.000000	97.285357 
1857.000000	97.287909 
1856.000000	97.290360 
1855.000000	97.292231 
1854.000000	97.293532 
1853.000000	97.294312 
1852.000000	97.295215 
1851.000000	97.297716 
1850.000000	97.302349 
1849.000000	97.307553 
1848.000000	97.311158 
1847.000000	97.313070 
1846.000000	97.315020 
1845.000000	97.318083 
1844.000000	97.321585 
1843.000000	97.324689 
1842.000000	97.327829 
1841.000000	97.331553 
1840.000000	97.335798 
1839.000000	97.340099 
1838.000000	97.343662 
1837.000000	97.345345 
1836.000000	97.344749 
1835.000000	97.343517 
1834.000000	97.343512 
1833.000000	97.344257 
1832.000000	97.344099 
1831.000000	97.342618 
1830.000000	97.341508 
1829.000000	97.342902 
1828.000000	97.346757 
1827.000000	97.351316 
1826.000000	97.354643 
1825.000000	97.355874 
1824.000000	97.355508 
1823.000000	97.354803 
1822.000000	97.355004 
1821.000000	97.356413 
1820.000000	97.358345 
1819.000000	97.360129 
1818.000000	97.362059 
1817.000000	97.364102 
1816.000000	97.364787 
1815.000000	97.363822 
1814.000000	97.363327 
1813.000000	97.365392 
1812.000000	97.369036 
1811.000000	97.370822 
1810.000000	97.369679 
1809.000000	97.367685 
1808.000000	97.366542 
1807.000000	97.366508 
1806.000000	97.367640 
1805.000000	97.369596 
1804.000000	97.370850 
1803.000000	97.370126 
1802.000000	97.367736 
1801.000000	97.365146 
1800.000000	97.362609 
1799.000000	97.359354 
1798.000000	97.356485 
1797.000000	97.355599 
1796.000000	97.356671 
1795.000000	97.359053 
1794.000000	97.362075 
1793.000000	97.364257 
1792.000000	97.363738 
1791.000000	97.361321 
1790.000000	97.361019 
1789.000000	97.365086 
1788.000000	97.371779 
1787.000000	97.377774 
1786.000000	97.381544 
1785.000000	97.383800 
1784.000000	97.385279 
1783.000000	97.386204 
1782.000000	97.386449 
1781.000000	97.386430 
1780.000000	97.387384 
1779.000000	97.390153 
1778.000000	97.394978 
1777.000000	97.400829 
1776.000000	97.405938 
1775.000000	97.409134 
1774.000000	97.410370 
1773.000000	97.411148 
1772.000000	97.413103 
1771.000000	97.415395 
1770.000000	97.416822 
1769.000000	97.417868 
1768.000000	97.419600 
1767.000000	97.422307 
1766.000000	97.425254 
1765.000000	97.427869 
1764.000000	97.430094 
1763.000000	97.431856 
1762.000000	97.433126 
1761.000000	97.434447 
1760.000000	97.436377 
1759.000000	97.438885 
1758.000000	97.441520 
1757.000000	97.443740 
1756.000000	97.445547 
1755.000000	97.446898 
1754.000000	97.447412 
1753.000000	97.446942 
1752.000000	97.446284 
1751.000000	97.446985 
1750.000000	97.449646 
1749.000000	97.453243 
1748.000000	97.456279 
1747.000000	97.458213 
1746.000000	97.459243 
1745.000000	97.460153 
1744.000000	97.461851 
1743.000000	97.464316 
1742.000000	97.466621 
1741.000000	97.468139 
1740.000000	97.468989 
1739.000000	97.469549 
1738.000000	97.470074 
1737.000000	97.470827 
1736.000000	97.471933 
1735.000000	97.473138 
1734.000000	97.473848 
1733.000000	97.473075 
1732.000000	97.471472 
1731.000000	97.470971 
1730.000000	97.472361 
1729.000000	97.474626 
1728.000000	97.476323 
1727.000000	97.476919 
1726.000000	97.476590 
1725.000000	97.475803 
1724.000000	97.474894 
1723.000000	97.474088 
1722.000000	97.473806 
1721.000000	97.474047 
1720.000000	97.474186 
1719.000000	97.473480 
1718.000000	97.472097 
1717.000000	97.470520 
1716.000000	97.467875 
1715.000000	97.464156 
1714.000000	97.461077 
1713.000000	97.459613 
1712.000000	97.459147 
1711.000000	97.458981 
1710.000000	97.458698 
1709.000000	97.457628 
1708.000000	97.455386 
1707.000000	97.452713 
1706.000000	97.450867 
1705.000000	97.449721 
1704.000000	97.447631 
1703.000000	97.443969 
1702.000000	97.439475 
1701.000000	97.435867 
1700.000000	97.434102 
1699.000000	97.432530 
1698.000000	97.430785 
1697.000000	97.429469 
1696.000000	97.428255 
1695.000000	97.426481 
1694.000000	97.424078 
1693.000000	97.421394 
1692.000000	97.418561 
1691.000000	97.415638 
1690.000000	97.412819 
1689.000000	97.410237 
1688.000000	97.407853 
1687.000000	97.405485 
1686.000000	97.403029 
1685.000000	97.400654 
1684.000000	97.398362 
1683.000000	97.395867 
1682.000000	97.393225 
1681.000000	97.390562 
1680.000000	97.388007 
1679.000000	97.385580 
1678.000000	97.383162 
1677.000000	97.380656 
1676.000000	97.378174 
1675.000000	97.375886 
1674.000000	97.373489 
1673.000000	97.370695 
1672.000000	97.367763 
1671.000000	97.365209 
1670.000000	97.363195 
1669.000000	97.361140 
1668.000000	97.358939 
1667.000000	97.357214 
1666.000000	97.355873 
1665.000000	97.354255 
1664.000000	97.352137 
1663.000000	97.350075 
1662.000000	97.348056 
1661.000000	97.345197 
1660.000000	97.342004 
1659.000000	97.339794 
1658.000000	97.338550 
1657.000000	97.336964 
1656.000000	97.333625 
1655.000000	97.327596 
1654.000000	97.320383 
1653.000000	97.317324 
1652.000000	97.316421 
1651.000000	97.315276 
1650.000000	97.314025 
1649.000000	97.313182 
1648.000000	97.312926 
1647.000000	97.313715 
1646.000000	97.314288 
1645.000000	97.312830 
1644.000000	97.309791 
1643.000000	97.307040 
1642.000000	97.305964 
1641.000000	97.306235 
1640.000000	97.306855 
1639.000000	97.306353 
1638.000000	97.303720 
1637.000000	97.299689 
1636.000000	97.297481 
1635.000000	97.298859 
1634.000000	97.300815 
1633.000000	97.300722 
1632.000000	97.298325 
1631.000000	97.295589 
1630.000000	97.294528 
1629.000000	97.295306 
1628.000000	97.297030 
1627.000000	97.299584 
1626.000000	97.302474 
1625.000000	97.304414 
1624.000000	97.305747 
1623.000000	97.308581 
1622.000000	97.312830 
1621.000000	97.315850 
1620.000000	97.316953 
1619.000000	97.317562 
1618.000000	97.318919 
1617.000000	97.320274 
1616.000000	97.320202 
1615.000000	97.320131 
1614.000000	97.321686 
1613.000000	97.323301 
1612.000000	97.323235 
1611.000000	97.322671 
1610.000000	97.323988 
1609.000000	97.328072 
1608.000000	97.334724 
1607.000000	97.342539 
1606.000000	97.348253 
1605.000000	97.350182 
1604.000000	97.351275 
1603.000000	97.354983 
1602.000000	97.361160 
1601.000000	97.367449 
1600.000000	97.373129 
1599.000000	97.378594 
1598.000000	97.382950 
1597.000000	97.385306 
1596.000000	97.386823 
1595.000000	97.389668 
1594.000000	97.394187 
1593.000000	97.398604 
1592.000000	97.401694 
1591.000000	97.404066 
1590.000000	97.406767 
1589.000000	97.410343 
1588.000000	97.415490 
1587.000000	97.422405 
1586.000000	97.429048 
1585.000000	97.432197 
1584.000000	97.432059 
1583.000000	97.432143 
1582.000000	97.434138 
1581.000000	97.436984 
1580.000000	97.439849 
1579.000000	97.442810 
1578.000000	97.445790 
1577.000000	97.449829 
1576.000000	97.456140 
1575.000000	97.462128 
1574.000000	97.464297 
1573.000000	97.463253 
1572.000000	97.462805 
1571.000000	97.466733 
1570.000000	97.474009 
1569.000000	97.477312 
1568.000000	97.474193 
1567.000000	97.469046 
1566.000000	97.464955 
1565.000000	97.462591 
1564.000000	97.462783 
1563.000000	97.463419 
1562.000000	97.460381 
1561.000000	97.448359 
1560.000000	97.435523 
1559.000000	97.438860 
1558.000000	97.449909 
1557.000000	97.453853 
1556.000000	97.452957 
1555.000000	97.451133 
1554.000000	97.448224 
1553.000000	97.443702 
1552.000000	97.438238 
1551.000000	97.431540 
1550.000000	97.424174 
1549.000000	97.418069 
1548.000000	97.413634 
1547.000000	97.408405 
1546.000000	97.398432 
1545.000000	97.383099 
1544.000000	97.367110 
1543.000000	97.354818 
1542.000000	97.347322 
1541.000000	97.344916 
1540.000000	97.343677 
1539.000000	97.337727 
1538.000000	97.326466 
1537.000000	97.312380 
1536.000000	97.297293 
1535.000000	97.283695 
1534.000000	97.274385 
1533.000000	97.269115 
1532.000000	97.263573 
1531.000000	97.255127 
1530.000000	97.245148 
1529.000000	97.235000 
1528.000000	97.223819 
1527.000000	97.210955 
1526.000000	97.197601 
1525.000000	97.185685 
1524.000000	97.175804 
1523.000000	97.166706 
1522.000000	97.156383 
1521.000000	97.142859 
1520.000000	97.126332 
1519.000000	97.109624 
1518.000000	97.094813 
1517.000000	97.082251 
1516.000000	97.071015 
1515.000000	97.060520 
1514.000000	97.050980 
1513.000000	97.042108 
1512.000000	97.032390 
1511.000000	97.019926 
1510.000000	97.004506 
1509.000000	96.986929 
1508.000000	96.969402 
1507.000000	96.955170 
1506.000000	96.944992 
1505.000000	96.935248 
1504.000000	96.923918 
1503.000000	96.911304 
1502.000000	96.897958 
1501.000000	96.884568 
1500.000000	96.872030 
1499.000000	96.860199 
1498.000000	96.847542 
1497.000000	96.833824 
1496.000000	96.820517 
1495.000000	96.809141 
1494.000000	96.800455 
1493.000000	96.794090 
1492.000000	96.788271 
1491.000000	96.780574 
1490.000000	96.769817 
1489.000000	96.757194 
1488.000000	96.743506 
1487.000000	96.729060 
1486.000000	96.715471 
1485.000000	96.702114 
1484.000000	96.687907 
1483.000000	96.674175 
1482.000000	96.662679 
1481.000000	96.653904 
1480.000000	96.645977 
1479.000000	96.636912 
1478.000000	96.626048 
1477.000000	96.613851 
1476.000000	96.600289 
1475.000000	96.584426 
1474.000000	96.566152 
1473.000000	96.548865 
1472.000000	96.537420 
1471.000000	96.531109 
1470.000000	96.526011 
1469.000000	96.519308 
1468.000000	96.508913 
1467.000000	96.494280 
1466.000000	96.478739 
1465.000000	96.467873 
1464.000000	96.463547 
1463.000000	96.460214 
1462.000000	96.452990 
1461.000000	96.443409 
1460.000000	96.435660 
1459.000000	96.430079 
1458.000000	96.420586 
1457.000000	96.404366 
1456.000000	96.388499 
1455.000000	96.377413 
1454.000000	96.368417 
1453.000000	96.360629 
1452.000000	96.356301 
1451.000000	96.356618 
1450.000000	96.360240 
1449.000000	96.365130 
1448.000000	96.368921 
1447.000000	96.370418 
1446.000000	96.369965 
1445.000000	96.369257 
1444.000000	96.369917 
1443.000000	96.369930 
1442.000000	96.367456 
1441.000000	96.364159 
1440.000000	96.362899 
1439.000000	96.362641 
1438.000000	96.359818 
1437.000000	96.355779 
1436.000000	96.355894 
1435.000000	96.358953 
1434.000000	96.360881 
1433.000000	96.362046 
1432.000000	96.364360 
1431.000000	96.368582 
1430.000000	96.374226 
1429.000000	96.381576 
1428.000000	96.390201 
1427.000000	96.398961 
1426.000000	96.406829 
1425.000000	96.414376 
1424.000000	96.425126 
1423.000000	96.438684 
1422.000000	96.451007 
1421.000000	96.460734 
1420.000000	96.469870 
1419.000000	96.477368 
1418.000000	96.479688 
1417.000000	96.481387 
1416.000000	96.490714 
1415.000000	96.508204 
1414.000000	96.527164 
1413.000000	96.541930 
1412.000000	96.553403 
1411.000000	96.564831 
1410.000000	96.577376 
1409.000000	96.592109 
1408.000000	96.609567 
1407.000000	96.628062 
1406.000000	96.644734 
1405.000000	96.659049 
1404.000000	96.673277 
1403.000000	96.686253 
1402.000000	96.695535 
1401.000000	96.704144 
1400.000000	96.718608 
1399.000000	96.740571 
1398.000000	96.763924 
1397.000000	96.784126 
1396.000000	96.803276 
1395.000000	96.824481 
1394.000000	96.845379 
1393.000000	96.862992 
1392.000000	96.880372 
1391.000000	96.900655 
1390.000000	96.922346 
1389.000000	96.941733 
1388.000000	96.956842 
1387.000000	96.969047 
1386.000000	96.981195 
1385.000000	96.995728 
1384.000000	97.013877 
1383.000000	97.033910 
1382.000000	97.052121 
1381.000000	97.066393 
1380.000000	97.077547 
1379.000000	97.088958 
1378.000000	97.104308 
1377.000000	97.124061 
1376.000000	97.144112 
1375.000000	97.159254 
1374.000000	97.168396 
1373.000000	97.176084 
1372.000000	97.186882 
1371.000000	97.201288 
1370.000000	97.217031 
1369.000000	97.231574 
1368.000000	97.244900 
1367.000000	97.257742 
1366.000000	97.269650 
1365.000000	97.279983 
1364.000000	97.288252 
1363.000000	97.294483 
1362.000000	97.300072 
1361.000000	97.307009 
1360.000000	97.316499 
1359.000000	97.328944 
1358.000000	97.343597 
1357.000000	97.358135 
1356.000000	97.369936 
1355.000000	97.378237 
1354.000000	97.384881 
1353.000000	97.392961 
1352.000000	97.403042 
1351.000000	97.414069 
1350.000000	97.425377 
1349.000000	97.435120 
1348.000000	97.441244 
1347.000000	97.443991 
1346.000000	97.446639 
1345.000000	97.451935 
1344.000000	97.458723 
1343.000000	97.463938 
1342.000000	97.466682 
1341.000000	97.468577 
1340.000000	97.471300 
1339.000000	97.475546 
1338.000000	97.481103 
1337.000000	97.486612 
1336.000000	97.489628 
1335.000000	97.488837 
1334.000000	97.486822 
1333.000000	97.488353 
1332.000000	97.494686 
1331.000000	97.502011 
1330.000000	97.506122 
1329.000000	97.506869 
1328.000000	97.507031 
1327.000000	97.508963 
1326.000000	97.512666 
1325.000000	97.515890 
1324.000000	97.516360 
1323.000000	97.513308 
1322.000000	97.508196 
1321.000000	97.504297 
1320.000000	97.504481 
1319.000000	97.508628 
1318.000000	97.513582 
1317.000000	97.516068 
1316.000000	97.514938 
1315.000000	97.511018 
1314.000000	97.506337 
1313.000000	97.503685 
1312.000000	97.504848 
1311.000000	97.508553 
1310.000000	97.511182 
1309.000000	97.510522 
1308.000000	97.507902 
1307.000000	97.506598 
1306.000000	97.508465 
1305.000000	97.512521 
1304.000000	97.516670 
1303.000000	97.519015 
1302.000000	97.518307 
1301.000000	97.514604 
1300.000000	97.509856 
1299.000000	97.506798 
1298.000000	97.506592 
1297.000000	97.507855 
1296.000000	97.508390 
1295.000000	97.507802 
1294.000000	97.507696 
1293.000000	97.509499 
1292.000000	97.512664 
1291.000000	97.515237 
1290.000000	97.515875 
1289.000000	97.514636 
1288.000000	97.511998 
1287.000000	97.508270 
1286.000000	97.504431 
1285.000000	97.502557 
1284.000000	97.504181 
1283.000000	97.508104 
1282.000000	97.510947 
1281.000000	97.510195 
1280.000000	97.506377 
1279.000000	97.502302 
1278.000000	97.500725 
1277.000000	97.502677 
1276.000000	97.507108 
1275.000000	97.511864 
1274.000000	97.515225 
1273.000000	97.516857 
1272.000000	97.517466 
1271.000000	97.517705 
1270.000000	97.517513 
1269.000000	97.516032 
1268.000000	97.512089 
1267.000000	97.505109 
1266.000000	97.496232 
1265.000000	97.488617 
1264.000000	97.485564 
1263.000000	97.487701 
1262.000000	97.492581 
1261.000000	97.497238 
1260.000000	97.500997 
1259.000000	97.505417 
1258.000000	97.511464 
1257.000000	97.517349 
1256.000000	97.519567 
1255.000000	97.516679 
1254.000000	97.511838 
1253.000000	97.509835 
1252.000000	97.511081 
1251.000000	97.510649 
1250.000000	97.504674 
1249.000000	97.495425 
1248.000000	97.487634 
1247.000000	97.481462 
1246.000000	97.472901 
1245.000000	97.461005 
1244.000000	97.450244 
1243.000000	97.444208 
1242.000000	97.440753 
1241.000000	97.435821 
1240.000000	97.428867 
1239.000000	97.421407 
1238.000000	97.412615 
1237.000000	97.400024 
1236.000000	97.383624 
1235.000000	97.366151 
1234.000000	97.349539 
1233.000000	97.333564 
1232.000000	97.317663 
1231.000000	97.301445 
1230.000000	97.283478 
1229.000000	97.261914 
1228.000000	97.236275 
1227.000000	97.206672 
1226.000000	97.171545 
1225.000000	97.128668 
1224.000000	97.078775 
1223.000000	97.025756 
1222.000000	96.972145 
1221.000000	96.916135 
1220.000000	96.854184 
1219.000000	96.784989 
1218.000000	96.709896 
1217.000000	96.631032 
1216.000000	96.550208 
1215.000000	96.468573 
1214.000000	96.386452 
1213.000000	96.304376 
1212.000000	96.223994 
1211.000000	96.145833 
1210.000000	96.066384 
1209.000000	95.980603 
1208.000000	95.888412 
1207.000000	95.796058 
1206.000000	95.709377 
1205.000000	95.627632 
1204.000000	95.545462 
1203.000000	95.458833 
1202.000000	95.367798 
1201.000000	95.275493 
1200.000000	95.186003 
1199.000000	95.101579 
1198.000000	95.020436 
1197.000000	94.938533 
1196.000000	94.854054 
1195.000000	94.768598 
1194.000000	94.683820 
1193.000000	94.598852 
1192.000000	94.511730 
1191.000000	94.421618 
1190.000000	94.329110 
1189.000000	94.235695 
1188.000000	94.142718 
1187.000000	94.049261 
1186.000000	93.951897 
1185.000000	93.848787 
1184.000000	93.742824 
1183.000000	93.637935 
1182.000000	93.533599 
1181.000000	93.426416 
1180.000000	93.315637 
1179.000000	93.202602 
1178.000000	93.085668 
1177.000000	92.961166 
1176.000000	92.829498 
1175.000000	92.694992 
1174.000000	92.559317 
1173.000000	92.420573 
1172.000000	92.279658 
1171.000000	92.141150 
1170.000000	92.006168 
1169.000000	91.870863 
1168.000000	91.734723 
1167.000000	91.604876 
1166.000000	91.489964 
1165.000000	91.396001 
1164.000000	91.330778 
1163.000000	91.304644 
1162.000000	91.320893 
1161.000000	91.368334 
1160.000000	91.426238 
1159.000000	91.474432 
1158.000000	91.498639 
1157.000000	91.491854 
1156.000000	91.454168 
1155.000000	91.389372 
1154.000000	91.300891 
1153.000000	91.193258 
1152.000000	91.076193 
1151.000000	90.961270 
1150.000000	90.853115 
1149.000000	90.748765 
1148.000000	90.646258 
1147.000000	90.547574 
1146.000000	90.452101 
1145.000000	90.354602 
1144.000000	90.252572 
1143.000000	90.149367 
1142.000000	90.047108 
1141.000000	89.942570 
1140.000000	89.833370 
1139.000000	89.722531 
1138.000000	89.613563 
1137.000000	89.506034 
1136.000000	89.398764 
1135.000000	89.292244 
1134.000000	89.185330 
1133.000000	89.074774 
1132.000000	88.960324 
1131.000000	88.845140 
1130.000000	88.729614 
1129.000000	88.610735 
1128.000000	88.489067 
1127.000000	88.369484 
1126.000000	88.252872 
1125.000000	88.134178 
1124.000000	88.011197 
1123.000000	87.888240 
1122.000000	87.768445 
1121.000000	87.649653 
1120.000000	87.530573 
1119.000000	87.413428 
1118.000000	87.297802 
1117.000000	87.180229 
1116.000000	87.062736 
1115.000000	86.953228 
1114.000000	86.854083 
1113.000000	86.758774 
1112.000000	86.662749 
1111.000000	86.568561 
1110.000000	86.476871 
1109.000000	86.382338 
1108.000000	86.282625 
1107.000000	86.182634 
1106.000000	86.086063 
1105.000000	85.990794 
1104.000000	85.895366 
1103.000000	85.801594 
1102.000000	85.707354 
1101.000000	85.606863 
1100.000000	85.500708 
1099.000000	85.397824 
1098.000000	85.304872 
1097.000000	85.220314 
1096.000000	85.141127 
1095.000000	85.065965 
1094.000000	84.990668 
1093.000000	84.910589 
1092.000000	84.829534 
1091.000000	84.757085 
1090.000000	84.695641 
1089.000000	84.639499 
1088.000000	84.586916 
1087.000000	84.542037 
1086.000000	84.504324 
1085.000000	84.467990 
1084.000000	84.433047 
1083.000000	84.404832 
1082.000000	84.381368 
1081.000000	84.353891 
1080.000000	84.321732 
1079.000000	84.293692 
1078.000000	84.271927 
1077.000000	84.246981 
1076.000000	84.211975 
1075.000000	84.169451 
1074.000000	84.121018 
1073.000000	84.061822 
1072.000000	83.988128 
1071.000000	83.899109 
1070.000000	83.789055 
1069.000000	83.649790 
1068.000000	83.484054 
1067.000000	83.305857 
1066.000000	83.124643 
1065.000000	82.939491 
1064.000000	82.750902 
1063.000000	82.565592 
1062.000000	82.386232 
1061.000000	82.208392 
1060.000000	82.030979 
1059.000000	81.858495 
1058.000000	81.691130 
1057.000000	81.524669 
1056.000000	81.361228 
1055.000000	81.206526 
1054.000000	81.054976 
1053.000000	80.892304 
1052.000000	80.716111 
1051.000000	80.538573 
1050.000000	80.364977 
1049.000000	80.187130 
1048.000000	80.002196 
1047.000000	79.818662 
1046.000000	79.639109 
1045.000000	79.455286 
1044.000000	79.264306 
1043.000000	79.073803 
1042.000000	78.887722 
1041.000000	78.701949 
1040.000000	78.517059 
1039.000000	78.340511 
1038.000000	78.173379 
1037.000000	78.010103 
1036.000000	77.853576 
1035.000000	77.714312 
1034.000000	77.592755 
1033.000000	77.479494 
1032.000000	77.375053 
1031.000000	77.291404 
1030.000000	77.230784 
1029.000000	77.180909 
1028.000000	77.134351 
1027.000000	77.094948 
1026.000000	77.062066 
1025.000000	77.027212 
1024.000000	76.990116 
1023.000000	76.960055 
1022.000000	76.937240 
1021.000000	76.910341 
1020.000000	76.875852 
1019.000000	76.842461 
1018.000000	76.813294 
1017.000000	76.781942 
1016.000000	76.749241 
1015.000000	76.725602 
1014.000000	76.712651 
1013.000000	76.700002 
1012.000000	76.683830 
1011.000000	76.671674 
1010.000000	76.666217 
1009.000000	76.662249 
1008.000000	76.662502 
1007.000000	76.678229 
1006.000000	76.710886 
1005.000000	76.750852 
1004.000000	76.796220 
1003.000000	76.853925 
1002.000000	76.919925 
1001.000000	76.978854 
1000.000000	77.028256 
999.000000	 77.084059 
998.000000	 77.156610 
997.000000	 77.239234 
996.000000	 77.324849 
995.000000	 77.415868 
994.000000	 77.512258 
993.000000	 77.607179 
992.000000	 77.700461 
991.000000	 77.801045 
990.000000	 77.911633 
989.000000	 78.025911 
988.000000	 78.143576 
987.000000	 78.271724 
986.000000	 78.408759 
985.000000	 78.544492 
984.000000	 78.679738 
983.000000	 78.828256 
982.000000	 78.994739 
981.000000	 79.167906 
980.000000	 79.339989 
979.000000	 79.516550 
978.000000	 79.701887 
977.000000	 79.891235 
976.000000	 80.083284 
975.000000	 80.285118 
974.000000	 80.498355 
973.000000	 80.713863 
972.000000	 80.925752 
971.000000	 81.138400 
970.000000	 81.355438 
969.000000	 81.574011 
968.000000	 81.793295 
967.000000	 82.016284 
966.000000	 82.239735 
965.000000	 82.454381 
964.000000	 82.658376 
963.000000	 82.859466 
962.000000	 83.061952 
961.000000	 83.263005 
960.000000	 83.463049 
959.000000	 83.666821 
958.000000	 83.871584 
957.000000	 84.066708 
956.000000	 84.248047 
955.000000	 84.421995 
954.000000	 84.593607 
953.000000	 84.761366 
952.000000	 84.925005 
951.000000	 85.087016 
950.000000	 85.244872 
949.000000	 85.393022 
948.000000	 85.533727 
947.000000	 85.674621 
946.000000	 85.814725 
945.000000	 85.945139 
944.000000	 86.064783 
943.000000	 86.182797 
942.000000	 86.303077 
941.000000	 86.418874 
940.000000	 86.526227 
939.000000	 86.631012 
938.000000	 86.738874 
937.000000	 86.848488 
936.000000	 86.958406 
935.000000	 87.070664 
934.000000	 87.184269 
933.000000	 87.294464 
932.000000	 87.401382 
931.000000	 87.510701 
930.000000	 87.623441 
929.000000	 87.733813 
928.000000	 87.839168 
927.000000	 87.943419 
926.000000	 88.048616 
925.000000	 88.151039 
924.000000	 88.247248 
923.000000	 88.337091 
922.000000	 88.420846 
921.000000	 88.500931 
920.000000	 88.585277 
919.000000	 88.680014 
918.000000	 88.779046 
917.000000	 88.869469 
916.000000	 88.947194 
915.000000	 89.019708 
914.000000	 89.095515 
913.000000	 89.180015 
912.000000	 89.279410 
911.000000	 89.397376 
910.000000	 89.528037 
909.000000	 89.662195 
908.000000	 89.799700 
907.000000	 89.946487 
906.000000	 90.102532 
905.000000	 90.263756 
904.000000	 90.432469 
903.000000	 90.612915 
902.000000	 90.798373 
901.000000	 90.976238 
900.000000	 91.145576 
899.000000	 91.316940 
898.000000	 91.494755 
897.000000	 91.671781 
896.000000	 91.840936 
895.000000	 92.000579 
894.000000	 92.148079 
893.000000	 92.280669 
892.000000	 92.404108 
891.000000	 92.529043 
890.000000	 92.656046 
889.000000	 92.773284 
888.000000	 92.869792 
887.000000	 92.942631 
886.000000	 92.993153 
885.000000	 93.027357 
884.000000	 93.058674 
883.000000	 93.097324 
882.000000	 93.136430 
881.000000	 93.162657 
880.000000	 93.181982 
879.000000	 93.219449 
878.000000	 93.289231 
877.000000	 93.380260 
876.000000	 93.477102 
875.000000	 93.581010 
874.000000	 93.703399 
873.000000	 93.851183 
872.000000	 94.025041 
871.000000	 94.219889 
870.000000	 94.420164 
869.000000	 94.605215 
868.000000	 94.766244 
867.000000	 94.911356 
866.000000	 95.051826 
865.000000	 95.191832 
864.000000	 95.333345 
863.000000	 95.479657 
862.000000	 95.628091 
861.000000	 95.767982 
860.000000	 95.892427 
859.000000	 96.006057 
858.000000	 96.116307 
857.000000	 96.222448 
856.000000	 96.317940 
855.000000	 96.399260 
854.000000	 96.468650 
853.000000	 96.531548 
852.000000	 96.593557 
851.000000	 96.656907 
850.000000	 96.719679 
849.000000	 96.782031 
848.000000	 96.850656 
847.000000	 96.930021 
846.000000	 97.011062 
845.000000	 97.077835 
844.000000	 97.125478 
843.000000	 97.162940 
842.000000	 97.198203 
841.000000	 97.230548 
840.000000	 97.258110 
839.000000	 97.281859 
838.000000	 97.298994 
837.000000	 97.303009 
836.000000	 97.295333 
835.000000	 97.288347 
834.000000	 97.291454 
833.000000	 97.301421 
832.000000	 97.311374 
831.000000	 97.321512 
830.000000	 97.334988 
829.000000	 97.350718 
828.000000	 97.367999 
827.000000	 97.392376 
826.000000	 97.428189 
825.000000	 97.468866 
824.000000	 97.502449 
823.000000	 97.524397 
822.000000	 97.538787 
821.000000	 97.549246 
820.000000	 97.553742 
819.000000	 97.546162 
818.000000	 97.519618 
817.000000	 97.469740 
816.000000	 97.396314 
815.000000	 97.300310 
814.000000	 97.179092 
813.000000	 97.025952 
812.000000	 96.832486 
811.000000	 96.587907 
810.000000	 96.278749 
809.000000	 95.896337 
808.000000	 95.445778 
807.000000	 94.943031 
806.000000	 94.403698 
805.000000	 93.841526 
804.000000	 93.277646 
803.000000	 92.740284 
802.000000	 92.251360 
801.000000	 91.822638 
800.000000	 91.466840 
799.000000	 91.199109 
798.000000	 91.022846 
797.000000	 90.926796 
796.000000	 90.899771 
795.000000	 90.934947 
794.000000	 91.017429 
793.000000	 91.122996 
792.000000	 91.232736 
791.000000	 91.334912 
790.000000	 91.411287 
789.000000	 91.439570 
788.000000	 91.414682 
787.000000	 91.352067 
786.000000	 91.263738 
785.000000	 91.144144 
784.000000	 90.985357 
783.000000	 90.792594 
782.000000	 90.578558 
781.000000	 90.357638 
780.000000	 90.154853 
779.000000	 90.006747 
778.000000	 89.941476 
777.000000	 89.964733 
776.000000	 90.067712 
775.000000	 90.234417 
774.000000	 90.436606 
773.000000	 90.639841 
772.000000	 90.826470 
771.000000	 91.003117 
770.000000	 91.180350 
769.000000	 91.356761 
768.000000	 91.526459 
767.000000	 91.686028 
766.000000	 91.826113 
765.000000	 91.932025 
764.000000	 92.004911 
763.000000	 92.071012 
762.000000	 92.158003 
761.000000	 92.270118 
760.000000	 92.395070 
759.000000	 92.524335 
758.000000	 92.655210 
757.000000	 92.782981 
756.000000	 92.905568 
755.000000	 93.031094 
754.000000	 93.167880 
753.000000	 93.308601 
752.000000	 93.434213 
751.000000	 93.533009 
750.000000	 93.609830 
749.000000	 93.679302 
748.000000	 93.755755 
747.000000	 93.846039 
746.000000	 93.945127 
745.000000	 94.040040 
744.000000	 94.123356 
743.000000	 94.202029 
742.000000	 94.289709 
741.000000	 94.392782 
740.000000	 94.507632 
739.000000	 94.628250 
738.000000	 94.750624 
737.000000	 94.870122 
736.000000	 94.979289 
735.000000	 95.071118 
734.000000	 95.144331 
733.000000	 95.204654 
732.000000	 95.259512 
731.000000	 95.310688 
730.000000	 95.353254 
729.000000	 95.381864 
728.000000	 95.399517 
727.000000	 95.417392 
726.000000	 95.445629 
725.000000	 95.490195 
724.000000	 95.554050 
723.000000	 95.631968 
722.000000	 95.707278 
721.000000	 95.765468 
720.000000	 95.812125 
719.000000	 95.864645 
718.000000	 95.926957 
717.000000	 95.988254 
716.000000	 96.043335 
715.000000	 96.098304 
714.000000	 96.155050 
713.000000	 96.204782 
712.000000	 96.244816 
711.000000	 96.287288 
710.000000	 96.342510 
709.000000	 96.407214 
708.000000	 96.471700 
707.000000	 96.531077 
706.000000	 96.575773 
705.000000	 96.585185 
704.000000	 96.546492 
703.000000	 96.466764 
702.000000	 96.357277 
701.000000	 96.213336 
700.000000	 96.019595 
699.000000	 95.774598 
698.000000	 95.497833 
697.000000	 95.222312 
696.000000	 94.991737 
695.000000	 94.850499 
694.000000	 94.824665 
693.000000	 94.906428 
692.000000	 95.059788 
691.000000	 95.245871 
690.000000	 95.436705 
689.000000	 95.613996 
688.000000	 95.766683 
687.000000	 95.890635 
686.000000	 95.991013 
685.000000	 96.079250 
684.000000	 96.165221 
683.000000	 96.253123 
682.000000	 96.339736 
681.000000	 96.419812 
680.000000	 96.492667 
679.000000	 96.566422 
678.000000	 96.646223 
677.000000	 96.724062 
676.000000	 96.798199 
675.000000	 96.871728 
674.000000	 96.941163 
673.000000	 97.005183 
672.000000	 97.078412 
671.000000	 97.199308 
670.000000	 97.403944 
669.000000	 97.685213 
668.000000	 97.862323 
667.000000	 97.768595 
666.000000	 97.567205 
665.000000	 97.428554 
664.000000	 97.347631 
663.000000	 97.310110 
662.000000	 97.316713 
661.000000	 97.360283 
660.000000	 97.429006 
659.000000	 97.516311 
658.000000	 97.600636 
657.000000	 97.638294 
656.000000	 97.614221 
655.000000	 97.557903 
654.000000	 97.505383 
653.000000	 97.466856 
652.000000	 97.441550 
651.000000	 97.438906 
650.000000	 97.465097 

