4000.000000	98.516763 
3999.000000	98.514390 
3998.000000	98.511532 
3997.000000	98.508982 
3996.000000	98.507492 
3995.000000	98.507419 
3994.000000	98.508554 
3993.000000	98.510083 
3992.000000	98.511103 
3991.000000	98.511241 
3990.000000	98.510723 
3989.000000	98.510004 
3988.000000	98.509399 
3987.000000	98.509083 
3986.000000	98.509244 
3985.000000	98.509911 
3984.000000	98.510632 
3983.000000	98.510764 
3982.000000	98.510267 
3981.000000	98.509850 
3980.000000	98.510016 
3979.000000	98.510285 
3978.000000	98.509855 
3977.000000	98.508704 
3976.000000	98.507582 
3975.000000	98.506945 
3974.000000	98.506402 
3973.000000	98.505293 
3972.000000	98.503500 
3971.000000	98.501616 
3970.000000	98.500396 
3969.000000	98.500152 
3968.000000	98.500687 
3967.000000	98.501538 
3966.000000	98.502260 
3965.000000	98.502539 
3964.000000	98.502086 
3963.000000	98.500745 
3962.000000	98.498827 
3961.000000	98.497004 
3960.000000	98.495753 
3959.000000	98.495105 
3958.000000	98.494828 
3957.000000	98.494702 
3956.000000	98.494509 
3955.000000	98.493929 
3954.000000	98.492762 
3953.000000	98.491172 
3952.000000	98.489589 
3951.000000	98.488298 
3950.000000	98.487096 
3949.000000	98.485573 
3948.000000	98.483627 
3947.000000	98.481667 
3946.000000	98.480356 
3945.000000	98.480130 
3944.000000	98.480811 
3943.000000	98.481532 
3942.000000	98.481530 
3941.000000	98.480935 
3940.000000	98.480494 
3939.000000	98.480742 
3938.000000	98.481475 
3937.000000	98.481960 
3936.000000	98.481590 
3935.000000	98.480262 
3934.000000	98.478401 
3933.000000	98.476570 
3932.000000	98.475064 
3931.000000	98.473796 
3930.000000	98.472728 
3929.000000	98.472317 
3928.000000	98.473015 
3927.000000	98.474618 
3926.000000	98.476277 
3925.000000	98.477028 
3924.000000	98.476465 
3923.000000	98.474894 
3922.000000	98.473060 
3921.000000	98.471775 
3920.000000	98.471440 
3919.000000	98.471807 
3918.000000	98.472186 
3917.000000	98.472050 
3916.000000	98.471502 
3915.000000	98.471035 
3914.000000	98.471040 
3913.000000	98.471456 
3912.000000	98.471856 
3911.000000	98.471968 
3910.000000	98.471843 
3909.000000	98.471701 
3908.000000	98.471627 
3907.000000	98.471376 
3906.000000	98.470620 
3905.000000	98.469212 
3904.000000	98.467305 
3903.000000	98.465322 
3902.000000	98.463731 
3901.000000	98.462809 
3900.000000	98.462544 
3899.000000	98.462600 
3898.000000	98.462588 
3897.000000	98.462345 
3896.000000	98.461935 
3895.000000	98.461501 
3894.000000	98.461120 
3893.000000	98.460760 
3892.000000	98.460336 
3891.000000	98.459812 
3890.000000	98.459223 
3889.000000	98.458628 
3888.000000	98.458083 
3887.000000	98.457614 
3886.000000	98.457200 
3885.000000	98.456796 
3884.000000	98.456371 
3883.000000	98.455925 
3882.000000	98.455471 
3881.000000	98.455020 
3880.000000	98.454573 
3879.000000	98.454130 
3878.000000	98.453687 
3877.000000	98.453241 
3876.000000	98.452794 
3875.000000	98.452341 
3874.000000	98.451877 
3873.000000	98.451395 
3872.000000	98.450899 
3871.000000	98.450402 
3870.000000	98.449922 
3869.000000	98.449471 
3868.000000	98.449055 
3867.000000	98.448672 
3866.000000	98.448322 
3865.000000	98.448000 
3864.000000	98.447697 
3863.000000	98.447405 
3862.000000	98.447125 
3861.000000	98.446861 
3860.000000	98.446609 
3859.000000	98.446361 
3858.000000	98.446103 
3857.000000	98.445832 
3856.000000	98.445552 
3855.000000	98.445269 
3854.000000	98.444988 
3853.000000	98.444715 
3852.000000	98.444464 
3851.000000	98.444253 
3850.000000	98.444090 
3849.000000	98.443967 
3848.000000	98.443864 
3847.000000	98.443757 
3846.000000	98.443617 
3845.000000	98.443423 
3844.000000	98.443169 
3843.000000	98.442865 
3842.000000	98.442525 
3841.000000	98.442173 
3840.000000	98.441849 
3839.000000	98.441592 
3838.000000	98.441406 
3837.000000	98.441256 
3836.000000	98.441101 
3835.000000	98.440931 
3834.000000	98.440757 
3833.000000	98.440607 
3832.000000	98.440500 
3831.000000	98.440433 
3830.000000	98.440386 
3829.000000	98.440345 
3828.000000	98.440310 
3827.000000	98.440290 
3826.000000	98.440283 
3825.000000	98.440265 
3824.000000	98.440215 
3823.000000	98.440135 
3822.000000	98.440055 
3821.000000	98.440008 
3820.000000	98.439993 
3819.000000	98.439976 
3818.000000	98.439935 
3817.000000	98.439901 
3816.000000	98.439943 
3815.000000	98.440086 
3814.000000	98.440252 
3813.000000	98.440349 
3812.000000	98.440414 
3811.000000	98.440581 
3810.000000	98.440833 
3809.000000	98.440907 
3808.000000	98.440614 
3807.000000	98.440175 
3806.000000	98.439925 
3805.000000	98.439721 
3804.000000	98.439062 
3803.000000	98.437958 
3802.000000	98.437247 
3801.000000	98.437581 
3800.000000	98.438555 
3799.000000	98.439201 
3798.000000	98.439297 
3797.000000	98.439596 
3796.000000	98.440671 
3795.000000	98.441929 
3794.000000	98.442314 
3793.000000	98.441677 
3792.000000	98.440945 
3791.000000	98.441055 
3790.000000	98.441942 
3789.000000	98.442786 
3788.000000	98.443046 
3787.000000	98.442810 
3786.000000	98.442525 
3785.000000	98.442662 
3784.000000	98.443386 
3783.000000	98.444190 
3782.000000	98.444113 
3781.000000	98.442707 
3780.000000	98.440785 
3779.000000	98.439831 
3778.000000	98.440441 
3777.000000	98.441941 
3776.000000	98.443528 
3775.000000	98.445103 
3774.000000	98.446355 
3773.000000	98.446071 
3772.000000	98.443684 
3771.000000	98.440432 
3770.000000	98.437917 
3769.000000	98.436216 
3768.000000	98.434157 
3767.000000	98.431264 
3766.000000	98.428893 
3765.000000	98.428570 
3764.000000	98.429869 
3763.000000	98.430737 
3762.000000	98.430219 
3761.000000	98.429275 
3760.000000	98.428392 
3759.000000	98.426877 
3758.000000	98.424122 
3757.000000	98.420334 
3756.000000	98.415665 
3755.000000	98.409864 
3754.000000	98.403572 
3753.000000	98.398290 
3752.000000	98.394125 
3751.000000	98.389281 
3750.000000	98.383878 
3749.000000	98.380801 
3748.000000	98.380345 
3747.000000	98.379687 
3746.000000	98.378294 
3745.000000	98.379191 
3744.000000	98.384605 
3743.000000	98.390626 
3742.000000	98.391365 
3741.000000	98.386441 
3740.000000	98.380302 
3739.000000	98.377440 
3738.000000	98.379039 
3737.000000	98.383606 
3736.000000	98.389605 
3735.000000	98.395415 
3734.000000	98.398694 
3733.000000	98.398111 
3732.000000	98.395234 
3731.000000	98.392558 
3730.000000	98.390253 
3729.000000	98.387378 
3728.000000	98.385003 
3727.000000	98.385238 
3726.000000	98.387694 
3725.000000	98.389448 
3724.000000	98.389431 
3723.000000	98.389618 
3722.000000	98.391592 
3721.000000	98.394145 
3720.000000	98.394290 
3719.000000	98.391229 
3718.000000	98.387443 
3717.000000	98.385439 
3716.000000	98.385044 
3715.000000	98.383805 
3714.000000	98.379957 
3713.000000	98.374216 
3712.000000	98.368771 
3711.000000	98.365419 
3710.000000	98.364089 
3709.000000	98.363062 
3708.000000	98.360706 
3707.000000	98.356405 
3706.000000	98.350936 
3705.000000	98.346178 
3704.000000	98.343763 
3703.000000	98.343313 
3702.000000	98.341748 
3701.000000	98.336250 
3700.000000	98.327115 
3699.000000	98.317405 
3698.000000	98.310585 
3697.000000	98.307796 
3696.000000	98.306841 
3695.000000	98.304121 
3694.000000	98.298306 
3693.000000	98.291557 
3692.000000	98.286937 
3691.000000	98.285050 
3690.000000	98.283326 
3689.000000	98.279637 
3688.000000	98.275315 
3687.000000	98.271815 
3686.000000	98.268183 
3685.000000	98.263678 
3684.000000	98.259269 
3683.000000	98.256206 
3682.000000	98.253952 
3681.000000	98.250775 
3680.000000	98.245309 
3679.000000	98.235955 
3678.000000	98.221678 
3677.000000	98.204876 
3676.000000	98.191120 
3675.000000	98.183897 
3674.000000	98.180133 
3673.000000	98.173812 
3672.000000	98.163214 
3671.000000	98.153034 
3670.000000	98.147235 
3669.000000	98.143600 
3668.000000	98.138433 
3667.000000	98.131443 
3666.000000	98.124990 
3665.000000	98.120628 
3664.000000	98.116793 
3663.000000	98.110961 
3662.000000	98.102368 
3661.000000	98.092006 
3660.000000	98.080891 
3659.000000	98.068875 
3658.000000	98.055906 
3657.000000	98.042629 
3656.000000	98.029623 
3655.000000	98.016621 
3654.000000	98.002382 
3653.000000	97.986514 
3652.000000	97.970444 
3651.000000	97.955373 
3650.000000	97.939869 
3649.000000	97.923082 
3648.000000	97.908814 
3647.000000	97.900408 
3646.000000	97.896514 
3645.000000	97.894226 
3644.000000	97.892389 
3643.000000	97.891226 
3642.000000	97.889840 
3641.000000	97.885658 
3640.000000	97.877357 
3639.000000	97.866765 
3638.000000	97.856810 
3637.000000	97.847990 
3636.000000	97.838459 
3635.000000	97.826838 
3634.000000	97.813136 
3633.000000	97.797088 
3632.000000	97.777882 
3631.000000	97.756959 
3630.000000	97.739421 
3629.000000	97.728931 
3628.000000	97.722953 
3627.000000	97.717669 
3626.000000	97.713120 
3625.000000	97.712564 
3624.000000	97.718234 
3623.000000	97.728149 
3622.000000	97.737582 
3621.000000	97.742678 
3620.000000	97.741156 
3619.000000	97.732442 
3618.000000	97.719593 
3617.000000	97.708528 
3616.000000	97.704514 
3615.000000	97.709680 
3614.000000	97.721730 
3613.000000	97.734850 
3612.000000	97.743442 
3611.000000	97.745350 
3610.000000	97.742720 
3609.000000	97.740232 
3608.000000	97.741106 
3607.000000	97.745380 
3606.000000	97.751810 
3605.000000	97.760314 
3604.000000	97.771692 
3603.000000	97.785204 
3602.000000	97.797663 
3601.000000	97.805626 
3600.000000	97.807731 
3599.000000	97.805790 
3598.000000	97.803967 
3597.000000	97.805625 
3596.000000	97.811216 
3595.000000	97.818256 
3594.000000	97.823514 
3593.000000	97.825730 
3592.000000	97.825775 
3591.000000	97.824988 
3590.000000	97.824824 
3589.000000	97.826538 
3588.000000	97.829719 
3587.000000	97.832121 
3586.000000	97.832634 
3585.000000	97.832979 
3584.000000	97.836007 
3583.000000	97.842770 
3582.000000	97.851714 
3581.000000	97.859782 
3580.000000	97.864456 
3579.000000	97.865106 
3578.000000	97.863059 
3577.000000	97.860637 
3576.000000	97.859322 
3575.000000	97.858897 
3574.000000	97.858055 
3573.000000	97.856011 
3572.000000	97.853194 
3571.000000	97.850304 
3570.000000	97.847482 
3569.000000	97.844907 
3568.000000	97.843349 
3567.000000	97.843480 
3566.000000	97.845141 
3565.000000	97.847573 
3564.000000	97.850188 
3563.000000	97.852963 
3562.000000	97.855920 
3561.000000	97.858570 
3560.000000	97.860134 
3559.000000	97.860238 
3558.000000	97.859443 
3557.000000	97.858883 
3556.000000	97.859138 
3555.000000	97.859697 
3554.000000	97.859749 
3553.000000	97.859076 
3552.000000	97.858066 
3551.000000	97.857128 
3550.000000	97.856551 
3549.000000	97.856777 
3548.000000	97.858079 
3547.000000	97.859778 
3546.000000	97.860583 
3545.000000	97.860048 
3544.000000	97.859105 
3543.000000	97.858918 
3542.000000	97.859642 
3541.000000	97.860605 
3540.000000	97.861224 
3539.000000	97.861426 
3538.000000	97.861376 
3537.000000	97.861188 
3536.000000	97.860929 
3535.000000	97.860673 
3534.000000	97.860487 
3533.000000	97.860428 
3532.000000	97.860527 
3531.000000	97.860768 
3530.000000	97.861078 
3529.000000	97.861346 
3528.000000	97.861498 
3527.000000	97.861540 
3526.000000	97.861553 
3525.000000	97.861637 
3524.000000	97.861825 
3523.000000	97.862080 
3522.000000	97.862331 
3521.000000	97.862539 
3520.000000	97.862718 
3519.000000	97.862903 
3518.000000	97.863105 
3517.000000	97.863268 
3516.000000	97.863324 
3515.000000	97.863266 
3514.000000	97.863174 
3513.000000	97.863141 
3512.000000	97.863193 
3511.000000	97.863279 
3510.000000	97.863324 
3509.000000	97.863304 
3508.000000	97.863259 
3507.000000	97.863232 
3506.000000	97.863214 
3505.000000	97.863150 
3504.000000	97.862984 
3503.000000	97.862700 
3502.000000	97.862343 
3501.000000	97.862000 
3500.000000	97.861749 
3499.000000	97.861611 
3498.000000	97.861543 
3497.000000	97.861448 
3496.000000	97.861229 
3495.000000	97.860848 
3494.000000	97.860360 
3493.000000	97.859879 
3492.000000	97.859462 
3491.000000	97.859066 
3490.000000	97.858648 
3489.000000	97.858285 
3488.000000	97.858064 
3487.000000	97.857843 
3486.000000	97.857289 
3485.000000	97.856279 
3484.000000	97.855149 
3483.000000	97.854364 
3482.000000	97.854038 
3481.000000	97.853860 
3480.000000	97.853471 
3479.000000	97.852760 
3478.000000	97.851777 
3477.000000	97.850561 
3476.000000	97.849113 
3475.000000	97.847521 
3474.000000	97.846038 
3473.000000	97.844971 
3472.000000	97.844450 
3471.000000	97.844287 
3470.000000	97.844037 
3469.000000	97.843335 
3468.000000	97.842188 
3467.000000	97.840904 
3466.000000	97.839785 
3465.000000	97.838859 
3464.000000	97.837907 
3463.000000	97.836683 
3462.000000	97.835116 
3461.000000	97.833342 
3460.000000	97.831555 
3459.000000	97.829843 
3458.000000	97.828155 
3457.000000	97.826430 
3456.000000	97.824766 
3455.000000	97.823415 
3454.000000	97.822589 
3453.000000	97.822259 
3452.000000	97.822114 
3451.000000	97.821762 
3450.000000	97.820996 
3449.000000	97.819853 
3448.000000	97.818458 
3447.000000	97.816854 
3446.000000	97.815056 
3445.000000	97.813235 
3444.000000	97.811731 
3443.000000	97.810773 
3442.000000	97.810255 
3441.000000	97.809781 
3440.000000	97.808975 
3439.000000	97.807744 
3438.000000	97.806226 
3437.000000	97.804655 
3436.000000	97.803265 
3435.000000	97.802229 
3434.000000	97.801594 
3433.000000	97.801220 
3432.000000	97.800842 
3431.000000	97.800291 
3430.000000	97.799580 
3429.000000	97.798799 
3428.000000	97.797952 
3427.000000	97.796961 
3426.000000	97.795834 
3425.000000	97.794734 
3424.000000	97.793841 
3423.000000	97.793187 
3422.000000	97.792648 
3421.000000	97.792077 
3420.000000	97.791431 
3419.000000	97.790761 
3418.000000	97.790130 
3417.000000	97.789561 
3416.000000	97.789038 
3415.000000	97.788524 
3414.000000	97.787981 
3413.000000	97.787389 
3412.000000	97.786764 
3411.000000	97.786147 
3410.000000	97.785573 
3409.000000	97.785050 
3408.000000	97.784555 
3407.000000	97.784064 
3406.000000	97.783575 
3405.000000	97.783101 
3404.000000	97.782655 
3403.000000	97.782234 
3402.000000	97.781822 
3401.000000	97.781404 
3400.000000	97.780991 
3399.000000	97.780615 
3398.000000	97.780298 
3397.000000	97.780037 
3396.000000	97.779811 
3395.000000	97.779612 
3394.000000	97.779435 
3393.000000	97.779266 
3392.000000	97.779088 
3391.000000	97.778897 
3390.000000	97.778700 
3389.000000	97.778514 
3388.000000	97.778368 
3387.000000	97.778290 
3386.000000	97.778298 
3385.000000	97.778375 
3384.000000	97.778444 
3383.000000	97.778423 
3382.000000	97.778315 
3381.000000	97.778262 
3380.000000	97.778399 
3379.000000	97.778691 
3378.000000	97.778967 
3377.000000	97.779160 
3376.000000	97.779393 
3375.000000	97.779757 
3374.000000	97.780124 
3373.000000	97.780276 
3372.000000	97.780225 
3371.000000	97.780290 
3370.000000	97.780783 
3369.000000	97.781692 
3368.000000	97.782675 
3367.000000	97.783361 
3366.000000	97.783633 
3365.000000	97.783667 
3364.000000	97.783744 
3363.000000	97.783998 
3362.000000	97.784315 
3361.000000	97.784497 
3360.000000	97.784543 
3359.000000	97.784755 
3358.000000	97.785468 
3357.000000	97.786669 
3356.000000	97.787932 
3355.000000	97.788826 
3354.000000	97.789405 
3353.000000	97.790233 
3352.000000	97.791879 
3351.000000	97.794385 
3350.000000	97.797163 
3349.000000	97.799398 
3348.000000	97.800626 
3347.000000	97.801067 
3346.000000	97.801362 
3345.000000	97.801869 
3344.000000	97.802273 
3343.000000	97.802029 
3342.000000	97.801151 
3341.000000	97.800462 
3340.000000	97.800813 
3339.000000	97.802104 
3338.000000	97.803391 
3337.000000	97.803869 
3336.000000	97.803605 
3335.000000	97.803247 
3334.000000	97.803290 
3333.000000	97.803778 
3332.000000	97.804556 
3331.000000	97.805531 
3330.000000	97.806611 
3329.000000	97.807611 
3328.000000	97.808415 
3327.000000	97.809177 
3326.000000	97.810183 
3325.000000	97.811446 
3324.000000	97.812574 
3323.000000	97.813141 
3322.000000	97.813134 
3321.000000	97.812957 
3320.000000	97.813057 
3319.000000	97.813611 
3318.000000	97.814576 
3317.000000	97.815853 
3316.000000	97.817316 
3315.000000	97.818768 
3314.000000	97.819995 
3313.000000	97.820891 
3312.000000	97.821515 
3311.000000	97.822060 
3310.000000	97.822776 
3309.000000	97.823822 
3308.000000	97.825102 
3307.000000	97.826241 
3306.000000	97.826872 
3305.000000	97.826949 
3304.000000	97.826771 
3303.000000	97.826796 
3302.000000	97.827307 
3301.000000	97.828264 
3300.000000	97.829376 
3299.000000	97.830321 
3298.000000	97.831003 
3297.000000	97.831572 
3296.000000	97.832225 
3295.000000	97.833053 
3294.000000	97.834051 
3293.000000	97.835189 
3292.000000	97.836381 
3291.000000	97.837461 
3290.000000	97.838264 
3289.000000	97.838772 
3288.000000	97.839137 
3287.000000	97.839550 
3286.000000	97.840083 
3285.000000	97.840639 
3284.000000	97.841048 
3283.000000	97.841292 
3282.000000	97.841633 
3281.000000	97.842418 
3280.000000	97.843723 
3279.000000	97.845269 
3278.000000	97.846725 
3277.000000	97.847997 
3276.000000	97.849121 
3275.000000	97.850063 
3274.000000	97.850766 
3273.000000	97.851349 
3272.000000	97.852106 
3271.000000	97.853230 
3270.000000	97.854620 
3269.000000	97.855941 
3268.000000	97.856895 
3267.000000	97.857443 
3266.000000	97.857830 
3265.000000	97.858413 
3264.000000	97.859356 
3263.000000	97.860522 
3262.000000	97.861629 
3261.000000	97.862557 
3260.000000	97.863445 
3259.000000	97.864451 
3258.000000	97.865577 
3257.000000	97.866813 
3256.000000	97.868277 
3255.000000	97.870005 
3254.000000	97.871728 
3253.000000	97.873070 
3252.000000	97.873991 
3251.000000	97.874878 
3250.000000	97.876136 
3249.000000	97.877743 
3248.000000	97.879290 
3247.000000	97.880420 
3246.000000	97.881156 
3245.000000	97.881799 
3244.000000	97.882556 
3243.000000	97.883321 
3242.000000	97.883877 
3241.000000	97.884240 
3240.000000	97.884746 
3239.000000	97.885799 
3238.000000	97.887593 
3237.000000	97.890019 
3236.000000	97.892715 
3235.000000	97.895173 
3234.000000	97.896939 
3233.000000	97.897815 
3232.000000	97.897987 
3231.000000	97.897961 
3230.000000	97.898271 
3229.000000	97.899184 
3228.000000	97.900664 
3227.000000	97.902557 
3226.000000	97.904846 
3225.000000	97.907563 
3224.000000	97.910445 
3223.000000	97.912914 
3222.000000	97.914510 
3221.000000	97.915269 
3220.000000	97.915587 
3219.000000	97.915798 
3218.000000	97.916030 
3217.000000	97.916337 
3216.000000	97.916825 
3215.000000	97.917650 
3214.000000	97.918964 
3213.000000	97.920738 
3212.000000	97.922587 
3211.000000	97.923919 
3210.000000	97.924469 
3209.000000	97.924641 
3208.000000	97.925148 
3207.000000	97.926269 
3206.000000	97.927664 
3205.000000	97.928901 
3204.000000	97.930006 
3203.000000	97.931364 
3202.000000	97.933191 
3201.000000	97.935231 
3200.000000	97.936958 
3199.000000	97.938028 
3198.000000	97.938506 
3197.000000	97.938732 
3196.000000	97.939058 
3195.000000	97.939776 
3194.000000	97.941132 
3193.000000	97.943198 
3192.000000	97.945638 
3191.000000	97.947787 
3190.000000	97.949124 
3189.000000	97.949597 
3188.000000	97.949556 
3187.000000	97.949613 
3186.000000	97.950494 
3185.000000	97.952676 
3184.000000	97.955920 
3183.000000	97.959284 
3182.000000	97.961903 
3181.000000	97.963632 
3180.000000	97.964779 
3179.000000	97.965565 
3178.000000	97.966139 
3177.000000	97.966952 
3176.000000	97.968660 
3175.000000	97.971561 
3174.000000	97.975313 
3173.000000	97.979159 
3172.000000	97.982335 
3171.000000	97.984355 
3170.000000	97.985216 
3169.000000	97.985432 
3168.000000	97.985646 
3167.000000	97.986189 
3166.000000	97.987107 
3165.000000	97.988371 
3164.000000	97.989788 
3163.000000	97.990899 
3162.000000	97.991390 
3161.000000	97.991554 
3160.000000	97.992002 
3159.000000	97.992946 
3158.000000	97.994165 
3157.000000	97.995608 
3156.000000	97.997563 
3155.000000	98.000117 
3154.000000	98.002854 
3153.000000	98.005254 
3152.000000	98.007106 
3151.000000	98.008367 
3150.000000	98.008946 
3149.000000	98.008891 
3148.000000	98.008599 
3147.000000	98.008668 
3146.000000	98.009534 
3145.000000	98.011251 
3144.000000	98.013500 
3143.000000	98.015715 
3142.000000	98.017421 
3141.000000	98.018571 
3140.000000	98.019463 
3139.000000	98.020389 
3138.000000	98.021411 
3137.000000	98.022472 
3136.000000	98.023562 
3135.000000	98.024729 
3134.000000	98.026029 
3133.000000	98.027468 
3132.000000	98.028944 
3131.000000	98.030300 
3130.000000	98.031514 
3129.000000	98.032753 
3128.000000	98.034175 
3127.000000	98.035752 
3126.000000	98.037342 
3125.000000	98.038844 
3124.000000	98.040261 
3123.000000	98.041634 
3122.000000	98.042979 
3121.000000	98.044292 
3120.000000	98.045588 
3119.000000	98.046903 
3118.000000	98.048253 
3117.000000	98.049621 
3116.000000	98.050971 
3115.000000	98.052277 
3114.000000	98.053539 
3113.000000	98.054788 
3112.000000	98.056065 
3111.000000	98.057384 
3110.000000	98.058736 
3109.000000	98.060093 
3108.000000	98.061418 
3107.000000	98.062691 
3106.000000	98.063919 
3105.000000	98.065137 
3104.000000	98.066358 
3103.000000	98.067559 
3102.000000	98.068715 
3101.000000	98.069815 
3100.000000	98.070874 
3099.000000	98.071919 
3098.000000	98.072978 
3097.000000	98.074077 
3096.000000	98.075225 
3095.000000	98.076386 
3094.000000	98.077507 
3093.000000	98.078563 
3092.000000	98.079586 
3091.000000	98.080608 
3090.000000	98.081623 
3089.000000	98.082610 
3088.000000	98.083565 
3087.000000	98.084500 
3086.000000	98.085439 
3085.000000	98.086406 
3084.000000	98.087389 
3083.000000	98.088318 
3082.000000	98.089135 
3081.000000	98.089906 
3080.000000	98.090792 
3079.000000	98.091812 
3078.000000	98.092741 
3077.000000	98.093399 
3076.000000	98.093946 
3075.000000	98.094662 
3074.000000	98.095509 
3073.000000	98.096248 
3072.000000	98.096899 
3071.000000	98.097734 
3070.000000	98.098779 
3069.000000	98.099683 
3068.000000	98.100182 
3067.000000	98.100411 
3066.000000	98.100657 
3065.000000	98.101020 
3064.000000	98.101372 
3063.000000	98.101487 
3062.000000	98.101158 
3061.000000	98.100415 
3060.000000	98.099701 
3059.000000	98.099673 
3058.000000	98.100761 
3057.000000	98.102944 
3056.000000	98.105710 
3055.000000	98.108062 
3054.000000	98.108960 
3053.000000	98.108092 
3052.000000	98.106401 
3051.000000	98.105512 
3050.000000	98.106200 
3049.000000	98.107815 
3048.000000	98.109169 
3047.000000	98.109718 
3046.000000	98.109589 
3045.000000	98.108913 
3044.000000	98.107754 
3043.000000	98.106620 
3042.000000	98.106401 
3041.000000	98.107420 
3040.000000	98.108773 
3039.000000	98.109042 
3038.000000	98.107682 
3037.000000	98.105406 
3036.000000	98.103250 
3035.000000	98.101466 
3034.000000	98.099608 
3033.000000	98.097461 
3032.000000	98.095439 
3031.000000	98.094035 
3030.000000	98.093265 
3029.000000	98.092722 
3028.000000	98.091822 
3027.000000	98.089918 
3026.000000	98.086703 
3025.000000	98.082906 
3024.000000	98.080179 
3023.000000	98.079654 
3022.000000	98.080783 
3021.000000	98.082005 
3020.000000	98.082421 
3019.000000	98.082144 
3018.000000	98.081153 
3017.000000	98.078749 
3016.000000	98.074552 
3015.000000	98.069474 
3014.000000	98.065284 
3013.000000	98.063285 
3012.000000	98.063350 
3011.000000	98.063762 
3010.000000	98.062228 
3009.000000	98.057739 
3008.000000	98.051543 
3007.000000	98.045968 
3006.000000	98.042108 
3005.000000	98.039237 
3004.000000	98.036392 
3003.000000	98.033693 
3002.000000	98.031906 
3001.000000	98.031401 
3000.000000	98.031791 
2999.000000	98.031979 
2998.000000	98.030340 
2997.000000	98.025735 
2996.000000	98.019020 
2995.000000	98.013050 
2994.000000	98.010356 
2993.000000	98.010915 
2992.000000	98.012317 
2991.000000	98.011882 
2990.000000	98.008573 
2989.000000	98.003393 
2988.000000	97.998510 
2987.000000	97.995791 
2986.000000	97.995746 
2985.000000	97.997741 
2984.000000	98.001013 
2983.000000	98.005125 
2982.000000	98.009551 
2981.000000	98.013493 
2980.000000	98.016330 
2979.000000	98.017782 
2978.000000	98.017519 
2977.000000	98.015326 
2976.000000	98.012045 
2975.000000	98.009680 
2974.000000	98.009951 
2973.000000	98.013025 
2972.000000	98.017861 
2971.000000	98.023204 
2970.000000	98.027951 
2969.000000	98.031297 
2968.000000	98.033270 
2967.000000	98.034724 
2966.000000	98.036223 
2965.000000	98.037350 
2964.000000	98.037675 
2963.000000	98.037880 
2962.000000	98.039179 
2961.000000	98.041916 
2960.000000	98.045468 
2959.000000	98.049267 
2958.000000	98.053227 
2957.000000	98.057243 
2956.000000	98.060895 
2955.000000	98.063655 
2954.000000	98.065138 
2953.000000	98.065516 
2952.000000	98.065999 
2951.000000	98.068304 
2950.000000	98.072857 
2949.000000	98.077999 
2948.000000	98.081755 
2947.000000	98.083924 
2946.000000	98.085521 
2945.000000	98.086667 
2944.000000	98.086531 
2943.000000	98.085263 
2942.000000	98.084316 
2941.000000	98.084465 
2940.000000	98.084849 
2939.000000	98.084603 
2938.000000	98.084323 
2937.000000	98.085048 
2936.000000	98.086572 
2935.000000	98.087742 
2934.000000	98.087919 
2933.000000	98.087308 
2932.000000	98.086322 
2931.000000	98.085519 
2930.000000	98.085785 
2929.000000	98.087600 
2928.000000	98.090165 
2927.000000	98.091936 
2926.000000	98.092062 
2925.000000	98.090954 
2924.000000	98.089658 
2923.000000	98.089097 
2922.000000	98.089629 
2921.000000	98.090785 
2920.000000	98.091683 
2919.000000	98.092148 
2918.000000	98.092997 
2917.000000	98.094563 
2916.000000	98.095509 
2915.000000	98.094189 
2914.000000	98.091027 
2913.000000	98.088367 
2912.000000	98.087692 
2911.000000	98.087964 
2910.000000	98.087354 
2909.000000	98.085782 
2908.000000	98.084809 
2907.000000	98.085312 
2906.000000	98.086171 
2905.000000	98.085413 
2904.000000	98.082373 
2903.000000	98.078404 
2902.000000	98.076132 
2901.000000	98.077165 
2900.000000	98.081010 
2899.000000	98.085922 
2898.000000	98.090503 
2897.000000	98.094531 
2896.000000	98.097942 
2895.000000	98.099974 
2894.000000	98.100122 
2893.000000	98.099617 
2892.000000	98.100773 
2891.000000	98.104489 
2890.000000	98.109198 
2889.000000	98.112800 
2888.000000	98.115069 
2887.000000	98.117236 
2886.000000	98.119722 
2885.000000	98.121620 
2884.000000	98.122633 
2883.000000	98.124080 
2882.000000	98.127053 
2881.000000	98.130545 
2880.000000	98.132773 
2879.000000	98.133995 
2878.000000	98.136512 
2877.000000	98.141648 
2876.000000	98.147972 
2875.000000	98.153030 
2874.000000	98.155920 
2873.000000	98.157322 
2872.000000	98.157982 
2871.000000	98.158229 
2870.000000	98.158537 
2869.000000	98.159402 
2868.000000	98.160644 
2867.000000	98.161612 
2866.000000	98.162151 
2865.000000	98.162784 
2864.000000	98.164040 
2863.000000	98.166267 
2862.000000	98.169902 
2861.000000	98.175019 
2860.000000	98.180558 
2859.000000	98.184909 
2858.000000	98.187598 
2857.000000	98.189739 
2856.000000	98.192586 
2855.000000	98.195994 
2854.000000	98.198755 
2853.000000	98.200157 
2852.000000	98.200602 
2851.000000	98.200966 
2850.000000	98.201809 
2849.000000	98.203236 
2848.000000	98.205143 
2847.000000	98.207354 
2846.000000	98.209659 
2845.000000	98.211857 
2844.000000	98.213778 
2843.000000	98.215330 
2842.000000	98.216616 
2841.000000	98.217887 
2840.000000	98.219293 
2839.000000	98.220730 
2838.000000	98.222014 
2837.000000	98.223119 
2836.000000	98.224189 
2835.000000	98.225397 
2834.000000	98.226859 
2833.000000	98.228616 
2832.000000	98.230572 
2831.000000	98.232439 
2830.000000	98.233886 
2829.000000	98.234800 
2828.000000	98.235377 
2827.000000	98.236004 
2826.000000	98.236981 
2825.000000	98.238297 
2824.000000	98.239726 
2823.000000	98.241012 
2822.000000	98.242073 
2821.000000	98.242993 
2820.000000	98.243883 
2819.000000	98.244793 
2818.000000	98.245713 
2817.000000	98.246616 
2816.000000	98.247490 
2815.000000	98.248344 
2814.000000	98.249184 
2813.000000	98.250009 
2812.000000	98.250811 
2811.000000	98.251599 
2810.000000	98.252390 
2809.000000	98.253201 
2808.000000	98.254039 
2807.000000	98.254902 
2806.000000	98.255781 
2805.000000	98.256665 
2804.000000	98.257541 
2803.000000	98.258387 
2802.000000	98.259190 
2801.000000	98.259970 
2800.000000	98.260768 
2799.000000	98.261594 
2798.000000	98.262397 
2797.000000	98.263124 
2796.000000	98.263763 
2795.000000	98.264347 
2794.000000	98.264927 
2793.000000	98.265569 
2792.000000	98.266331 
2791.000000	98.267225 
2790.000000	98.268179 
2789.000000	98.269062 
2788.000000	98.269778 
2787.000000	98.270321 
2786.000000	98.270811 
2785.000000	98.271422 
2784.000000	98.272221 
2783.000000	98.273134 
2782.000000	98.274019 
2781.000000	98.274818 
2780.000000	98.275569 
2779.000000	98.276327 
2778.000000	98.277107 
2777.000000	98.277886 
2776.000000	98.278615 
2775.000000	98.279256 
2774.000000	98.279827 
2773.000000	98.280417 
2772.000000	98.281106 
2771.000000	98.281895 
2770.000000	98.282733 
2769.000000	98.283592 
2768.000000	98.284465 
2767.000000	98.285297 
2766.000000	98.285983 
2765.000000	98.286469 
2764.000000	98.286816 
2763.000000	98.287133 
2762.000000	98.287487 
2761.000000	98.287888 
2760.000000	98.288331 
2759.000000	98.288818 
2758.000000	98.289334 
2757.000000	98.289841 
2756.000000	98.290299 
2755.000000	98.290709 
2754.000000	98.291102 
2753.000000	98.291512 
2752.000000	98.291938 
2751.000000	98.292364 
2750.000000	98.292772 
2749.000000	98.293158 
2748.000000	98.293513 
2747.000000	98.293832 
2746.000000	98.294126 
2745.000000	98.294406 
2744.000000	98.294683 
2743.000000	98.294960 
2742.000000	98.295238 
2741.000000	98.295512 
2740.000000	98.295780 
2739.000000	98.296042 
2738.000000	98.296301 
2737.000000	98.296559 
2736.000000	98.296811 
2735.000000	98.297056 
2734.000000	98.297296 
2733.000000	98.297536 
2732.000000	98.297778 
2731.000000	98.298022 
2730.000000	98.298263 
2729.000000	98.298495 
2728.000000	98.298717 
2727.000000	98.298928 
2726.000000	98.299131 
2725.000000	98.299330 
2724.000000	98.299533 
2723.000000	98.299745 
2722.000000	98.299965 
2721.000000	98.300188 
2720.000000	98.300409 
2719.000000	98.300626 
2718.000000	98.300843 
2717.000000	98.301060 
2716.000000	98.301277 
2715.000000	98.301495 
2714.000000	98.301718 
2713.000000	98.301952 
2712.000000	98.302201 
2711.000000	98.302460 
2710.000000	98.302721 
2709.000000	98.302981 
2708.000000	98.303242 
2707.000000	98.303510 
2706.000000	98.303789 
2705.000000	98.304082 
2704.000000	98.304385 
2703.000000	98.304696 
2702.000000	98.305009 
2701.000000	98.305323 
2700.000000	98.305637 
2699.000000	98.305951 
2698.000000	98.306262 
2697.000000	98.306562 
2696.000000	98.306845 
2695.000000	98.307112 
2694.000000	98.307369 
2693.000000	98.307626 
2692.000000	98.307893 
2691.000000	98.308168 
2690.000000	98.308448 
2689.000000	98.308732 
2688.000000	98.309020 
2687.000000	98.309314 
2686.000000	98.309613 
2685.000000	98.309916 
2684.000000	98.310217 
2683.000000	98.310511 
2682.000000	98.310792 
2681.000000	98.311061 
2680.000000	98.311323 
2679.000000	98.311588 
2678.000000	98.311862 
2677.000000	98.312142 
2676.000000	98.312421 
2675.000000	98.312694 
2674.000000	98.312961 
2673.000000	98.313229 
2672.000000	98.313503 
2671.000000	98.313780 
2670.000000	98.314048 
2669.000000	98.314300 
2668.000000	98.314539 
2667.000000	98.314773 
2666.000000	98.315010 
2665.000000	98.315247 
2664.000000	98.315479 
2663.000000	98.315699 
2662.000000	98.315905 
2661.000000	98.316099 
2660.000000	98.316279 
2659.000000	98.316441 
2658.000000	98.316579 
2657.000000	98.316692 
2656.000000	98.316785 
2655.000000	98.316872 
2654.000000	98.316963 
2653.000000	98.317064 
2652.000000	98.317173 
2651.000000	98.317278 
2650.000000	98.317367 
2649.000000	98.317435 
2648.000000	98.317481 
2647.000000	98.317505 
2646.000000	98.317509 
2645.000000	98.317493 
2644.000000	98.317458 
2643.000000	98.317411 
2642.000000	98.317365 
2641.000000	98.317334 
2640.000000	98.317324 
2639.000000	98.317334 
2638.000000	98.317352 
2637.000000	98.317365 
2636.000000	98.317365 
2635.000000	98.317347 
2634.000000	98.317314 
2633.000000	98.317270 
2632.000000	98.317214 
2631.000000	98.317136 
2630.000000	98.317027 
2629.000000	98.316890 
2628.000000	98.316734 
2627.000000	98.316569 
2626.000000	98.316398 
2625.000000	98.316218 
2624.000000	98.316026 
2623.000000	98.315818 
2622.000000	98.315594 
2621.000000	98.315352 
2620.000000	98.315098 
2619.000000	98.314840 
2618.000000	98.314590 
2617.000000	98.314361 
2616.000000	98.314160 
2615.000000	98.313986 
2614.000000	98.313827 
2613.000000	98.313671 
2612.000000	98.313509 
2611.000000	98.313334 
2610.000000	98.313149 
2609.000000	98.312961 
2608.000000	98.312777 
2607.000000	98.312603 
2606.000000	98.312438 
2605.000000	98.312278 
2604.000000	98.312121 
2603.000000	98.311965 
2602.000000	98.311809 
2601.000000	98.311654 
2600.000000	98.311496 
2599.000000	98.311331 
2598.000000	98.311150 
2597.000000	98.310949 
2596.000000	98.310731 
2595.000000	98.310503 
2594.000000	98.310275 
2593.000000	98.310058 
2592.000000	98.309860 
2591.000000	98.309684 
2590.000000	98.309526 
2589.000000	98.309380 
2588.000000	98.309245 
2587.000000	98.309122 
2586.000000	98.309018 
2585.000000	98.308934 
2584.000000	98.308867 
2583.000000	98.308812 
2582.000000	98.308764 
2581.000000	98.308719 
2580.000000	98.308680 
2579.000000	98.308649 
2578.000000	98.308629 
2577.000000	98.308617 
2576.000000	98.308605 
2575.000000	98.308583 
2574.000000	98.308540 
2573.000000	98.308479 
2572.000000	98.308408 
2571.000000	98.308344 
2570.000000	98.308294 
2569.000000	98.308262 
2568.000000	98.308244 
2567.000000	98.308231 
2566.000000	98.308219 
2565.000000	98.308204 
2564.000000	98.308188 
2563.000000	98.308175 
2562.000000	98.308171 
2561.000000	98.308175 
2560.000000	98.308188 
2559.000000	98.308208 
2558.000000	98.308229 
2557.000000	98.308241 
2556.000000	98.308235 
2555.000000	98.308205 
2554.000000	98.308155 
2553.000000	98.308093 
2552.000000	98.308021 
2551.000000	98.307942 
2550.000000	98.307856 
2549.000000	98.307769 
2548.000000	98.307684 
2547.000000	98.307584 
2546.000000	98.307436 
2545.000000	98.307280 
2544.000000	98.307207 
2543.000000	98.307223 
2542.000000	98.307177 
2541.000000	98.306953 
2540.000000	98.306657 
2539.000000	98.306503 
2538.000000	98.306521 
2537.000000	98.306569 
2536.000000	98.306590 
2535.000000	98.306659 
2534.000000	98.306740 
2533.000000	98.306667 
2532.000000	98.306446 
2531.000000	98.306361 
2530.000000	98.306603 
2529.000000	98.306904 
2528.000000	98.306765 
2527.000000	98.306045 
2526.000000	98.305189 
2525.000000	98.304832 
2524.000000	98.305200 
2523.000000	98.305917 
2522.000000	98.306350 
2521.000000	98.306141 
2520.000000	98.305372 
2519.000000	98.304381 
2518.000000	98.303502 
2517.000000	98.302811 
2516.000000	98.301971 
2515.000000	98.300569 
2514.000000	98.298875 
2513.000000	98.297941 
2512.000000	98.298513 
2511.000000	98.300268 
2510.000000	98.302376 
2509.000000	98.304437 
2508.000000	98.306308 
2507.000000	98.307460 
2506.000000	98.307474 
2505.000000	98.306982 
2504.000000	98.307185 
2503.000000	98.308167 
2502.000000	98.308662 
2501.000000	98.307859 
2500.000000	98.306563 
2499.000000	98.306102 
2498.000000	98.306642 
2497.000000	98.307311 
2496.000000	98.307595 
2495.000000	98.307826 
2494.000000	98.308326 
2493.000000	98.308871 
2492.000000	98.309217 
2491.000000	98.309536 
2490.000000	98.310009 
2489.000000	98.310408 
2488.000000	98.310457 
2487.000000	98.310384 
2486.000000	98.310758 
2485.000000	98.311816 
2484.000000	98.313137 
2483.000000	98.314031 
2482.000000	98.314123 
2481.000000	98.313556 
2480.000000	98.312801 
2479.000000	98.312388 
2478.000000	98.312696 
2477.000000	98.313690 
2476.000000	98.314708 
2475.000000	98.314817 
2474.000000	98.313623 
2473.000000	98.311704 
2472.000000	98.310077 
2471.000000	98.309182 
2470.000000	98.308750 
2469.000000	98.308578 
2468.000000	98.308915 
2467.000000	98.309853 
2466.000000	98.310729 
2465.000000	98.310702 
2464.000000	98.309909 
2463.000000	98.309549 
2462.000000	98.310726 
2461.000000	98.313420 
2460.000000	98.316519 
2459.000000	98.318700 
2458.000000	98.319256 
2457.000000	98.318263 
2456.000000	98.316226 
2455.000000	98.313869 
2454.000000	98.312009 
2453.000000	98.311120 
2452.000000	98.310767 
2451.000000	98.309866 
2450.000000	98.307941 
2449.000000	98.305823 
2448.000000	98.304615 
2447.000000	98.304302 
2446.000000	98.304033 
2445.000000	98.303482 
2444.000000	98.303162 
2443.000000	98.303441 
2442.000000	98.304040 
2441.000000	98.304521 
2440.000000	98.304682 
2439.000000	98.304513 
2438.000000	98.304459 
2437.000000	98.305507 
2436.000000	98.308143 
2435.000000	98.311337 
2434.000000	98.313428 
2433.000000	98.314043 
2432.000000	98.314208 
2431.000000	98.314737 
2430.000000	98.315492 
2429.000000	98.316215 
2428.000000	98.316867 
2427.000000	98.316894 
2426.000000	98.315293 
2425.000000	98.311942 
2424.000000	98.308354 
2423.000000	98.306458 
2422.000000	98.306899 
2421.000000	98.308946 
2420.000000	98.311439 
2419.000000	98.313124 
2418.000000	98.313108 
2417.000000	98.312081 
2416.000000	98.312077 
2415.000000	98.314002 
2414.000000	98.316342 
2413.000000	98.317659 
2412.000000	98.318958 
2411.000000	98.321649 
2410.000000	98.324591 
2409.000000	98.325398 
2408.000000	98.323742 
2407.000000	98.321287 
2406.000000	98.318963 
2405.000000	98.316188 
2404.000000	98.312606 
2403.000000	98.308938 
2402.000000	98.306304 
2401.000000	98.305927 
2400.000000	98.308927 
2399.000000	98.315016 
2398.000000	98.321757 
2397.000000	98.326435 
2396.000000	98.328386 
2395.000000	98.328581 
2394.000000	98.327801 
2393.000000	98.326637 
2392.000000	98.326369 
2391.000000	98.327835 
2390.000000	98.329551 
2389.000000	98.328610 
2388.000000	98.323577 
2387.000000	98.315408 
2386.000000	98.306023 
2385.000000	98.297504 
2384.000000	98.292319 
2383.000000	98.292448 
2382.000000	98.298236 
2381.000000	98.309640 
2380.000000	98.328137 
2379.000000	98.354837 
2378.000000	98.385683 
2377.000000	98.411184 
2376.000000	98.423291 
2375.000000	98.421241 
2374.000000	98.409506 
2373.000000	98.391912 
2372.000000	98.370836 
2371.000000	98.350863 
2370.000000	98.338107 
2369.000000	98.334283 
2368.000000	98.334093 
2367.000000	98.330866 
2366.000000	98.324240 
2365.000000	98.320620 
2364.000000	98.324974 
2363.000000	98.333254 
2362.000000	98.337908 
2361.000000	98.337220 
2360.000000	98.333032 
2359.000000	98.327844 
2358.000000	98.323005 
2357.000000	98.320846 
2356.000000	98.323023 
2355.000000	98.325707 
2354.000000	98.325553 
2353.000000	98.321670 
2352.000000	98.317119 
2351.000000	98.314631 
2350.000000	98.311609 
2349.000000	98.306255 
2348.000000	98.298426 
2347.000000	98.292047 
2346.000000	98.288465 
2345.000000	98.285471 
2344.000000	98.282662 
2343.000000	98.279608 
2342.000000	98.280226 
2341.000000	98.287015 
2340.000000	98.298735 
2339.000000	98.310169 
2338.000000	98.316207 
2337.000000	98.315291 
2336.000000	98.309067 
2335.000000	98.300302 
2334.000000	98.292695 
2333.000000	98.288357 
2332.000000	98.287093 
2331.000000	98.286394 
2330.000000	98.282163 
2329.000000	98.274279 
2328.000000	98.264256 
2327.000000	98.256201 
2326.000000	98.251933 
2325.000000	98.250539 
2324.000000	98.251581 
2323.000000	98.253901 
2322.000000	98.257315 
2321.000000	98.259001 
2320.000000	98.257972 
2319.000000	98.255844 
2318.000000	98.255380 
2317.000000	98.257214 
2316.000000	98.259416 
2315.000000	98.260400 
2314.000000	98.259082 
2313.000000	98.255339 
2312.000000	98.249271 
2311.000000	98.242625 
2310.000000	98.237391 
2309.000000	98.234652 
2308.000000	98.234266 
2307.000000	98.235945 
2306.000000	98.239068 
2305.000000	98.241356 
2304.000000	98.240268 
2303.000000	98.235193 
2302.000000	98.228563 
2301.000000	98.223664 
2300.000000	98.221845 
2299.000000	98.222176 
2298.000000	98.222529 
2297.000000	98.221971 
2296.000000	98.221161 
2295.000000	98.222105 
2294.000000	98.225877 
2293.000000	98.231706 
2292.000000	98.237515 
2291.000000	98.241640 
2290.000000	98.243942 
2289.000000	98.245382 
2288.000000	98.247042 
2287.000000	98.249045 
2286.000000	98.250965 
2285.000000	98.252686 
2284.000000	98.254825 
2283.000000	98.257575 
2282.000000	98.260049 
2281.000000	98.260933 
2280.000000	98.259800 
2279.000000	98.257213 
2278.000000	98.254365 
2277.000000	98.252718 
2276.000000	98.253377 
2275.000000	98.256274 
2274.000000	98.259972 
2273.000000	98.262879 
2272.000000	98.264449 
2271.000000	98.264979 
2270.000000	98.264765 
2269.000000	98.264084 
2268.000000	98.263600 
2267.000000	98.263920 
2266.000000	98.264856 
2265.000000	98.265692 
2264.000000	98.266024 
2263.000000	98.265963 
2262.000000	98.265721 
2261.000000	98.265430 
2260.000000	98.265286 
2259.000000	98.265409 
2258.000000	98.265689 
2257.000000	98.265944 
2256.000000	98.266120 
2255.000000	98.266239 
2254.000000	98.266283 
2253.000000	98.266219 
2252.000000	98.266043 
2251.000000	98.265771 
2250.000000	98.265417 
2249.000000	98.265001 
2248.000000	98.264559 
2247.000000	98.264122 
2246.000000	98.263707 
2245.000000	98.263312 
2244.000000	98.262925 
2243.000000	98.262539 
2242.000000	98.262162 
2241.000000	98.261815 
2240.000000	98.261511 
2239.000000	98.261250 
2238.000000	98.261014 
2237.000000	98.260775 
2236.000000	98.260498 
2235.000000	98.260164 
2234.000000	98.259768 
2233.000000	98.259322 
2232.000000	98.258844 
2231.000000	98.258350 
2230.000000	98.257854 
2229.000000	98.257363 
2228.000000	98.256882 
2227.000000	98.256410 
2226.000000	98.255938 
2225.000000	98.255446 
2224.000000	98.254919 
2223.000000	98.254365 
2222.000000	98.253814 
2221.000000	98.253294 
2220.000000	98.252806 
2219.000000	98.252329 
2218.000000	98.251837 
2217.000000	98.251329 
2216.000000	98.250821 
2215.000000	98.250332 
2214.000000	98.249871 
2213.000000	98.249436 
2212.000000	98.249028 
2211.000000	98.248659 
2210.000000	98.248344 
2209.000000	98.248090 
2208.000000	98.247892 
2207.000000	98.247734 
2206.000000	98.247603 
2205.000000	98.247480 
2204.000000	98.247348 
2203.000000	98.247189 
2202.000000	98.246996 
2201.000000	98.246761 
2200.000000	98.246478 
2199.000000	98.246140 
2198.000000	98.245752 
2197.000000	98.245332 
2196.000000	98.244904 
2195.000000	98.244485 
2194.000000	98.244093 
2193.000000	98.243747 
2192.000000	98.243461 
2191.000000	98.243227 
2190.000000	98.243019 
2189.000000	98.242804 
2188.000000	98.242570 
2187.000000	98.242314 
2186.000000	98.242043 
2185.000000	98.241766 
2184.000000	98.241509 
2183.000000	98.241317 
2182.000000	98.241222 
2181.000000	98.241220 
2180.000000	98.241270 
2179.000000	98.241332 
2178.000000	98.241398 
2177.000000	98.241495 
2176.000000	98.241657 
2175.000000	98.241896 
2174.000000	98.242190 
2173.000000	98.242509 
2172.000000	98.242831 
2171.000000	98.243149 
2170.000000	98.243462 
2169.000000	98.243765 
2168.000000	98.244055 
2167.000000	98.244339 
2166.000000	98.244632 
2165.000000	98.244948 
2164.000000	98.245299 
2163.000000	98.245694 
2162.000000	98.246141 
2161.000000	98.246651 
2160.000000	98.247224 
2159.000000	98.247850 
2158.000000	98.248519 
2157.000000	98.249235 
2156.000000	98.250004 
2155.000000	98.250816 
2154.000000	98.251650 
2153.000000	98.252488 
2152.000000	98.253329 
2151.000000	98.254185 
2150.000000	98.255028 
2149.000000	98.255771 
2148.000000	98.256385 
2147.000000	98.257058 
2146.000000	98.258027 
2145.000000	98.259300 
2144.000000	98.260616 
2143.000000	98.261844 
2142.000000	98.263102 
2141.000000	98.264425 
2140.000000	98.265617 
2139.000000	98.266667 
2138.000000	98.268016 
2137.000000	98.269947 
2136.000000	98.271910 
2135.000000	98.273004 
2134.000000	98.272942 
2133.000000	98.272199 
2132.000000	98.271760 
2131.000000	98.272291 
2130.000000	98.273710 
2129.000000	98.275403 
2128.000000	98.276810 
2127.000000	98.277925 
2126.000000	98.279084 
2125.000000	98.280399 
2124.000000	98.281626 
2123.000000	98.282528 
2122.000000	98.283084 
2121.000000	98.283300 
2120.000000	98.283101 
2119.000000	98.282555 
2118.000000	98.282056 
2117.000000	98.282089 
2116.000000	98.282799 
2115.000000	98.283864 
2114.000000	98.284748 
2113.000000	98.285197 
2112.000000	98.285412 
2111.000000	98.285789 
2110.000000	98.286527 
2109.000000	98.287507 
2108.000000	98.288502 
2107.000000	98.289397 
2106.000000	98.290170 
2105.000000	98.290832 
2104.000000	98.291414 
2103.000000	98.291940 
2102.000000	98.292381 
2101.000000	98.292684 
2100.000000	98.292882 
2099.000000	98.293102 
2098.000000	98.293463 
2097.000000	98.293934 
2096.000000	98.294418 
2095.000000	98.294845 
2094.000000	98.295212 
2093.000000	98.295546 
2092.000000	98.295871 
2091.000000	98.296193 
2090.000000	98.296504 
2089.000000	98.296788 
2088.000000	98.297026 
2087.000000	98.297200 
2086.000000	98.297299 
2085.000000	98.297332 
2084.000000	98.297323 
2083.000000	98.297301 
2082.000000	98.297298 
2081.000000	98.297339 
2080.000000	98.297443 
2079.000000	98.297615 
2078.000000	98.297839 
2077.000000	98.298082 
2076.000000	98.298313 
2075.000000	98.298515 
2074.000000	98.298686 
2073.000000	98.298840 
2072.000000	98.298980 
2071.000000	98.299091 
2070.000000	98.299156 
2069.000000	98.299181 
2068.000000	98.299189 
2067.000000	98.299210 
2066.000000	98.299252 
2065.000000	98.299271 
2064.000000	98.299205 
2063.000000	98.299047 
2062.000000	98.298891 
2061.000000	98.298928 
2060.000000	98.299264 
2059.000000	98.299833 
2058.000000	98.300424 
2057.000000	98.300844 
2056.000000	98.300957 
2055.000000	98.300665 
2054.000000	98.300117 
2053.000000	98.299801 
2052.000000	98.300145 
2051.000000	98.301029 
2050.000000	98.301781 
2049.000000	98.301916 
2048.000000	98.301653 
2047.000000	98.301576 
2046.000000	98.301901 
2045.000000	98.302413 
2044.000000	98.302988 
2043.000000	98.303794 
2042.000000	98.304967 
2041.000000	98.306448 
2040.000000	98.308200 
2039.000000	98.310297 
2038.000000	98.312536 
2037.000000	98.314184 
2036.000000	98.314605 
2035.000000	98.313956 
2034.000000	98.313137 
2033.000000	98.312967 
2032.000000	98.313532 
2031.000000	98.314366 
2030.000000	98.314943 
2029.000000	98.314997 
2028.000000	98.314597 
2027.000000	98.314043 
2026.000000	98.313638 
2025.000000	98.313574 
2024.000000	98.314039 
2023.000000	98.315300 
2022.000000	98.317435 
2021.000000	98.319781 
2020.000000	98.321014 
2019.000000	98.320271 
2018.000000	98.317783 
2017.000000	98.314764 
2016.000000	98.312517 
2015.000000	98.311514 
2014.000000	98.311422 
2013.000000	98.311505 
2012.000000	98.311376 
2011.000000	98.311404 
2010.000000	98.312087 
2009.000000	98.313165 
2008.000000	98.313663 
2007.000000	98.312992 
2006.000000	98.311602 
2005.000000	98.310417 
2004.000000	98.309771 
2003.000000	98.309389 
2002.000000	98.309051 
2001.000000	98.308752 
2000.000000	98.308277 
1999.000000	98.307136 
1998.000000	98.305139 
1997.000000	98.302697 
1996.000000	98.300482 
1995.000000	98.298904 
1994.000000	98.297956 
1993.000000	98.297345 
1992.000000	98.296667 
1991.000000	98.295773 
1990.000000	98.294919 
1989.000000	98.294409 
1988.000000	98.294187 
1987.000000	98.293893 
1986.000000	98.293280 
1985.000000	98.292426 
1984.000000	98.291540 
1983.000000	98.290724 
1982.000000	98.289946 
1981.000000	98.289171 
1980.000000	98.288401 
1979.000000	98.287632 
1978.000000	98.286848 
1977.000000	98.286053 
1976.000000	98.285280 
1975.000000	98.284576 
1974.000000	98.283974 
1973.000000	98.283477 
1972.000000	98.283045 
1971.000000	98.282612 
1970.000000	98.282126 
1969.000000	98.281558 
1968.000000	98.280899 
1967.000000	98.280174 
1966.000000	98.279472 
1965.000000	98.278927 
1964.000000	98.278626 
1963.000000	98.278544 
1962.000000	98.278575 
1961.000000	98.278573 
1960.000000	98.278396 
1959.000000	98.277966 
1958.000000	98.277343 
1957.000000	98.276744 
1956.000000	98.276356 
1955.000000	98.276184 
1954.000000	98.276035 
1953.000000	98.275708 
1952.000000	98.275192 
1951.000000	98.274607 
1950.000000	98.274031 
1949.000000	98.273547 
1948.000000	98.273331 
1947.000000	98.273457 
1946.000000	98.273600 
1945.000000	98.273236 
1944.000000	98.272185 
1943.000000	98.270782 
1942.000000	98.269452 
1941.000000	98.268263 
1940.000000	98.267137 
1939.000000	98.266118 
1938.000000	98.265346 
1937.000000	98.265050 
1936.000000	98.265471 
1935.000000	98.266430 
1934.000000	98.267174 
1933.000000	98.267243 
1932.000000	98.267218 
1931.000000	98.267977 
1930.000000	98.269399 
1929.000000	98.270396 
1928.000000	98.270357 
1927.000000	98.269833 
1926.000000	98.269617 
1925.000000	98.269669 
1924.000000	98.269366 
1923.000000	98.268330 
1922.000000	98.266675 
1921.000000	98.264844 
1920.000000	98.263568 
1919.000000	98.263540 
1918.000000	98.264546 
1917.000000	98.265164 
1916.000000	98.264390 
1915.000000	98.263036 
1914.000000	98.262557 
1913.000000	98.263143 
1912.000000	98.263601 
1911.000000	98.263123 
1910.000000	98.262198 
1909.000000	98.261675 
1908.000000	98.261654 
1907.000000	98.261694 
1906.000000	98.261454 
1905.000000	98.260732 
1904.000000	98.259431 
1903.000000	98.257872 
1902.000000	98.256714 
1901.000000	98.256234 
1900.000000	98.256124 
1899.000000	98.256035 
1898.000000	98.255877 
1897.000000	98.255662 
1896.000000	98.255316 
1895.000000	98.254771 
1894.000000	98.254060 
1893.000000	98.253289 
1892.000000	98.252608 
1891.000000	98.252157 
1890.000000	98.251972 
1889.000000	98.251916 
1888.000000	98.251802 
1887.000000	98.251597 
1886.000000	98.251401 
1885.000000	98.251260 
1884.000000	98.251097 
1883.000000	98.250842 
1882.000000	98.250598 
1881.000000	98.250573 
1880.000000	98.250841 
1879.000000	98.251223 
1878.000000	98.251444 
1877.000000	98.251485 
1876.000000	98.251645 
1875.000000	98.252161 
1874.000000	98.252963 
1873.000000	98.253774 
1872.000000	98.254422 
1871.000000	98.254944 
1870.000000	98.255452 
1869.000000	98.256040 
1868.000000	98.256795 
1867.000000	98.257789 
1866.000000	98.258937 
1865.000000	98.259897 
1864.000000	98.260342 
1863.000000	98.260379 
1862.000000	98.260642 
1861.000000	98.261675 
1860.000000	98.263447 
1859.000000	98.265500 
1858.000000	98.267500 
1857.000000	98.269337 
1856.000000	98.270960 
1855.000000	98.272431 
1854.000000	98.273871 
1853.000000	98.275260 
1852.000000	98.276571 
1851.000000	98.278018 
1850.000000	98.279851 
1849.000000	98.281956 
1848.000000	98.283863 
1847.000000	98.285273 
1846.000000	98.286383 
1845.000000	98.287642 
1844.000000	98.289273 
1843.000000	98.291192 
1842.000000	98.293227 
1841.000000	98.295170 
1840.000000	98.297042 
1839.000000	98.299095 
1838.000000	98.301244 
1837.000000	98.302847 
1836.000000	98.303491 
1835.000000	98.303818 
1834.000000	98.304830 
1833.000000	98.306632 
1832.000000	98.308601 
1831.000000	98.310207 
1830.000000	98.311308 
1829.000000	98.312164 
1828.000000	98.313266 
1827.000000	98.314845 
1826.000000	98.316771 
1825.000000	98.318773 
1824.000000	98.320477 
1823.000000	98.321547 
1822.000000	98.321837 
1821.000000	98.321284 
1820.000000	98.319991 
1819.000000	98.318528 
1818.000000	98.318076 
1817.000000	98.319437 
1816.000000	98.321933 
1815.000000	98.324172 
1814.000000	98.325673 
1813.000000	98.326922 
1812.000000	98.327946 
1811.000000	98.327773 
1810.000000	98.326327 
1809.000000	98.325315 
1808.000000	98.325926 
1807.000000	98.327434 
1806.000000	98.328639 
1805.000000	98.329218 
1804.000000	98.329316 
1803.000000	98.328845 
1802.000000	98.327872 
1801.000000	98.327283 
1800.000000	98.327611 
1799.000000	98.328142 
1798.000000	98.328347 
1797.000000	98.328346 
1796.000000	98.328090 
1795.000000	98.327673 
1794.000000	98.327908 
1793.000000	98.329571 
1792.000000	98.331538 
1791.000000	98.331756 
1790.000000	98.330536 
1789.000000	98.330070 
1788.000000	98.331585 
1787.000000	98.334523 
1786.000000	98.337572 
1785.000000	98.339882 
1784.000000	98.341326 
1783.000000	98.342234 
1782.000000	98.342964 
1781.000000	98.343843 
1780.000000	98.345134 
1779.000000	98.346912 
1778.000000	98.349193 
1777.000000	98.351678 
1776.000000	98.353707 
1775.000000	98.354880 
1774.000000	98.355435 
1773.000000	98.356180 
1772.000000	98.357647 
1771.000000	98.359539 
1770.000000	98.361349 
1769.000000	98.362958 
1768.000000	98.364539 
1767.000000	98.366116 
1766.000000	98.367545 
1765.000000	98.368886 
1764.000000	98.370352 
1763.000000	98.371942 
1762.000000	98.373348 
1761.000000	98.374451 
1760.000000	98.375510 
1759.000000	98.376723 
1758.000000	98.378031 
1757.000000	98.379340 
1756.000000	98.380725 
1755.000000	98.382194 
1754.000000	98.383455 
1753.000000	98.384219 
1752.000000	98.384690 
1751.000000	98.385624 
1750.000000	98.387444 
1749.000000	98.389686 
1748.000000	98.391568 
1747.000000	98.392889 
1746.000000	98.393829 
1745.000000	98.394642 
1744.000000	98.395628 
1743.000000	98.396836 
1742.000000	98.397848 
1741.000000	98.398422 
1740.000000	98.399097 
1739.000000	98.400570 
1738.000000	98.402484 
1737.000000	98.403784 
1736.000000	98.403828 
1735.000000	98.402914 
1734.000000	98.401471 
1733.000000	98.400149 
1732.000000	98.400544 
1731.000000	98.403554 
1730.000000	98.408425 
1729.000000	98.412687 
1728.000000	98.414393 
1727.000000	98.413972 
1726.000000	98.413161 
1725.000000	98.412938 
1724.000000	98.413056 
1723.000000	98.413178 
1722.000000	98.413673 
1721.000000	98.414695 
1720.000000	98.415723 
1719.000000	98.415985 
1718.000000	98.414987 
1717.000000	98.413553 
1716.000000	98.412119 
1715.000000	98.409813 
1714.000000	98.407185 
1713.000000	98.405489 
1712.000000	98.404588 
1711.000000	98.403872 
1710.000000	98.403087 
1709.000000	98.402106 
1708.000000	98.401013 
1707.000000	98.400330 
1706.000000	98.400515 
1705.000000	98.400556 
1704.000000	98.397933 
1703.000000	98.391485 
1702.000000	98.382559 
1701.000000	98.375581 
1700.000000	98.372191 
1699.000000	98.368923 
1698.000000	98.365509 
1697.000000	98.364246 
1696.000000	98.365372 
1695.000000	98.366624 
1694.000000	98.366585 
1693.000000	98.365553 
1692.000000	98.363536 
1691.000000	98.360658 
1690.000000	98.357259 
1689.000000	98.353533 
1688.000000	98.349546 
1687.000000	98.345572 
1686.000000	98.342554 
1685.000000	98.341680 
1684.000000	98.341085 
1683.000000	98.338627 
1682.000000	98.335486 
1681.000000	98.332421 
1680.000000	98.329704 
1679.000000	98.327415 
1678.000000	98.325160 
1677.000000	98.322521 
1676.000000	98.319631 
1675.000000	98.316789 
1674.000000	98.313735 
1673.000000	98.310293 
1672.000000	98.306845 
1671.000000	98.304145 
1670.000000	98.302243 
1669.000000	98.299801 
1668.000000	98.296712 
1667.000000	98.294403 
1666.000000	98.292985 
1665.000000	98.291693 
1664.000000	98.290600 
1663.000000	98.290082 
1662.000000	98.289087 
1661.000000	98.286006 
1660.000000	98.281220 
1659.000000	98.276853 
1658.000000	98.274634 
1657.000000	98.273458 
1656.000000	98.271399 
1655.000000	98.268387 
1654.000000	98.267824 
1653.000000	98.264963 
1652.000000	98.255864 
1651.000000	98.249707 
1650.000000	98.246915 
1649.000000	98.244465 
1648.000000	98.242880 
1647.000000	98.241803 
1646.000000	98.238756 
1645.000000	98.234412 
1644.000000	98.231020 
1643.000000	98.229183 
1642.000000	98.228730 
1641.000000	98.229270 
1640.000000	98.229592 
1639.000000	98.228448 
1638.000000	98.226087 
1637.000000	98.224675 
1636.000000	98.224681 
1635.000000	98.224635 
1634.000000	98.225547 
1633.000000	98.227046 
1632.000000	98.226428 
1631.000000	98.223933 
1630.000000	98.222612 
1629.000000	98.224190 
1628.000000	98.227626 
1627.000000	98.231334 
1626.000000	98.234804 
1625.000000	98.238283 
1624.000000	98.242622 
1623.000000	98.247982 
1622.000000	98.252673 
1621.000000	98.254281 
1620.000000	98.252272 
1619.000000	98.248934 
1618.000000	98.247993 
1617.000000	98.249231 
1616.000000	98.248891 
1615.000000	98.248463 
1614.000000	98.250687 
1613.000000	98.253501 
1612.000000	98.254477 
1611.000000	98.254301 
1610.000000	98.255443 
1609.000000	98.259112 
1608.000000	98.264791 
1607.000000	98.271317 
1606.000000	98.276527 
1605.000000	98.278911 
1604.000000	98.279952 
1603.000000	98.282686 
1602.000000	98.288063 
1601.000000	98.294114 
1600.000000	98.298955 
1599.000000	98.302747 
1598.000000	98.306083 
1597.000000	98.308923 
1596.000000	98.311412 
1595.000000	98.314445 
1594.000000	98.318600 
1593.000000	98.323114 
1592.000000	98.327165 
1591.000000	98.331248 
1590.000000	98.335995 
1589.000000	98.340703 
1588.000000	98.344649 
1587.000000	98.348604 
1586.000000	98.353025 
1585.000000	98.356600 
1584.000000	98.358785 
1583.000000	98.361085 
1582.000000	98.364560 
1581.000000	98.368130 
1580.000000	98.370491 
1579.000000	98.372325 
1578.000000	98.375929 
1577.000000	98.382498 
1576.000000	98.389040 
1575.000000	98.394071 
1574.000000	98.399546 
1573.000000	98.404827 
1572.000000	98.409044 
1571.000000	98.413615 
1570.000000	98.417803 
1569.000000	98.417359 
1568.000000	98.413310 
1567.000000	98.410327 
1566.000000	98.409621 
1565.000000	98.410055 
1564.000000	98.412124 
1563.000000	98.414525 
1562.000000	98.415503 
1561.000000	98.413406 
1560.000000	98.415280 
1559.000000	98.420516 
1558.000000	98.417810 
1557.000000	98.414374 
1556.000000	98.414620 
1555.000000	98.416039 
1554.000000	98.415478 
1553.000000	98.413054 
1552.000000	98.409711 
1551.000000	98.405864 
1550.000000	98.401381 
1549.000000	98.397216 
1548.000000	98.394415 
1547.000000	98.392713 
1546.000000	98.390548 
1545.000000	98.387548 
1544.000000	98.385100 
1543.000000	98.384414 
1542.000000	98.385913 
1541.000000	98.388560 
1540.000000	98.384736 
1539.000000	98.372218 
1538.000000	98.360286 
1537.000000	98.352074 
1536.000000	98.344800 
1535.000000	98.338449 
1534.000000	98.335104 
1533.000000	98.333809 
1532.000000	98.330930 
1531.000000	98.324718 
1530.000000	98.316688 
1529.000000	98.309216 
1528.000000	98.303163 
1527.000000	98.297951 
1526.000000	98.292836 
1525.000000	98.287872 
1524.000000	98.283339 
1523.000000	98.279084 
1522.000000	98.274202 
1521.000000	98.266980 
1520.000000	98.257453 
1519.000000	98.247536 
1518.000000	98.238502 
1517.000000	98.230812 
1516.000000	98.224290 
1515.000000	98.218714 
1514.000000	98.213825 
1513.000000	98.209025 
1512.000000	98.203525 
1511.000000	98.196566 
1510.000000	98.188424 
1509.000000	98.180412 
1508.000000	98.174501 
1507.000000	98.170233 
1506.000000	98.164472 
1505.000000	98.157139 
1504.000000	98.149683 
1503.000000	98.142200 
1502.000000	98.134563 
1501.000000	98.127321 
1500.000000	98.121028 
1499.000000	98.115503 
1498.000000	98.109632 
1497.000000	98.102950 
1496.000000	98.096173 
1495.000000	98.089983 
1494.000000	98.084309 
1493.000000	98.078902 
1492.000000	98.074001 
1491.000000	98.070084 
1490.000000	98.066668 
1489.000000	98.062521 
1488.000000	98.056736 
1487.000000	98.049341 
1486.000000	98.041536 
1485.000000	98.033682 
1484.000000	98.025491 
1483.000000	98.017688 
1482.000000	98.011419 
1481.000000	98.006843 
1480.000000	98.002594 
1479.000000	97.997469 
1478.000000	97.991758 
1477.000000	97.986379 
1476.000000	97.980852 
1475.000000	97.973544 
1474.000000	97.965011 
1473.000000	97.958765 
1472.000000	97.956317 
1471.000000	97.954656 
1470.000000	97.951191 
1469.000000	97.945946 
1468.000000	97.939493 
1467.000000	97.932243 
1466.000000	97.925903 
1465.000000	97.922851 
1464.000000	97.922188 
1463.000000	97.919519 
1462.000000	97.912560 
1461.000000	97.903667 
1460.000000	97.896775 
1459.000000	97.893668 
1458.000000	97.891152 
1457.000000	97.884905 
1456.000000	97.877693 
1455.000000	97.872449 
1454.000000	97.865819 
1453.000000	97.857655 
1452.000000	97.851738 
1451.000000	97.850603 
1450.000000	97.853088 
1449.000000	97.857790 
1448.000000	97.863755 
1447.000000	97.868603 
1446.000000	97.870044 
1445.000000	97.869120 
1444.000000	97.868688 
1443.000000	97.869371 
1442.000000	97.869609 
1441.000000	97.867716 
1440.000000	97.863318 
1439.000000	97.857165 
1438.000000	97.851103 
1437.000000	97.848871 
1436.000000	97.852357 
1435.000000	97.857026 
1434.000000	97.857739 
1433.000000	97.855699 
1432.000000	97.855468 
1431.000000	97.860155 
1430.000000	97.868015 
1429.000000	97.874877 
1428.000000	97.878652 
1427.000000	97.880375 
1426.000000	97.882616 
1425.000000	97.887466 
1424.000000	97.895356 
1423.000000	97.902891 
1422.000000	97.906183 
1421.000000	97.906939 
1420.000000	97.911455 
1419.000000	97.920437 
1418.000000	97.926130 
1417.000000	97.927220 
1416.000000	97.930641 
1415.000000	97.939159 
1414.000000	97.948281 
1413.000000	97.953389 
1412.000000	97.955991 
1411.000000	97.960254 
1410.000000	97.966077 
1409.000000	97.971092 
1408.000000	97.975489 
1407.000000	97.981254 
1406.000000	97.989059 
1405.000000	97.998427 
1404.000000	98.009469 
1403.000000	98.020422 
1402.000000	98.028008 
1401.000000	98.032707 
1400.000000	98.039361 
1399.000000	98.051083 
1398.000000	98.064497 
1397.000000	98.075149 
1396.000000	98.083900 
1395.000000	98.094252 
1394.000000	98.105871 
1393.000000	98.116101 
1392.000000	98.125938 
1391.000000	98.137667 
1390.000000	98.150949 
1389.000000	98.163333 
1388.000000	98.172607 
1387.000000	98.178369 
1386.000000	98.181827 
1385.000000	98.185244 
1384.000000	98.191029 
1383.000000	98.199881 
1382.000000	98.209988 
1381.000000	98.219054 
1380.000000	98.226489 
1379.000000	98.233876 
1378.000000	98.243183 
1377.000000	98.254610 
1376.000000	98.266521 
1375.000000	98.277088 
1374.000000	98.285604 
1373.000000	98.292907 
1372.000000	98.300339 
1371.000000	98.308905 
1370.000000	98.318980 
1369.000000	98.329214 
1368.000000	98.338205 
1367.000000	98.345924 
1366.000000	98.353498 
1365.000000	98.362345 
1364.000000	98.372114 
1363.000000	98.379977 
1362.000000	98.383897 
1361.000000	98.385771 
1360.000000	98.389504 
1359.000000	98.397139 
1358.000000	98.407472 
1357.000000	98.417584 
1356.000000	98.425558 
1355.000000	98.431518 
1354.000000	98.436632 
1353.000000	98.442279 
1352.000000	98.448687 
1351.000000	98.455389 
1350.000000	98.462354 
1349.000000	98.468345 
1348.000000	98.472173 
1347.000000	98.474783 
1346.000000	98.478788 
1345.000000	98.485243 
1344.000000	98.492487 
1343.000000	98.498642 
1342.000000	98.503798 
1341.000000	98.508613 
1340.000000	98.512314 
1339.000000	98.513712 
1338.000000	98.513003 
1337.000000	98.511549 
1336.000000	98.510477 
1335.000000	98.510054 
1334.000000	98.510305 
1333.000000	98.511279 
1332.000000	98.512376 
1331.000000	98.512724 
1330.000000	98.512327 
1329.000000	98.512182 
1328.000000	98.513342 
1327.000000	98.516254 
1326.000000	98.520170 
1325.000000	98.522537 
1324.000000	98.521300 
1323.000000	98.516853 
1322.000000	98.511410 
1321.000000	98.507110 
1320.000000	98.505228 
1319.000000	98.506223 
1318.000000	98.509452 
1317.000000	98.513187 
1316.000000	98.515373 
1315.000000	98.514669 
1314.000000	98.511279 
1313.000000	98.507491 
1312.000000	98.506416 
1311.000000	98.509100 
1310.000000	98.513264 
1309.000000	98.515879 
1308.000000	98.516442 
1307.000000	98.516862 
1306.000000	98.518491 
1305.000000	98.520312 
1304.000000	98.520987 
1303.000000	98.520379 
1302.000000	98.518812 
1301.000000	98.516379 
1300.000000	98.513833 
1299.000000	98.512660 
1298.000000	98.513199 
1297.000000	98.513819 
1296.000000	98.513017 
1295.000000	98.511734 
1294.000000	98.512068 
1293.000000	98.514323 
1292.000000	98.516686 
1291.000000	98.517616 
1290.000000	98.517454 
1289.000000	98.517390 
1288.000000	98.517631 
1287.000000	98.517307 
1286.000000	98.515968 
1285.000000	98.514648 
1284.000000	98.515019 
1283.000000	98.517142 
1282.000000	98.518664 
1281.000000	98.517042 
1280.000000	98.512584 
1279.000000	98.508663 
1278.000000	98.508452 
1277.000000	98.511955 
1276.000000	98.516270 
1275.000000	98.518411 
1274.000000	98.517585 
1273.000000	98.515429 
1272.000000	98.514530 
1271.000000	98.516143 
1270.000000	98.518917 
1269.000000	98.520250 
1268.000000	98.519042 
1267.000000	98.516276 
1266.000000	98.512941 
1265.000000	98.509308 
1264.000000	98.506513 
1263.000000	98.506617 
1262.000000	98.509900 
1261.000000	98.513640 
1260.000000	98.515336 
1259.000000	98.516015 
1258.000000	98.518092 
1257.000000	98.521019 
1256.000000	98.521384 
1255.000000	98.517710 
1254.000000	98.513282 
1253.000000	98.512776 
1252.000000	98.516671 
1251.000000	98.520634 
1250.000000	98.520630 
1249.000000	98.517401 
1248.000000	98.515052 
1247.000000	98.515766 
1246.000000	98.517236 
1245.000000	98.515890 
1244.000000	98.511195 
1243.000000	98.505731 
1242.000000	98.502158 
1241.000000	98.501389 
1240.000000	98.502762 
1239.000000	98.504161 
1238.000000	98.502505 
1237.000000	98.496102 
1236.000000	98.486697 
1235.000000	98.477916 
1234.000000	98.471530 
1233.000000	98.466255 
1232.000000	98.459940 
1231.000000	98.451416 
1230.000000	98.440516 
1229.000000	98.428036 
1228.000000	98.415399 
1227.000000	98.402512 
1226.000000	98.386088 
1225.000000	98.362170 
1224.000000	98.330776 
1223.000000	98.296421 
1222.000000	98.263517 
1221.000000	98.232667 
1220.000000	98.201877 
1219.000000	98.169361 
1218.000000	98.133927 
1217.000000	98.094347 
1216.000000	98.049837 
1215.000000	98.000723 
1214.000000	97.948478 
1213.000000	97.895931 
1212.000000	97.846566 
1211.000000	97.801047 
1210.000000	97.754662 
1209.000000	97.701442 
1208.000000	97.641505 
1207.000000	97.581523 
1206.000000	97.526776 
1205.000000	97.475406 
1204.000000	97.422204 
1203.000000	97.365322 
1202.000000	97.307059 
1201.000000	97.249767 
1200.000000	97.193334 
1199.000000	97.136128 
1198.000000	97.076856 
1197.000000	97.015901 
1196.000000	96.955371 
1195.000000	96.897081 
1194.000000	96.840478 
1193.000000	96.783442 
1192.000000	96.724829 
1191.000000	96.664713 
1190.000000	96.602636 
1189.000000	96.537683 
1188.000000	96.470176 
1187.000000	96.401293 
1186.000000	96.331231 
1185.000000	96.259680 
1184.000000	96.187485 
1183.000000	96.115510 
1182.000000	96.042581 
1181.000000	95.967103 
1180.000000	95.889775 
1179.000000	95.811626 
1178.000000	95.730288 
1177.000000	95.642140 
1176.000000	95.547871 
1175.000000	95.452132 
1174.000000	95.357800 
1173.000000	95.264335 
1172.000000	95.171485 
1171.000000	95.079853 
1170.000000	94.987697 
1169.000000	94.892569 
1168.000000	94.797373 
1167.000000	94.710206 
1166.000000	94.637411 
1165.000000	94.581670 
1164.000000	94.547155 
1163.000000	94.539792 
1162.000000	94.559597 
1161.000000	94.596929 
1160.000000	94.637826 
1159.000000	94.669378 
1158.000000	94.680310 
1157.000000	94.663153 
1156.000000	94.618812 
1155.000000	94.555256 
1154.000000	94.479899 
1153.000000	94.396381 
1152.000000	94.309067 
1151.000000	94.224598 
1150.000000	94.146290 
1149.000000	94.071878 
1148.000000	93.999253 
1147.000000	93.929446 
1146.000000	93.861645 
1145.000000	93.790790 
1144.000000	93.713701 
1143.000000	93.633403 
1142.000000	93.554321 
1141.000000	93.476955 
1140.000000	93.399895 
1139.000000	93.323042 
1138.000000	93.246271 
1137.000000	93.168658 
1136.000000	93.091096 
1135.000000	93.015872 
1134.000000	92.942131 
1133.000000	92.866042 
1132.000000	92.786635 
1131.000000	92.706605 
1130.000000	92.626318 
1129.000000	92.542752 
1128.000000	92.455926 
1127.000000	92.370238 
1126.000000	92.287132 
1125.000000	92.202439 
1124.000000	92.113557 
1123.000000	92.023403 
1122.000000	91.934462 
1121.000000	91.844894 
1120.000000	91.753757 
1119.000000	91.664368 
1118.000000	91.579246 
1117.000000	91.497255 
1116.000000	91.418344 
1115.000000	91.345116 
1114.000000	91.277035 
1113.000000	91.209368 
1112.000000	91.140582 
1111.000000	91.074317 
1110.000000	91.011569 
1109.000000	90.947828 
1108.000000	90.880344 
1107.000000	90.811169 
1106.000000	90.741202 
1105.000000	90.668264 
1104.000000	90.592898 
1103.000000	90.519099 
1102.000000	90.447113 
1101.000000	90.373471 
1100.000000	90.299402 
1099.000000	90.230584 
1098.000000	90.168936 
1097.000000	90.110622 
1096.000000	90.054070 
1095.000000	90.000472 
1094.000000	89.945886 
1093.000000	89.883227 
1092.000000	89.814608 
1091.000000	89.751864 
1090.000000	89.701940 
1089.000000	89.660629 
1088.000000	89.622282 
1087.000000	89.585392 
1086.000000	89.546608 
1085.000000	89.500662 
1084.000000	89.449909 
1083.000000	89.403754 
1082.000000	89.365063 
1081.000000	89.327007 
1080.000000	89.286435 
1079.000000	89.249280 
1078.000000	89.218299 
1077.000000	89.185687 
1076.000000	89.142764 
1075.000000	89.087818 
1074.000000	89.020802 
1073.000000	88.940046 
1072.000000	88.847858 
1071.000000	88.749240 
1070.000000	88.640529 
1069.000000	88.509433 
1068.000000	88.351701 
1067.000000	88.179349 
1066.000000	88.007981 
1065.000000	87.843982 
1064.000000	87.687750 
1063.000000	87.538474 
1062.000000	87.389564 
1061.000000	87.229472 
1060.000000	87.054307 
1059.000000	86.872820 
1058.000000	86.694516 
1057.000000	86.520383 
1056.000000	86.348573 
1055.000000	86.179356 
1054.000000	86.009703 
1053.000000	85.832522 
1052.000000	85.647030 
1051.000000	85.461393 
1050.000000	85.279849 
1049.000000	85.096413 
1048.000000	84.905496 
1047.000000	84.708380 
1046.000000	84.506553 
1045.000000	84.299946 
1044.000000	84.093818 
1043.000000	83.896183 
1042.000000	83.706287 
1041.000000	83.516304 
1040.000000	83.325952 
1039.000000	83.144006 
1038.000000	82.974087 
1037.000000	82.811592 
1036.000000	82.656324 
1035.000000	82.515040 
1034.000000	82.389446 
1033.000000	82.274670 
1032.000000	82.171021 
1031.000000	82.083663 
1030.000000	82.009566 
1029.000000	81.939311 
1028.000000	81.873142 
1027.000000	81.820164 
1026.000000	81.780249 
1025.000000	81.742330 
1024.000000	81.702263 
1023.000000	81.666300 
1022.000000	81.634659 
1021.000000	81.598348 
1020.000000	81.555390 
1019.000000	81.514378 
1018.000000	81.478869 
1017.000000	81.443591 
1016.000000	81.408536 
1015.000000	81.380832 
1014.000000	81.359780 
1013.000000	81.335970 
1012.000000	81.308361 
1011.000000	81.286672 
1010.000000	81.274243 
1009.000000	81.264522 
1008.000000	81.257290 
1007.000000	81.262175 
1006.000000	81.282867 
1005.000000	81.313294 
1004.000000	81.351400 
1003.000000	81.400209 
1002.000000	81.453201 
1001.000000	81.496846 
1000.000000	81.532095 
999.000000	 81.576200 
998.000000	 81.638395 
997.000000	 81.709694 
996.000000	 81.780757 
995.000000	 81.853929 
994.000000	 81.932645 
993.000000	 82.014392 
992.000000	 82.099341 
991.000000	 82.191693 
990.000000	 82.288302 
989.000000	 82.380209 
988.000000	 82.469066 
987.000000	 82.567463 
986.000000	 82.679844 
985.000000	 82.798342 
984.000000	 82.920476 
983.000000	 83.054464 
982.000000	 83.202058 
981.000000	 83.352080 
980.000000	 83.497108 
979.000000	 83.642370 
978.000000	 83.792425 
977.000000	 83.943403 
976.000000	 84.094590 
975.000000	 84.254031 
974.000000	 84.425482 
973.000000	 84.601435 
972.000000	 84.775387 
971.000000	 84.950507 
970.000000	 85.130558 
969.000000	 85.312192 
968.000000	 85.491265 
967.000000	 85.667823 
966.000000	 85.841228 
965.000000	 86.009415 
964.000000	 86.175850 
963.000000	 86.347920 
962.000000	 86.525584 
961.000000	 86.700493 
960.000000	 86.868121 
959.000000	 87.031239 
958.000000	 87.190100 
957.000000	 87.339780 
956.000000	 87.479935 
955.000000	 87.617713 
954.000000	 87.757987 
953.000000	 87.898471 
952.000000	 88.035923 
951.000000	 88.168760 
950.000000	 88.293143 
949.000000	 88.405782 
948.000000	 88.511238 
947.000000	 88.617395 
946.000000	 88.723231 
945.000000	 88.820445 
944.000000	 88.906930 
943.000000	 88.988681 
942.000000	 89.068605 
941.000000	 89.144305 
940.000000	 89.217691 
939.000000	 89.295398 
938.000000	 89.377897 
937.000000	 89.458779 
936.000000	 89.536402 
935.000000	 89.615730 
934.000000	 89.697390 
933.000000	 89.776075 
932.000000	 89.851727 
931.000000	 89.931247 
930.000000	 90.016235 
929.000000	 90.099324 
928.000000	 90.175849 
927.000000	 90.249718 
926.000000	 90.324655 
925.000000	 90.398089 
924.000000	 90.466218 
923.000000	 90.527463 
922.000000	 90.579679 
921.000000	 90.622192 
920.000000	 90.661502 
919.000000	 90.706459 
918.000000	 90.756809 
917.000000	 90.804677 
916.000000	 90.847782 
915.000000	 90.892741 
914.000000	 90.945337 
913.000000	 91.006563 
912.000000	 91.078160 
911.000000	 91.162587 
910.000000	 91.257433 
909.000000	 91.359110 
908.000000	 91.471147 
907.000000	 91.599141 
906.000000	 91.739481 
905.000000	 91.883866 
904.000000	 92.032752 
903.000000	 92.191802 
902.000000	 92.356574 
901.000000	 92.514383 
900.000000	 92.662028 
899.000000	 92.809113 
898.000000	 92.962506 
897.000000	 93.118384 
896.000000	 93.270130 
895.000000	 93.413495 
894.000000	 93.544340 
893.000000	 93.662508 
892.000000	 93.777841 
891.000000	 93.901155 
890.000000	 94.028578 
889.000000	 94.145412 
888.000000	 94.244960 
887.000000	 94.332660 
886.000000	 94.413182 
885.000000	 94.485759 
884.000000	 94.552075 
883.000000	 94.615823 
882.000000	 94.674151 
881.000000	 94.723262 
880.000000	 94.773241 
879.000000	 94.842023 
878.000000	 94.931699 
877.000000	 95.025657 
876.000000	 95.112427 
875.000000	 95.197437 
874.000000	 95.288314 
873.000000	 95.385149 
872.000000	 95.489874 
871.000000	 95.608547 
870.000000	 95.737445 
869.000000	 95.861092 
868.000000	 95.970918 
867.000000	 96.073877 
866.000000	 96.177566 
865.000000	 96.279365 
864.000000	 96.376762 
863.000000	 96.476694 
862.000000	 96.586268 
861.000000	 96.702491 
860.000000	 96.817884 
859.000000	 96.928771 
858.000000	 97.032999 
857.000000	 97.127598 
856.000000	 97.214129 
855.000000	 97.299252 
854.000000	 97.385097 
853.000000	 97.465517 
852.000000	 97.535465 
851.000000	 97.597030 
850.000000	 97.653412 
849.000000	 97.705068 
848.000000	 97.755016 
847.000000	 97.809105 
846.000000	 97.866920 
845.000000	 97.920886 
844.000000	 97.967970 
843.000000	 98.013264 
842.000000	 98.058166 
841.000000	 98.094404 
840.000000	 98.114793 
839.000000	 98.121430 
838.000000	 98.119089 
837.000000	 98.109969 
836.000000	 98.100562 
835.000000	 98.103781 
834.000000	 98.125057 
833.000000	 98.152445 
832.000000	 98.168705 
831.000000	 98.169304 
830.000000	 98.163280 
829.000000	 98.161621 
828.000000	 98.171285 
827.000000	 98.196084 
826.000000	 98.235837 
825.000000	 98.286112 
824.000000	 98.342058 
823.000000	 98.399078 
822.000000	 98.449583 
821.000000	 98.486773 
820.000000	 98.512741 
819.000000	 98.534799 
818.000000	 98.552273 
817.000000	 98.554074 
816.000000	 98.530898 
815.000000	 98.483250 
814.000000	 98.415849 
813.000000	 98.330587 
812.000000	 98.226534 
811.000000	 98.098526 
810.000000	 97.932091 
809.000000	 97.708368 
808.000000	 97.421022 
807.000000	 97.084774 
806.000000	 96.723882 
805.000000	 96.356881 
804.000000	 95.995244 
803.000000	 95.648530 
802.000000	 95.324754 
801.000000	 95.032768 
800.000000	 94.789057 
799.000000	 94.613771 
798.000000	 94.513928 
797.000000	 94.476819 
796.000000	 94.482583 
795.000000	 94.515402 
794.000000	 94.562097 
793.000000	 94.611957 
792.000000	 94.661708 
791.000000	 94.711205 
790.000000	 94.752410 
789.000000	 94.772368 
788.000000	 94.767257 
787.000000	 94.741922 
786.000000	 94.695060 
785.000000	 94.617630 
784.000000	 94.508362 
783.000000	 94.378771 
782.000000	 94.240846 
781.000000	 94.103150 
780.000000	 93.981146 
779.000000	 93.895644 
778.000000	 93.855614 
777.000000	 93.856021 
776.000000	 93.895484 
775.000000	 93.978774 
774.000000	 94.096288 
773.000000	 94.219670 
772.000000	 94.328148 
771.000000	 94.425336 
770.000000	 94.521742 
769.000000	 94.615231 
768.000000	 94.697804 
767.000000	 94.767608 
766.000000	 94.823986 
765.000000	 94.863351 
764.000000	 94.890785 
763.000000	 94.924004 
762.000000	 94.974121 
761.000000	 95.032126 
760.000000	 95.084668 
759.000000	 95.132845 
758.000000	 95.184507 
757.000000	 95.239202 
756.000000	 95.295066 
755.000000	 95.361971 
754.000000	 95.450897 
753.000000	 95.552494 
752.000000	 95.640073 
751.000000	 95.695951 
750.000000	 95.727764 
749.000000	 95.758839 
748.000000	 95.807293 
747.000000	 95.872937 
746.000000	 95.940561 
745.000000	 95.997406 
744.000000	 96.048469 
743.000000	 96.110302 
742.000000	 96.189151 
741.000000	 96.273236 
740.000000	 96.350105 
739.000000	 96.422876 
738.000000	 96.502650 
737.000000	 96.590652 
736.000000	 96.675479 
735.000000	 96.746457 
734.000000	 96.804392 
733.000000	 96.859457 
732.000000	 96.920764 
731.000000	 96.986544 
730.000000	 97.044194 
729.000000	 97.082083 
728.000000	 97.102980 
727.000000	 97.122310 
726.000000	 97.152218 
725.000000	 97.193548 
724.000000	 97.241416 
723.000000	 97.290381 
722.000000	 97.335377 
721.000000	 97.376714 
720.000000	 97.422797 
719.000000	 97.477020 
718.000000	 97.526614 
717.000000	 97.559235 
716.000000	 97.584442 
715.000000	 97.622501 
714.000000	 97.673186 
713.000000	 97.713934 
712.000000	 97.734580 
711.000000	 97.753936 
710.000000	 97.791483 
709.000000	 97.842475 
708.000000	 97.889356 
707.000000	 97.924415 
706.000000	 97.948180 
705.000000	 97.958939 
704.000000	 97.956579 
703.000000	 97.943330 
702.000000	 97.910982 
701.000000	 97.838637 
700.000000	 97.713110 
699.000000	 97.545966 
698.000000	 97.360368 
697.000000	 97.173546 
696.000000	 97.004607 
695.000000	 96.883672 
694.000000	 96.837894 
693.000000	 96.869165 
692.000000	 96.952978 
691.000000	 97.058594 
690.000000	 97.162885 
689.000000	 97.254164 
688.000000	 97.334029 
687.000000	 97.411237 
686.000000	 97.489818 
685.000000	 97.565132 
684.000000	 97.631864 
683.000000	 97.689857 
682.000000	 97.739053 
681.000000	 97.779082 
680.000000	 97.816855 
679.000000	 97.865148 
678.000000	 97.925390 
677.000000	 97.981687 
676.000000	 98.030079 
675.000000	 98.081858 
674.000000	 98.137954 
673.000000	 98.182137 
672.000000	 98.211987 
671.000000	 98.258499 
670.000000	 98.364085 
669.000000	 98.545448 
668.000000	 98.708019 
667.000000	 98.700867 
666.000000	 98.581592 
665.000000	 98.475976 
664.000000	 98.414750 
663.000000	 98.397919 
662.000000	 98.418090 
661.000000	 98.452524 
660.000000	 98.484740 
659.000000	 98.519457 
658.000000	 98.561044 
657.000000	 98.590272 
656.000000	 98.591202 
655.000000	 98.569481 
654.000000	 98.535907 
653.000000	 98.493446 
652.000000	 98.455123 
651.000000	 98.450030 
650.000000	 98.487861 

