4000.000000	96.462490 
3999.000000	96.461495 
3998.000000	96.460304 
3997.000000	96.459132 
3996.000000	96.458212 
3995.000000	96.457692 
3994.000000	96.457596 
3993.000000	96.457710 
3992.000000	96.457655 
3991.000000	96.457213 
3990.000000	96.456457 
3989.000000	96.455623 
3988.000000	96.454860 
3987.000000	96.454147 
3986.000000	96.453465 
3985.000000	96.452881 
3984.000000	96.452430 
3983.000000	96.452012 
3982.000000	96.451559 
3981.000000	96.451186 
3980.000000	96.450970 
3979.000000	96.450705 
3978.000000	96.450100 
3977.000000	96.449175 
3976.000000	96.448285 
3975.000000	96.447629 
3974.000000	96.446998 
3973.000000	96.446108 
3972.000000	96.444921 
3971.000000	96.443638 
3970.000000	96.442524 
3969.000000	96.441832 
3968.000000	96.441673 
3967.000000	96.441883 
3966.000000	96.442070 
3965.000000	96.441822 
3964.000000	96.440927 
3963.000000	96.439464 
3962.000000	96.437822 
3961.000000	96.436479 
3960.000000	96.435595 
3959.000000	96.434956 
3958.000000	96.434305 
3957.000000	96.433675 
3956.000000	96.433185 
3955.000000	96.432738 
3954.000000	96.432145 
3953.000000	96.431362 
3952.000000	96.430503 
3951.000000	96.429632 
3950.000000	96.428702 
3949.000000	96.427668 
3948.000000	96.426605 
3947.000000	96.425724 
3946.000000	96.425148 
3945.000000	96.424704 
3944.000000	96.424010 
3943.000000	96.422973 
3942.000000	96.422002 
3941.000000	96.421549 
3940.000000	96.421573 
3939.000000	96.421647 
3938.000000	96.421502 
3937.000000	96.421394 
3936.000000	96.421544 
3935.000000	96.421475 
3934.000000	96.420491 
3933.000000	96.418644 
3932.000000	96.416844 
3931.000000	96.415693 
3930.000000	96.414986 
3929.000000	96.414567 
3928.000000	96.414662 
3927.000000	96.415125 
3926.000000	96.414979 
3925.000000	96.413705 
3924.000000	96.412143 
3923.000000	96.411249 
3922.000000	96.410776 
3921.000000	96.410039 
3920.000000	96.409021 
3919.000000	96.408157 
3918.000000	96.407413 
3917.000000	96.406510 
3916.000000	96.405635 
3915.000000	96.405214 
3914.000000	96.405159 
3913.000000	96.405034 
3912.000000	96.404592 
3911.000000	96.403951 
3910.000000	96.403201 
3909.000000	96.402366 
3908.000000	96.401463 
3907.000000	96.400512 
3906.000000	96.399497 
3905.000000	96.398472 
3904.000000	96.397517 
3903.000000	96.396623 
3902.000000	96.395755 
3901.000000	96.394930 
3900.000000	96.394147 
3899.000000	96.393402 
3898.000000	96.392695 
3897.000000	96.392014 
3896.000000	96.391341 
3895.000000	96.390657 
3894.000000	96.389959 
3893.000000	96.389249 
3892.000000	96.388526 
3891.000000	96.387790 
3890.000000	96.387054 
3889.000000	96.386337 
3888.000000	96.385648 
3887.000000	96.384979 
3886.000000	96.384325 
3885.000000	96.383695 
3884.000000	96.383091 
3883.000000	96.382497 
3882.000000	96.381889 
3881.000000	96.381260 
3880.000000	96.380627 
3879.000000	96.380008 
3878.000000	96.379410 
3877.000000	96.378823 
3876.000000	96.378240 
3875.000000	96.377660 
3874.000000	96.377096 
3873.000000	96.376559 
3872.000000	96.376040 
3871.000000	96.375526 
3870.000000	96.375021 
3869.000000	96.374552 
3868.000000	96.374141 
3867.000000	96.373774 
3866.000000	96.373430 
3865.000000	96.373114 
3864.000000	96.372846 
3863.000000	96.372620 
3862.000000	96.372406 
3861.000000	96.372181 
3860.000000	96.371943 
3859.000000	96.371691 
3858.000000	96.371418 
3857.000000	96.371125 
3856.000000	96.370820 
3855.000000	96.370507 
3854.000000	96.370196 
3853.000000	96.369911 
3852.000000	96.369668 
3851.000000	96.369470 
3850.000000	96.369308 
3849.000000	96.369171 
3848.000000	96.369048 
3847.000000	96.368922 
3846.000000	96.368773 
3845.000000	96.368585 
3844.000000	96.368353 
3843.000000	96.368078 
3842.000000	96.367779 
3841.000000	96.367480 
3840.000000	96.367204 
3839.000000	96.366963 
3838.000000	96.366760 
3837.000000	96.366589 
3836.000000	96.366447 
3835.000000	96.366332 
3834.000000	96.366244 
3833.000000	96.366177 
3832.000000	96.366128 
3831.000000	96.366091 
3830.000000	96.366060 
3829.000000	96.366035 
3828.000000	96.366013 
3827.000000	96.365985 
3826.000000	96.365940 
3825.000000	96.365884 
3824.000000	96.365830 
3823.000000	96.365780 
3822.000000	96.365722 
3821.000000	96.365664 
3820.000000	96.365636 
3819.000000	96.365662 
3818.000000	96.365736 
3817.000000	96.365831 
3816.000000	96.365937 
3815.000000	96.366060 
3814.000000	96.366192 
3813.000000	96.366308 
3812.000000	96.366391 
3811.000000	96.366446 
3810.000000	96.366484 
3809.000000	96.366509 
3808.000000	96.366507 
3807.000000	96.366475 
3806.000000	96.366432 
3805.000000	96.366406 
3804.000000	96.366412 
3803.000000	96.366451 
3802.000000	96.366526 
3801.000000	96.366651 
3800.000000	96.366827 
3799.000000	96.367025 
3798.000000	96.367208 
3797.000000	96.367359 
3796.000000	96.367475 
3795.000000	96.367542 
3794.000000	96.367534 
3793.000000	96.367434 
3792.000000	96.367242 
3791.000000	96.366960 
3790.000000	96.366587 
3789.000000	96.366122 
3788.000000	96.365588 
3787.000000	96.365000 
3786.000000	96.364365 
3785.000000	96.363678 
3784.000000	96.362917 
3783.000000	96.362127 
3782.000000	96.361336 
3781.000000	96.360428 
3780.000000	96.359333 
3779.000000	96.358305 
3778.000000	96.357618 
3777.000000	96.357062 
3776.000000	96.356057 
3775.000000	96.354388 
3774.000000	96.352559 
3773.000000	96.351238 
3772.000000	96.350240 
3771.000000	96.348782 
3770.000000	96.346752 
3769.000000	96.344931 
3768.000000	96.343715 
3767.000000	96.342577 
3766.000000	96.340877 
3765.000000	96.338796 
3764.000000	96.337156 
3763.000000	96.336240 
3762.000000	96.335321 
3761.000000	96.333720 
3760.000000	96.331809 
3759.000000	96.330335 
3758.000000	96.328871 
3757.000000	96.326673 
3756.000000	96.324034 
3755.000000	96.321614 
3754.000000	96.319257 
3753.000000	96.316483 
3752.000000	96.314134 
3751.000000	96.313098 
3750.000000	96.311917 
3749.000000	96.309280 
3748.000000	96.306999 
3747.000000	96.307013 
3746.000000	96.307927 
3745.000000	96.306947 
3744.000000	96.305537 
3743.000000	96.305976 
3742.000000	96.306783 
3741.000000	96.305753 
3740.000000	96.303270 
3739.000000	96.301988 
3738.000000	96.302745 
3737.000000	96.302907 
3736.000000	96.300722 
3735.000000	96.298633 
3734.000000	96.299291 
3733.000000	96.301251 
3732.000000	96.301865 
3731.000000	96.301241 
3730.000000	96.300962 
3729.000000	96.301152 
3728.000000	96.300228 
3727.000000	96.297700 
3726.000000	96.295927 
3725.000000	96.296624 
3724.000000	96.298149 
3723.000000	96.298417 
3722.000000	96.298021 
3721.000000	96.298515 
3720.000000	96.299623 
3719.000000	96.300073 
3718.000000	96.298561 
3717.000000	96.295451 
3716.000000	96.292522 
3715.000000	96.289843 
3714.000000	96.285494 
3713.000000	96.279077 
3712.000000	96.273730 
3711.000000	96.271948 
3710.000000	96.271789 
3709.000000	96.270512 
3708.000000	96.267148 
3707.000000	96.262365 
3706.000000	96.258143 
3705.000000	96.256262 
3704.000000	96.256512 
3703.000000	96.256472 
3702.000000	96.253106 
3701.000000	96.245170 
3700.000000	96.234494 
3699.000000	96.224397 
3698.000000	96.215661 
3697.000000	96.207142 
3696.000000	96.199950 
3695.000000	96.195185 
3694.000000	96.190434 
3693.000000	96.183610 
3692.000000	96.177434 
3691.000000	96.176128 
3690.000000	96.177875 
3689.000000	96.176971 
3688.000000	96.172058 
3687.000000	96.166939 
3686.000000	96.163353 
3685.000000	96.157908 
3684.000000	96.148430 
3683.000000	96.138616 
3682.000000	96.131847 
3681.000000	96.123738 
3680.000000	96.109586 
3679.000000	96.093879 
3678.000000	96.084431 
3677.000000	96.076694 
3676.000000	96.061777 
3675.000000	96.044780 
3674.000000	96.034409 
3673.000000	96.030098 
3672.000000	96.024448 
3671.000000	96.012592 
3670.000000	96.001630 
3669.000000	95.999227 
3668.000000	95.999336 
3667.000000	95.994061 
3666.000000	95.984847 
3665.000000	95.976928 
3664.000000	95.971763 
3663.000000	95.965922 
3662.000000	95.954941 
3661.000000	95.938211 
3660.000000	95.920321 
3659.000000	95.905551 
3658.000000	95.893042 
3657.000000	95.877076 
3656.000000	95.856556 
3655.000000	95.837064 
3654.000000	95.822818 
3653.000000	95.811619 
3652.000000	95.796671 
3651.000000	95.775533 
3650.000000	95.755324 
3649.000000	95.740532 
3648.000000	95.726404 
3647.000000	95.712120 
3646.000000	95.703203 
3645.000000	95.701387 
3644.000000	95.701643 
3643.000000	95.698663 
3642.000000	95.691943 
3641.000000	95.684708 
3640.000000	95.677775 
3639.000000	95.668574 
3638.000000	95.657364 
3637.000000	95.647641 
3636.000000	95.639186 
3635.000000	95.625111 
3634.000000	95.602518 
3633.000000	95.579497 
3632.000000	95.565134 
3631.000000	95.554867 
3630.000000	95.534890 
3629.000000	95.508779 
3628.000000	95.494019 
3627.000000	95.492472 
3626.000000	95.493894 
3625.000000	95.493746 
3624.000000	95.495879 
3623.000000	95.505038 
3622.000000	95.517566 
3621.000000	95.521765 
3620.000000	95.510424 
3619.000000	95.488950 
3618.000000	95.467692 
3617.000000	95.453804 
3616.000000	95.450564 
3615.000000	95.456065 
3614.000000	95.466108 
3613.000000	95.479144 
3612.000000	95.494818 
3611.000000	95.509043 
3610.000000	95.515563 
3609.000000	95.513404 
3608.000000	95.509304 
3607.000000	95.509818 
3606.000000	95.514633 
3605.000000	95.521284 
3604.000000	95.530233 
3603.000000	95.542889 
3602.000000	95.557590 
3601.000000	95.569306 
3600.000000	95.575482 
3599.000000	95.577203 
3598.000000	95.576868 
3597.000000	95.576766 
3596.000000	95.578678 
3595.000000	95.580938 
3594.000000	95.580809 
3593.000000	95.577774 
3592.000000	95.574187 
3591.000000	95.572632 
3590.000000	95.571950 
3589.000000	95.568528 
3588.000000	95.562834 
3587.000000	95.560270 
3586.000000	95.563730 
3585.000000	95.571735 
3584.000000	95.582380 
3583.000000	95.594329 
3582.000000	95.605936 
3581.000000	95.614629 
3580.000000	95.618675 
3579.000000	95.618199 
3578.000000	95.614689 
3577.000000	95.609867 
3576.000000	95.604979 
3575.000000	95.600664 
3574.000000	95.597323 
3573.000000	95.595857 
3572.000000	95.596979 
3571.000000	95.600486 
3570.000000	95.603930 
3569.000000	95.603068 
3568.000000	95.596296 
3567.000000	95.587556 
3566.000000	95.581534 
3565.000000	95.579009 
3564.000000	95.578935 
3563.000000	95.580598 
3562.000000	95.583383 
3561.000000	95.586334 
3560.000000	95.588458 
3559.000000	95.589568 
3558.000000	95.590190 
3557.000000	95.591054 
3556.000000	95.592537 
3555.000000	95.594316 
3554.000000	95.595253 
3553.000000	95.594335 
3552.000000	95.591807 
3551.000000	95.588902 
3550.000000	95.586607 
3549.000000	95.584979 
3548.000000	95.583595 
3547.000000	95.582107 
3546.000000	95.580252 
3545.000000	95.578191 
3544.000000	95.576958 
3543.000000	95.577606 
3542.000000	95.579856 
3541.000000	95.582485 
3540.000000	95.584707 
3539.000000	95.586456 
3538.000000	95.587532 
3537.000000	95.587476 
3536.000000	95.586399 
3535.000000	95.584927 
3534.000000	95.583626 
3533.000000	95.582740 
3532.000000	95.582714 
3531.000000	95.584006 
3530.000000	95.585984 
3529.000000	95.586735 
3528.000000	95.584725 
3527.000000	95.580252 
3526.000000	95.575002 
3525.000000	95.570711 
3524.000000	95.568574 
3523.000000	95.569329 
3522.000000	95.572720 
3521.000000	95.577238 
3520.000000	95.581181 
3519.000000	95.583917 
3518.000000	95.585925 
3517.000000	95.587650 
3516.000000	95.588804 
3515.000000	95.588897 
3514.000000	95.588232 
3513.000000	95.587600 
3512.000000	95.587097 
3511.000000	95.586013 
3510.000000	95.584108 
3509.000000	95.582394 
3508.000000	95.582218 
3507.000000	95.583770 
3506.000000	95.585763 
3505.000000	95.586577 
3504.000000	95.585721 
3503.000000	95.583993 
3502.000000	95.582478 
3501.000000	95.581642 
3500.000000	95.581345 
3499.000000	95.581228 
3498.000000	95.580976 
3497.000000	95.580547 
3496.000000	95.580164 
3495.000000	95.580013 
3494.000000	95.580066 
3493.000000	95.580189 
3492.000000	95.580223 
3491.000000	95.579968 
3490.000000	95.579375 
3489.000000	95.578677 
3488.000000	95.578159 
3487.000000	95.577737 
3486.000000	95.577019 
3485.000000	95.575890 
3484.000000	95.574773 
3483.000000	95.574139 
3482.000000	95.574096 
3481.000000	95.574510 
3480.000000	95.575217 
3479.000000	95.575868 
3478.000000	95.575807 
3477.000000	95.574481 
3476.000000	95.572038 
3475.000000	95.569349 
3474.000000	95.567293 
3473.000000	95.566186 
3472.000000	95.565827 
3471.000000	95.565780 
3470.000000	95.565686 
3469.000000	95.565429 
3468.000000	95.565079 
3467.000000	95.564756 
3466.000000	95.564545 
3465.000000	95.564428 
3464.000000	95.564179 
3463.000000	95.563307 
3462.000000	95.561328 
3461.000000	95.558308 
3460.000000	95.555010 
3459.000000	95.552265 
3458.000000	95.550209 
3457.000000	95.548222 
3456.000000	95.545674 
3455.000000	95.542677 
3454.000000	95.540086 
3453.000000	95.538689 
3452.000000	95.538675 
3451.000000	95.539620 
3450.000000	95.540625 
3449.000000	95.540643 
3448.000000	95.539020 
3447.000000	95.535881 
3446.000000	95.531919 
3445.000000	95.527876 
3444.000000	95.524306 
3443.000000	95.521680 
3442.000000	95.520243 
3441.000000	95.519645 
3440.000000	95.519026 
3439.000000	95.517738 
3438.000000	95.515902 
3437.000000	95.514104 
3436.000000	95.512768 
3435.000000	95.511937 
3434.000000	95.511420 
3433.000000	95.510878 
3432.000000	95.509965 
3431.000000	95.508528 
3430.000000	95.506693 
3429.000000	95.504758 
3428.000000	95.502957 
3427.000000	95.501406 
3426.000000	95.500196 
3425.000000	95.499417 
3424.000000	95.498983 
3423.000000	95.498477 
3422.000000	95.497407 
3421.000000	95.495670 
3420.000000	95.493688 
3419.000000	95.492034 
3418.000000	95.490936 
3417.000000	95.490277 
3416.000000	95.489880 
3415.000000	95.489615 
3414.000000	95.489232 
3413.000000	95.488368 
3412.000000	95.486885 
3411.000000	95.485096 
3410.000000	95.483574 
3409.000000	95.482723 
3408.000000	95.482568 
3407.000000	95.482808 
3406.000000	95.483026 
3405.000000	95.482983 
3404.000000	95.482771 
3403.000000	95.482581 
3402.000000	95.482413 
3401.000000	95.482139 
3400.000000	95.481771 
3399.000000	95.481484 
3398.000000	95.481383 
3397.000000	95.481465 
3396.000000	95.481716 
3395.000000	95.482087 
3394.000000	95.482319 
3393.000000	95.482019 
3392.000000	95.480974 
3391.000000	95.479321 
3390.000000	95.477447 
3389.000000	95.475859 
3388.000000	95.475120 
3387.000000	95.475612 
3386.000000	95.477178 
3385.000000	95.478972 
3384.000000	95.479910 
3383.000000	95.479518 
3382.000000	95.478436 
3381.000000	95.477940 
3380.000000	95.478628 
3379.000000	95.479682 
3378.000000	95.479802 
3377.000000	95.478928 
3376.000000	95.478354 
3375.000000	95.479055 
3374.000000	95.480629 
3373.000000	95.482182 
3372.000000	95.483605 
3371.000000	95.485427 
3370.000000	95.487767 
3369.000000	95.490075 
3368.000000	95.491768 
3367.000000	95.492575 
3366.000000	95.492353 
3365.000000	95.491144 
3364.000000	95.489562 
3363.000000	95.488660 
3362.000000	95.489054 
3361.000000	95.490382 
3360.000000	95.491817 
3359.000000	95.492989 
3358.000000	95.494207 
3357.000000	95.495836 
3356.000000	95.497722 
3355.000000	95.499362 
3354.000000	95.500603 
3353.000000	95.501999 
3352.000000	95.504283 
3351.000000	95.507546 
3350.000000	95.510996 
3349.000000	95.513607 
3348.000000	95.515012 
3347.000000	95.515803 
3346.000000	95.517019 
3345.000000	95.519172 
3344.000000	95.521613 
3343.000000	95.522995 
3342.000000	95.522655 
3341.000000	95.521472 
3340.000000	95.521061 
3339.000000	95.521912 
3338.000000	95.522956 
3337.000000	95.523053 
3336.000000	95.522389 
3335.000000	95.522155 
3334.000000	95.523126 
3333.000000	95.524995 
3332.000000	95.526898 
3331.000000	95.528287 
3330.000000	95.529238 
3329.000000	95.530078 
3328.000000	95.530992 
3327.000000	95.531944 
3326.000000	95.532846 
3325.000000	95.533673 
3324.000000	95.534436 
3323.000000	95.535137 
3322.000000	95.535825 
3321.000000	95.536635 
3320.000000	95.537669 
3319.000000	95.538892 
3318.000000	95.540203 
3317.000000	95.541558 
3316.000000	95.542934 
3315.000000	95.544208 
3314.000000	95.545190 
3313.000000	95.545826 
3312.000000	95.546293 
3311.000000	95.546883 
3310.000000	95.547768 
3309.000000	95.548910 
3308.000000	95.550133 
3307.000000	95.551251 
3306.000000	95.552189 
3305.000000	95.553035 
3304.000000	95.553974 
3303.000000	95.555166 
3302.000000	95.556646 
3301.000000	95.558274 
3300.000000	95.559761 
3299.000000	95.560805 
3298.000000	95.561250 
3297.000000	95.561227 
3296.000000	95.561184 
3295.000000	95.561642 
3294.000000	95.562902 
3293.000000	95.564926 
3292.000000	95.567359 
3291.000000	95.569712 
3290.000000	95.571573 
3289.000000	95.572782 
3288.000000	95.573523 
3287.000000	95.574178 
3286.000000	95.574943 
3285.000000	95.575621 
3284.000000	95.575888 
3283.000000	95.575793 
3282.000000	95.575940 
3281.000000	95.577003 
3280.000000	95.579029 
3279.000000	95.581333 
3278.000000	95.583236 
3277.000000	95.584762 
3276.000000	95.586346 
3275.000000	95.588018 
3274.000000	95.589338 
3273.000000	95.590149 
3272.000000	95.590905 
3271.000000	95.592055 
3270.000000	95.593406 
3269.000000	95.594408 
3268.000000	95.594922 
3267.000000	95.595513 
3266.000000	95.597073 
3265.000000	95.600264 
3264.000000	95.605013 
3263.000000	95.610274 
3262.000000	95.614597 
3261.000000	95.617215 
3260.000000	95.618332 
3259.000000	95.618443 
3258.000000	95.617793 
3257.000000	95.616761 
3256.000000	95.616228 
3255.000000	95.616793 
3254.000000	95.617888 
3253.000000	95.618524 
3252.000000	95.618966 
3251.000000	95.620829 
3250.000000	95.625134 
3249.000000	95.630780 
3248.000000	95.635316 
3247.000000	95.637180 
3246.000000	95.636713 
3245.000000	95.635190 
3244.000000	95.633441 
3243.000000	95.631665 
3242.000000	95.630198 
3241.000000	95.629682 
3240.000000	95.630357 
3239.000000	95.631865 
3238.000000	95.634147 
3237.000000	95.638028 
3236.000000	95.644238 
3235.000000	95.651900 
3234.000000	95.658527 
3233.000000	95.661893 
3232.000000	95.661656 
3231.000000	95.659283 
3230.000000	95.656839 
3229.000000	95.655812 
3228.000000	95.656737 
3227.000000	95.659485 
3226.000000	95.663688 
3225.000000	95.668950 
3224.000000	95.674844 
3223.000000	95.680963 
3222.000000	95.687126 
3221.000000	95.693217 
3220.000000	95.698517 
3219.000000	95.701612 
3218.000000	95.701549 
3217.000000	95.698878 
3216.000000	95.695257 
3215.000000	95.692302 
3214.000000	95.691042 
3213.000000	95.691908 
3212.000000	95.694593 
3211.000000	95.698098 
3210.000000	95.701538 
3209.000000	95.704857 
3208.000000	95.708239 
3207.000000	95.710993 
3206.000000	95.711659 
3205.000000	95.709364 
3204.000000	95.704748 
3203.000000	95.699529 
3202.000000	95.695318 
3201.000000	95.692687 
3200.000000	95.691138 
3199.000000	95.690230 
3198.000000	95.690835 
3197.000000	95.694570 
3196.000000	95.701633 
3195.000000	95.709949 
3194.000000	95.717220 
3193.000000	95.723204 
3192.000000	95.728979 
3191.000000	95.734419 
3190.000000	95.737732 
3189.000000	95.737692 
3188.000000	95.735499 
3187.000000	95.734137 
3186.000000	95.736291 
3185.000000	95.742803 
3184.000000	95.752532 
3183.000000	95.763504 
3182.000000	95.774249 
3181.000000	95.783839 
3180.000000	95.791008 
3179.000000	95.794333 
3178.000000	95.793717 
3177.000000	95.790801 
3176.000000	95.787242 
3175.000000	95.783403 
3174.000000	95.779355 
3173.000000	95.775982 
3172.000000	95.773953 
3171.000000	95.772605 
3170.000000	95.771413 
3169.000000	95.771871 
3168.000000	95.776025 
3167.000000	95.783234 
3166.000000	95.790017 
3165.000000	95.793498 
3164.000000	95.793730 
3163.000000	95.792399 
3162.000000	95.790614 
3161.000000	95.788602 
3160.000000	95.786713 
3159.000000	95.785910 
3158.000000	95.787575 
3157.000000	95.792974 
3156.000000	95.802315 
3155.000000	95.814054 
3154.000000	95.825673 
3153.000000	95.835447 
3152.000000	95.842959 
3151.000000	95.847969 
3150.000000	95.849761 
3149.000000	95.847997 
3148.000000	95.843612 
3147.000000	95.838583 
3146.000000	95.835146 
3145.000000	95.835139 
3144.000000	95.839141 
3143.000000	95.845762 
3142.000000	95.852458 
3141.000000	95.857703 
3140.000000	95.861835 
3139.000000	95.865538 
3138.000000	95.868308 
3137.000000	95.868795 
3136.000000	95.866071 
3135.000000	95.860347 
3134.000000	95.853165 
3133.000000	95.847043 
3132.000000	95.843987 
3131.000000	95.843963 
3130.000000	95.845461 
3129.000000	95.847773 
3128.000000	95.851929 
3127.000000	95.858885 
3126.000000	95.867592 
3125.000000	95.875581 
3124.000000	95.881077 
3123.000000	95.883746 
3122.000000	95.883802 
3121.000000	95.881657 
3120.000000	95.878540 
3119.000000	95.876528 
3118.000000	95.877471 
3117.000000	95.881944 
3116.000000	95.889180 
3115.000000	95.897796 
3114.000000	95.906658 
3113.000000	95.915261 
3112.000000	95.923397 
3111.000000	95.930470 
3110.000000	95.935293 
3109.000000	95.936842 
3108.000000	95.935338 
3107.000000	95.932458 
3106.000000	95.930104 
3105.000000	95.928828 
3104.000000	95.927909 
3103.000000	95.926971 
3102.000000	95.926901 
3101.000000	95.928751 
3100.000000	95.931980 
3099.000000	95.934672 
3098.000000	95.935666 
3097.000000	95.935608 
3096.000000	95.935420 
3095.000000	95.934607 
3094.000000	95.932129 
3093.000000	95.928496 
3092.000000	95.925807 
3091.000000	95.925783 
3090.000000	95.928609 
3089.000000	95.933349 
3088.000000	95.938681 
3087.000000	95.943460 
3086.000000	95.947420 
3085.000000	95.951238 
3084.000000	95.955182 
3083.000000	95.958043 
3082.000000	95.958430 
3081.000000	95.956949 
3080.000000	95.955839 
3079.000000	95.956412 
3078.000000	95.958174 
3077.000000	95.960444 
3076.000000	95.963332 
3075.000000	95.966725 
3074.000000	95.969716 
3073.000000	95.971711 
3072.000000	95.973144 
3071.000000	95.974416 
3070.000000	95.975082 
3069.000000	95.974797 
3068.000000	95.974233 
3067.000000	95.974264 
3066.000000	95.974784 
3065.000000	95.975083 
3064.000000	95.974974 
3063.000000	95.974949 
3062.000000	95.975447 
3061.000000	95.976498 
3060.000000	95.977952 
3059.000000	95.979639 
3058.000000	95.981361 
3057.000000	95.982972 
3056.000000	95.984387 
3055.000000	95.985344 
3054.000000	95.985450 
3053.000000	95.984724 
3052.000000	95.984000 
3051.000000	95.984292 
3050.000000	95.985769 
3049.000000	95.987644 
3048.000000	95.988967 
3047.000000	95.989421 
3046.000000	95.989275 
3045.000000	95.989005 
3044.000000	95.989097 
3043.000000	95.989930 
3042.000000	95.991527 
3041.000000	95.993335 
3040.000000	95.994487 
3039.000000	95.994483 
3038.000000	95.993615 
3037.000000	95.992696 
3036.000000	95.992301 
3035.000000	95.992262 
3034.000000	95.992022 
3033.000000	95.991438 
3032.000000	95.990998 
3031.000000	95.991214 
3030.000000	95.992069 
3029.000000	95.993171 
3028.000000	95.994044 
3027.000000	95.994008 
3026.000000	95.992265 
3025.000000	95.988646 
3024.000000	95.984292 
3023.000000	95.981050 
3022.000000	95.979934 
3021.000000	95.980609 
3020.000000	95.982094 
3019.000000	95.983553 
3018.000000	95.984358 
3017.000000	95.983994 
3016.000000	95.982395 
3015.000000	95.980185 
3014.000000	95.978276 
3013.000000	95.977181 
3012.000000	95.976677 
3011.000000	95.975907 
3010.000000	95.973911 
3009.000000	95.970372 
3008.000000	95.966004 
3007.000000	95.962036 
3006.000000	95.959222 
3005.000000	95.957466 
3004.000000	95.956174 
3003.000000	95.954803 
3002.000000	95.953334 
3001.000000	95.952516 
3000.000000	95.953285 
2999.000000	95.955439 
2998.000000	95.957115 
2997.000000	95.956271 
2996.000000	95.952689 
2995.000000	95.948208 
2994.000000	95.945006 
2993.000000	95.943968 
2992.000000	95.944527 
2991.000000	95.945400 
2990.000000	95.945338 
2989.000000	95.943825 
2988.000000	95.941374 
2987.000000	95.939030 
2986.000000	95.937658 
2985.000000	95.937864 
2984.000000	95.940124 
2983.000000	95.944264 
2982.000000	95.948926 
2981.000000	95.952299 
2980.000000	95.953555 
2979.000000	95.953200 
2978.000000	95.952153 
2977.000000	95.951047 
2976.000000	95.950376 
2975.000000	95.950635 
2974.000000	95.952008 
2973.000000	95.954259 
2972.000000	95.956985 
2971.000000	95.959623 
2970.000000	95.961309 
2969.000000	95.961409 
2968.000000	95.960389 
2967.000000	95.959770 
2966.000000	95.960947 
2965.000000	95.964189 
2964.000000	95.968670 
2963.000000	95.973098 
2962.000000	95.976455 
2961.000000	95.978578 
2960.000000	95.980137 
2959.000000	95.981830 
2958.000000	95.983716 
2957.000000	95.985603 
2956.000000	95.987710 
2955.000000	95.990291 
2954.000000	95.992887 
2953.000000	95.994967 
2952.000000	95.997318 
2951.000000	96.001585 
2950.000000	96.007783 
2949.000000	96.013210 
2948.000000	96.014987 
2947.000000	96.012990 
2946.000000	96.009673 
2945.000000	96.007340 
2944.000000	96.006271 
2943.000000	96.005765 
2942.000000	96.005682 
2941.000000	96.006306 
2940.000000	96.007469 
2939.000000	96.008709 
2938.000000	96.010066 
2937.000000	96.011884 
2936.000000	96.013747 
2935.000000	96.014336 
2934.000000	96.012722 
2933.000000	96.009401 
2932.000000	96.005857 
2931.000000	96.003401 
2930.000000	96.002714 
2929.000000	96.004105 
2928.000000	96.007525 
2927.000000	96.012244 
2926.000000	96.016975 
2925.000000	96.020696 
2924.000000	96.023176 
2923.000000	96.024621 
2922.000000	96.025068 
2921.000000	96.024373 
2920.000000	96.022816 
2919.000000	96.021499 
2918.000000	96.021751 
2917.000000	96.023937 
2916.000000	96.026932 
2915.000000	96.029119 
2914.000000	96.030034 
2913.000000	96.030598 
2912.000000	96.031549 
2911.000000	96.032103 
2910.000000	96.030844 
2909.000000	96.027751 
2908.000000	96.024675 
2907.000000	96.023500 
2906.000000	96.024291 
2905.000000	96.025579 
2904.000000	96.025977 
2903.000000	96.025628 
2902.000000	96.025928 
2901.000000	96.028039 
2900.000000	96.031950 
2899.000000	96.036520 
2898.000000	96.040536 
2897.000000	96.043510 
2896.000000	96.045344 
2895.000000	96.045745 
2894.000000	96.044679 
2893.000000	96.043341 
2892.000000	96.043708 
2891.000000	96.046616 
2890.000000	96.050912 
2889.000000	96.054873 
2888.000000	96.058126 
2887.000000	96.061337 
2886.000000	96.064460 
2885.000000	96.066473 
2884.000000	96.066987 
2883.000000	96.067125 
2882.000000	96.068260 
2881.000000	96.070375 
2880.000000	96.072478 
2879.000000	96.074300 
2878.000000	96.076691 
2877.000000	96.080231 
2876.000000	96.084245 
2875.000000	96.087572 
2874.000000	96.089880 
2873.000000	96.091685 
2872.000000	96.093412 
2871.000000	96.095038 
2870.000000	96.096542 
2869.000000	96.098123 
2868.000000	96.099812 
2867.000000	96.101271 
2866.000000	96.102274 
2865.000000	96.103164 
2864.000000	96.104577 
2863.000000	96.106898 
2862.000000	96.110194 
2861.000000	96.114314 
2860.000000	96.118680 
2859.000000	96.122355 
2858.000000	96.124841 
2857.000000	96.126720 
2856.000000	96.129078 
2855.000000	96.132182 
2854.000000	96.135182 
2853.000000	96.137142 
2852.000000	96.137904 
2851.000000	96.137943 
2850.000000	96.137933 
2849.000000	96.138595 
2848.000000	96.140417 
2847.000000	96.143191 
2846.000000	96.146172 
2845.000000	96.148867 
2844.000000	96.151464 
2843.000000	96.154420 
2842.000000	96.157907 
2841.000000	96.161659 
2840.000000	96.165004 
2839.000000	96.167118 
2838.000000	96.167808 
2837.000000	96.168013 
2836.000000	96.169053 
2835.000000	96.171387 
2834.000000	96.174653 
2833.000000	96.178747 
2832.000000	96.183886 
2831.000000	96.189401 
2830.000000	96.193521 
2829.000000	96.195014 
2828.000000	96.194361 
2827.000000	96.192969 
2826.000000	96.191725 
2825.000000	96.190790 
2824.000000	96.190230 
2823.000000	96.190008 
2822.000000	96.189775 
2821.000000	96.189405 
2820.000000	96.189558 
2819.000000	96.191046 
2818.000000	96.193717 
2817.000000	96.196479 
2816.000000	96.198424 
2815.000000	96.199518 
2814.000000	96.200163 
2813.000000	96.200555 
2812.000000	96.200648 
2811.000000	96.200545 
2810.000000	96.200765 
2809.000000	96.202092 
2808.000000	96.205001 
2807.000000	96.209133 
2806.000000	96.213372 
2805.000000	96.216606 
2804.000000	96.218379 
2803.000000	96.218796 
2802.000000	96.218284 
2801.000000	96.217706 
2800.000000	96.218174 
2799.000000	96.220060 
2798.000000	96.222315 
2797.000000	96.223373 
2796.000000	96.222895 
2795.000000	96.222113 
2794.000000	96.222418 
2793.000000	96.223972 
2792.000000	96.225967 
2791.000000	96.227685 
2790.000000	96.228901 
2789.000000	96.229557 
2788.000000	96.229623 
2787.000000	96.229304 
2786.000000	96.229001 
2785.000000	96.228952 
2784.000000	96.229226 
2783.000000	96.230076 
2782.000000	96.231879 
2781.000000	96.234584 
2780.000000	96.237506 
2779.000000	96.239881 
2778.000000	96.241517 
2777.000000	96.242716 
2776.000000	96.243795 
2775.000000	96.244883 
2774.000000	96.245993 
2773.000000	96.247081 
2772.000000	96.248118 
2771.000000	96.249308 
2770.000000	96.251089 
2769.000000	96.253655 
2768.000000	96.256492 
2767.000000	96.258745 
2766.000000	96.260015 
2765.000000	96.260597 
2764.000000	96.260994 
2763.000000	96.261377 
2762.000000	96.261607 
2761.000000	96.261528 
2760.000000	96.261211 
2759.000000	96.261113 
2758.000000	96.261876 
2757.000000	96.263662 
2756.000000	96.265703 
2755.000000	96.266916 
2754.000000	96.267075 
2753.000000	96.266984 
2752.000000	96.267467 
2751.000000	96.268445 
2750.000000	96.269329 
2749.000000	96.269842 
2748.000000	96.270089 
2747.000000	96.270141 
2746.000000	96.270017 
2745.000000	96.269969 
2744.000000	96.270368 
2743.000000	96.271255 
2742.000000	96.272278 
2741.000000	96.273039 
2740.000000	96.273473 
2739.000000	96.273763 
2738.000000	96.274079 
2737.000000	96.274456 
2736.000000	96.274840 
2735.000000	96.275213 
2734.000000	96.275649 
2733.000000	96.276225 
2732.000000	96.276901 
2731.000000	96.277552 
2730.000000	96.278141 
2729.000000	96.278773 
2728.000000	96.279498 
2727.000000	96.280144 
2726.000000	96.280500 
2725.000000	96.280576 
2724.000000	96.280601 
2723.000000	96.280794 
2722.000000	96.281161 
2721.000000	96.281573 
2720.000000	96.281943 
2719.000000	96.282317 
2718.000000	96.282757 
2717.000000	96.283242 
2716.000000	96.283718 
2715.000000	96.284213 
2714.000000	96.284813 
2713.000000	96.285503 
2712.000000	96.286139 
2711.000000	96.286595 
2710.000000	96.286915 
2709.000000	96.287247 
2708.000000	96.287638 
2707.000000	96.287998 
2706.000000	96.288354 
2705.000000	96.288991 
2704.000000	96.290066 
2703.000000	96.291167 
2702.000000	96.291661 
2701.000000	96.291595 
2700.000000	96.291905 
2699.000000	96.293413 
2698.000000	96.295877 
2697.000000	96.298096 
2696.000000	96.299031 
2695.000000	96.298530 
2694.000000	96.297275 
2693.000000	96.296302 
2692.000000	96.296251 
2691.000000	96.296906 
2690.000000	96.297426 
2689.000000	96.297155 
2688.000000	96.296104 
2687.000000	96.294682 
2686.000000	96.293280 
2685.000000	96.292193 
2684.000000	96.291538 
2683.000000	96.291089 
2682.000000	96.290549 
2681.000000	96.290155 
2680.000000	96.290512 
2679.000000	96.291744 
2678.000000	96.293478 
2677.000000	96.295617 
2676.000000	96.298123 
2675.000000	96.299932 
2674.000000	96.299423 
2673.000000	96.296516 
2672.000000	96.293401 
2671.000000	96.292308 
2670.000000	96.293129 
2669.000000	96.294203 
2668.000000	96.294583 
2667.000000	96.294439 
2666.000000	96.293816 
2665.000000	96.292395 
2664.000000	96.290349 
2663.000000	96.288215 
2662.000000	96.285900 
2661.000000	96.282863 
2660.000000	96.279397 
2659.000000	96.276739 
2658.000000	96.275525 
2657.000000	96.274939 
2656.000000	96.273806 
2655.000000	96.272041 
2654.000000	96.270561 
2653.000000	96.270030 
2652.000000	96.270155 
2651.000000	96.270160 
2650.000000	96.269651 
2649.000000	96.268849 
2648.000000	96.268030 
2647.000000	96.266970 
2646.000000	96.265230 
2645.000000	96.262927 
2644.000000	96.260857 
2643.000000	96.259726 
2642.000000	96.259635 
2641.000000	96.260426 
2640.000000	96.262018 
2639.000000	96.263925 
2638.000000	96.265007 
2637.000000	96.264345 
2636.000000	96.262139 
2635.000000	96.259559 
2634.000000	96.257762 
2633.000000	96.257167 
2632.000000	96.257629 
2631.000000	96.258730 
2630.000000	96.259802 
2629.000000	96.260138 
2628.000000	96.259492 
2627.000000	96.258351 
2626.000000	96.257494 
2625.000000	96.257193 
2624.000000	96.256998 
2623.000000	96.256323 
2622.000000	96.255159 
2621.000000	96.254101 
2620.000000	96.253615 
2619.000000	96.253486 
2618.000000	96.253125 
2617.000000	96.252295 
2616.000000	96.251289 
2615.000000	96.250481 
2614.000000	96.249960 
2613.000000	96.249688 
2612.000000	96.249683 
2611.000000	96.249879 
2610.000000	96.250013 
2609.000000	96.249859 
2608.000000	96.249475 
2607.000000	96.249104 
2606.000000	96.248900 
2605.000000	96.248836 
2604.000000	96.248770 
2603.000000	96.248542 
2602.000000	96.248117 
2601.000000	96.247727 
2600.000000	96.247718 
2599.000000	96.248154 
2598.000000	96.248643 
2597.000000	96.248690 
2596.000000	96.248192 
2595.000000	96.247458 
2594.000000	96.246861 
2593.000000	96.246603 
2592.000000	96.246845 
2591.000000	96.247662 
2590.000000	96.248731 
2589.000000	96.249435 
2588.000000	96.249534 
2587.000000	96.249456 
2586.000000	96.249793 
2585.000000	96.250603 
2584.000000	96.251352 
2583.000000	96.251392 
2582.000000	96.250481 
2581.000000	96.249060 
2580.000000	96.248043 
2579.000000	96.247988 
2578.000000	96.248515 
2577.000000	96.248832 
2576.000000	96.248787 
2575.000000	96.248898 
2574.000000	96.249304 
2573.000000	96.249396 
2572.000000	96.248684 
2571.000000	96.247424 
2570.000000	96.246149 
2569.000000	96.245194 
2568.000000	96.244884 
2567.000000	96.245472 
2566.000000	96.246480 
2565.000000	96.246811 
2564.000000	96.246103 
2563.000000	96.245339 
2562.000000	96.245574 
2561.000000	96.246788 
2560.000000	96.248526 
2559.000000	96.250798 
2558.000000	96.253415 
2557.000000	96.255166 
2556.000000	96.255033 
2555.000000	96.253815 
2554.000000	96.253378 
2553.000000	96.254182 
2552.000000	96.254798 
2551.000000	96.254173 
2550.000000	96.253122 
2549.000000	96.252978 
2548.000000	96.253598 
2547.000000	96.253639 
2546.000000	96.252401 
2545.000000	96.250485 
2544.000000	96.248709 
2543.000000	96.247208 
2542.000000	96.245964 
2541.000000	96.245570 
2540.000000	96.246719 
2539.000000	96.249029 
2538.000000	96.251004 
2537.000000	96.251527 
2536.000000	96.250939 
2535.000000	96.250307 
2534.000000	96.249920 
2533.000000	96.249097 
2532.000000	96.247371 
2531.000000	96.245263 
2530.000000	96.243776 
2529.000000	96.243424 
2528.000000	96.243924 
2527.000000	96.244551 
2526.000000	96.244690 
2525.000000	96.244292 
2524.000000	96.243893 
2523.000000	96.244141 
2522.000000	96.245204 
2521.000000	96.246673 
2520.000000	96.247934 
2519.000000	96.248564 
2518.000000	96.248449 
2517.000000	96.247776 
2516.000000	96.246991 
2515.000000	96.246589 
2514.000000	96.246814 
2513.000000	96.247596 
2512.000000	96.248685 
2511.000000	96.249745 
2510.000000	96.250449 
2509.000000	96.250682 
2508.000000	96.250658 
2507.000000	96.250786 
2506.000000	96.251309 
2505.000000	96.252172 
2504.000000	96.253177 
2503.000000	96.254139 
2502.000000	96.254889 
2501.000000	96.255288 
2500.000000	96.255351 
2499.000000	96.255313 
2498.000000	96.255457 
2497.000000	96.255874 
2496.000000	96.256459 
2495.000000	96.257074 
2494.000000	96.257670 
2493.000000	96.258247 
2492.000000	96.258807 
2491.000000	96.259354 
2490.000000	96.259900 
2489.000000	96.260409 
2488.000000	96.260787 
2487.000000	96.260983 
2486.000000	96.261115 
2485.000000	96.261417 
2484.000000	96.261995 
2483.000000	96.262676 
2482.000000	96.263225 
2481.000000	96.263711 
2480.000000	96.264354 
2479.000000	96.265031 
2478.000000	96.265366 
2477.000000	96.265421 
2476.000000	96.265852 
2475.000000	96.267004 
2474.000000	96.268196 
2473.000000	96.268332 
2472.000000	96.267024 
2471.000000	96.264881 
2470.000000	96.263033 
2469.000000	96.262559 
2468.000000	96.263990 
2467.000000	96.266713 
2466.000000	96.268939 
2465.000000	96.269083 
2464.000000	96.267292 
2463.000000	96.265455 
2462.000000	96.265490 
2461.000000	96.267721 
2460.000000	96.270889 
2459.000000	96.273274 
2458.000000	96.273726 
2457.000000	96.271951 
2456.000000	96.268365 
2455.000000	96.264005 
2454.000000	96.260284 
2453.000000	96.258169 
2452.000000	96.257319 
2451.000000	96.256415 
2450.000000	96.254843 
2449.000000	96.253676 
2448.000000	96.254178 
2447.000000	96.255706 
2446.000000	96.256152 
2445.000000	96.254598 
2444.000000	96.252488 
2443.000000	96.251866 
2442.000000	96.253486 
2441.000000	96.256919 
2440.000000	96.261390 
2439.000000	96.265969 
2438.000000	96.269861 
2437.000000	96.273143 
2436.000000	96.276483 
2435.000000	96.279656 
2434.000000	96.281237 
2433.000000	96.280480 
2432.000000	96.278775 
2431.000000	96.278488 
2430.000000	96.280779 
2429.000000	96.285031 
2428.000000	96.289634 
2427.000000	96.292731 
2426.000000	96.292960 
2425.000000	96.290336 
2424.000000	96.286274 
2423.000000	96.282410 
2422.000000	96.279796 
2421.000000	96.279024 
2420.000000	96.280201 
2419.000000	96.282465 
2418.000000	96.284435 
2417.000000	96.286119 
2416.000000	96.289159 
2415.000000	96.294399 
2414.000000	96.300248 
2413.000000	96.304400 
2412.000000	96.306243 
2411.000000	96.306415 
2410.000000	96.305260 
2409.000000	96.303277 
2408.000000	96.302103 
2407.000000	96.303032 
2406.000000	96.304978 
2405.000000	96.305781 
2404.000000	96.305332 
2403.000000	96.305637 
2402.000000	96.307860 
2401.000000	96.311051 
2400.000000	96.313877 
2399.000000	96.316012 
2398.000000	96.317624 
2397.000000	96.318852 
2396.000000	96.319946 
2395.000000	96.320690 
2394.000000	96.319773 
2393.000000	96.316240 
2392.000000	96.311528 
2391.000000	96.308501 
2390.000000	96.308137 
2389.000000	96.308549 
2388.000000	96.307572 
2387.000000	96.304904 
2386.000000	96.301363 
2385.000000	96.297516 
2384.000000	96.293776 
2383.000000	96.290893 
2382.000000	96.289899 
2381.000000	96.292326 
2380.000000	96.300272 
2379.000000	96.314415 
2378.000000	96.330870 
2377.000000	96.341878 
2376.000000	96.341932 
2375.000000	96.332259 
2374.000000	96.318942 
2373.000000	96.306494 
2372.000000	96.294920 
2371.000000	96.283247 
2370.000000	96.272588 
2369.000000	96.264351 
2368.000000	96.257633 
2367.000000	96.250966 
2366.000000	96.245854 
2365.000000	96.245508 
2364.000000	96.249983 
2363.000000	96.255082 
2362.000000	96.256905 
2361.000000	96.255957 
2360.000000	96.254208 
2359.000000	96.251387 
2358.000000	96.246895 
2357.000000	96.242165 
2356.000000	96.239086 
2355.000000	96.237981 
2354.000000	96.238190 
2353.000000	96.238029 
2352.000000	96.235243 
2351.000000	96.228575 
2350.000000	96.219409 
2349.000000	96.212261 
2348.000000	96.211673 
2347.000000	96.216081 
2346.000000	96.216987 
2345.000000	96.209595 
2344.000000	96.199200 
2343.000000	96.192920 
2342.000000	96.192267 
2341.000000	96.195206 
2340.000000	96.199050 
2339.000000	96.201391 
2338.000000	96.201555 
2337.000000	96.201256 
2336.000000	96.203141 
2335.000000	96.207657 
2334.000000	96.211417 
2333.000000	96.208871 
2332.000000	96.197287 
2331.000000	96.179769 
2330.000000	96.162037 
2329.000000	96.146898 
2328.000000	96.133787 
2327.000000	96.122140 
2326.000000	96.112637 
2325.000000	96.106528 
2324.000000	96.105460 
2323.000000	96.109915 
2322.000000	96.116234 
2321.000000	96.118958 
2320.000000	96.117610 
2319.000000	96.117790 
2318.000000	96.122796 
2317.000000	96.129173 
2316.000000	96.131699 
2315.000000	96.130235 
2314.000000	96.128184 
2313.000000	96.127260 
2312.000000	96.126033 
2311.000000	96.123443 
2310.000000	96.120121 
2309.000000	96.117155 
2308.000000	96.115685 
2307.000000	96.117382 
2306.000000	96.122740 
2305.000000	96.128961 
2304.000000	96.131812 
2303.000000	96.130007 
2302.000000	96.126512 
2301.000000	96.125341 
2300.000000	96.127867 
2299.000000	96.132071 
2298.000000	96.134790 
2297.000000	96.134778 
2296.000000	96.133549 
2295.000000	96.133500 
2294.000000	96.135250 
2293.000000	96.137640 
2292.000000	96.139810 
2291.000000	96.142400 
2290.000000	96.146053 
2289.000000	96.149868 
2288.000000	96.152094 
2287.000000	96.152240 
2286.000000	96.151710 
2285.000000	96.152517 
2284.000000	96.155348 
2283.000000	96.158930 
2282.000000	96.161162 
2281.000000	96.161062 
2280.000000	96.159515 
2279.000000	96.158419 
2278.000000	96.158958 
2277.000000	96.160828 
2276.000000	96.162952 
2275.000000	96.164465 
2274.000000	96.165082 
2273.000000	96.165004 
2272.000000	96.164748 
2271.000000	96.164713 
2270.000000	96.164712 
2269.000000	96.164267 
2268.000000	96.163378 
2267.000000	96.162588 
2266.000000	96.162206 
2265.000000	96.161929 
2264.000000	96.161344 
2263.000000	96.160362 
2262.000000	96.158995 
2261.000000	96.157147 
2260.000000	96.154884 
2259.000000	96.152554 
2258.000000	96.150507 
2257.000000	96.148972 
2256.000000	96.148247 
2255.000000	96.148541 
2254.000000	96.149475 
2253.000000	96.149963 
2252.000000	96.149118 
2251.000000	96.146927 
2250.000000	96.143888 
2249.000000	96.140485 
2248.000000	96.137189 
2247.000000	96.134569 
2246.000000	96.132855 
2245.000000	96.131670 
2244.000000	96.130326 
2243.000000	96.128507 
2242.000000	96.126403 
2241.000000	96.124337 
2240.000000	96.122487 
2239.000000	96.120858 
2238.000000	96.119340 
2237.000000	96.117719 
2236.000000	96.115816 
2235.000000	96.113664 
2234.000000	96.111500 
2233.000000	96.109495 
2232.000000	96.107626 
2231.000000	96.105804 
2230.000000	96.103986 
2229.000000	96.102100 
2228.000000	96.100020 
2227.000000	96.097753 
2226.000000	96.095530 
2225.000000	96.093570 
2224.000000	96.091779 
2223.000000	96.089897 
2222.000000	96.087962 
2221.000000	96.086277 
2220.000000	96.084906 
2219.000000	96.083524 
2218.000000	96.081847 
2217.000000	96.080017 
2216.000000	96.078388 
2215.000000	96.076998 
2214.000000	96.075470 
2213.000000	96.073471 
2212.000000	96.071175 
2211.000000	96.069200 
2210.000000	96.067986 
2209.000000	96.067425 
2208.000000	96.066896 
2207.000000	96.065680 
2206.000000	96.063557 
2205.000000	96.061446 
2204.000000	96.061089 
2203.000000	96.063326 
2202.000000	96.066785 
2201.000000	96.069305 
2200.000000	96.069610 
2199.000000	96.066977 
2198.000000	96.060763 
2197.000000	96.051789 
2196.000000	96.043178 
2195.000000	96.037792 
2194.000000	96.035486 
2193.000000	96.034476 
2192.000000	96.034416 
2191.000000	96.035907 
2190.000000	96.037714 
2189.000000	96.037464 
2188.000000	96.035157 
2187.000000	96.032824 
2186.000000	96.030223 
2185.000000	96.024548 
2184.000000	96.016260 
2183.000000	96.011669 
2182.000000	96.016199 
2181.000000	96.026886 
2180.000000	96.034507 
2179.000000	96.033297 
2178.000000	96.026002 
2177.000000	96.020115 
2176.000000	96.020882 
2175.000000	96.027473 
2174.000000	96.034404 
2173.000000	96.036805 
2172.000000	96.035039 
2171.000000	96.033183 
2170.000000	96.032681 
2169.000000	96.029786 
2168.000000	96.021099 
2167.000000	96.009550 
2166.000000	96.001475 
2165.000000	95.998370 
2164.000000	95.995238 
2163.000000	95.988463 
2162.000000	95.983118 
2161.000000	95.989795 
2160.000000	96.014530 
2159.000000	96.052390 
2158.000000	96.089645 
2157.000000	96.113983 
2156.000000	96.122586 
2155.000000	96.120649 
2154.000000	96.115924 
2153.000000	96.114858 
2152.000000	96.120354 
2151.000000	96.130438 
2150.000000	96.139803 
2149.000000	96.145087 
2148.000000	96.148515 
2147.000000	96.154487 
2146.000000	96.163523 
2145.000000	96.172431 
2144.000000	96.179836 
2143.000000	96.187702 
2142.000000	96.196850 
2141.000000	96.204756 
2140.000000	96.209450 
2139.000000	96.213047 
2138.000000	96.219686 
2137.000000	96.231346 
2136.000000	96.246001 
2135.000000	96.257984 
2134.000000	96.260727 
2133.000000	96.252596 
2132.000000	96.240627 
2131.000000	96.235049 
2130.000000	96.238925 
2129.000000	96.246023 
2128.000000	96.249211 
2127.000000	96.248044 
2126.000000	96.246941 
2125.000000	96.248927 
2124.000000	96.253270 
2123.000000	96.257307 
2122.000000	96.258232 
2121.000000	96.254256 
2120.000000	96.246021 
2119.000000	96.236598 
2118.000000	96.229190 
2117.000000	96.225062 
2116.000000	96.223384 
2115.000000	96.222007 
2114.000000	96.218570 
2113.000000	96.213093 
2112.000000	96.209858 
2111.000000	96.213783 
2110.000000	96.224043 
2109.000000	96.233541 
2108.000000	96.236545 
2107.000000	96.234311 
2106.000000	96.231415 
2105.000000	96.229863 
2104.000000	96.229187 
2103.000000	96.229558 
2102.000000	96.231019 
2101.000000	96.231235 
2100.000000	96.227961 
2099.000000	96.223383 
2098.000000	96.222741 
2097.000000	96.228243 
2096.000000	96.236756 
2095.000000	96.243374 
2094.000000	96.245774 
2093.000000	96.244371 
2092.000000	96.240424 
2091.000000	96.235472 
2090.000000	96.231451 
2089.000000	96.229781 
2088.000000	96.230217 
2087.000000	96.231007 
2086.000000	96.230278 
2085.000000	96.227383 
2084.000000	96.223356 
2083.000000	96.220226 
2082.000000	96.219361 
2081.000000	96.220335 
2080.000000	96.221688 
2079.000000	96.222589 
2078.000000	96.223135 
2077.000000	96.223235 
2076.000000	96.222360 
2075.000000	96.220651 
2074.000000	96.218951 
2073.000000	96.217222 
2072.000000	96.213931 
2071.000000	96.207991 
2070.000000	96.200550 
2069.000000	96.194078 
2068.000000	96.190186 
2067.000000	96.188530 
2066.000000	96.187433 
2065.000000	96.185044 
2064.000000	96.180500 
2063.000000	96.174710 
2062.000000	96.170030 
2061.000000	96.168551 
2060.000000	96.170362 
2059.000000	96.173539 
2058.000000	96.175484 
2057.000000	96.174689 
2056.000000	96.171419 
2055.000000	96.166815 
2054.000000	96.161776 
2053.000000	96.156706 
2052.000000	96.151947 
2051.000000	96.147803 
2050.000000	96.144295 
2049.000000	96.141447 
2048.000000	96.139664 
2047.000000	96.139170 
2046.000000	96.139039 
2045.000000	96.137574 
2044.000000	96.134030 
2043.000000	96.129449 
2042.000000	96.125631 
2041.000000	96.123669 
2040.000000	96.123607 
2039.000000	96.125071 
2038.000000	96.127521 
2037.000000	96.130024 
2036.000000	96.131518 
2035.000000	96.131438 
2034.000000	96.130061 
2033.000000	96.128480 
2032.000000	96.127976 
2031.000000	96.128652 
2030.000000	96.128662 
2029.000000	96.125782 
2028.000000	96.120015 
2027.000000	96.114032 
2026.000000	96.110394 
2025.000000	96.109270 
2024.000000	96.109564 
2023.000000	96.111198 
2022.000000	96.115021 
2021.000000	96.120525 
2020.000000	96.124966 
2019.000000	96.125498 
2018.000000	96.121446 
2017.000000	96.114830 
2016.000000	96.109130 
2015.000000	96.106772 
2014.000000	96.107236 
2013.000000	96.107377 
2012.000000	96.104966 
2011.000000	96.102000 
2010.000000	96.102558 
2009.000000	96.107286 
2008.000000	96.112147 
2007.000000	96.113643 
2006.000000	96.112913 
2005.000000	96.113004 
2004.000000	96.114645 
2003.000000	96.116992 
2002.000000	96.120649 
2001.000000	96.126385 
2000.000000	96.131756 
1999.000000	96.131851 
1998.000000	96.124051 
1997.000000	96.111140 
1996.000000	96.099159 
1995.000000	96.092269 
1994.000000	96.090339 
1993.000000	96.090542 
1992.000000	96.090210 
1991.000000	96.088892 
1990.000000	96.088411 
1989.000000	96.090785 
1988.000000	96.095385 
1987.000000	96.098090 
1986.000000	96.094622 
1985.000000	96.085282 
1984.000000	96.075231 
1983.000000	96.069038 
1982.000000	96.066557 
1981.000000	96.065469 
1980.000000	96.066626 
1979.000000	96.073234 
1978.000000	96.084804 
1977.000000	96.095882 
1976.000000	96.102079 
1975.000000	96.104424 
1974.000000	96.106337 
1973.000000	96.109713 
1972.000000	96.115005 
1971.000000	96.122227 
1970.000000	96.129921 
1969.000000	96.134744 
1968.000000	96.134179 
1967.000000	96.129595 
1966.000000	96.125788 
1965.000000	96.126899 
1964.000000	96.133546 
1963.000000	96.143558 
1962.000000	96.153919 
1961.000000	96.162116 
1960.000000	96.166668 
1959.000000	96.167413 
1958.000000	96.165973 
1957.000000	96.165442 
1956.000000	96.168187 
1955.000000	96.173861 
1954.000000	96.179817 
1953.000000	96.183723 
1952.000000	96.185341 
1951.000000	96.185925 
1950.000000	96.186905 
1949.000000	96.189242 
1948.000000	96.193290 
1947.000000	96.198417 
1946.000000	96.203017 
1945.000000	96.205754 
1944.000000	96.206667 
1943.000000	96.206921 
1942.000000	96.207750 
1941.000000	96.209624 
1940.000000	96.212356 
1939.000000	96.215451 
1938.000000	96.218382 
1937.000000	96.220977 
1936.000000	96.223495 
1935.000000	96.226117 
1934.000000	96.228479 
1933.000000	96.230219 
1932.000000	96.231786 
1931.000000	96.234055 
1930.000000	96.237120 
1929.000000	96.239936 
1928.000000	96.241963 
1927.000000	96.243905 
1926.000000	96.246309 
1925.000000	96.248314 
1924.000000	96.248836 
1923.000000	96.248586 
1922.000000	96.249146 
1921.000000	96.250543 
1920.000000	96.251560 
1919.000000	96.251452 
1918.000000	96.250323 
1917.000000	96.248471 
1916.000000	96.246536 
1915.000000	96.245922 
1914.000000	96.247209 
1913.000000	96.248949 
1912.000000	96.249210 
1911.000000	96.248051 
1910.000000	96.247112 
1909.000000	96.247145 
1908.000000	96.247730 
1907.000000	96.248112 
1906.000000	96.247591 
1905.000000	96.245411 
1904.000000	96.241542 
1903.000000	96.238027 
1902.000000	96.237139 
1901.000000	96.238580 
1900.000000	96.240390 
1899.000000	96.241516 
1898.000000	96.242333 
1897.000000	96.243003 
1896.000000	96.242697 
1895.000000	96.241025 
1894.000000	96.238700 
1893.000000	96.236471 
1892.000000	96.234566 
1891.000000	96.233058 
1890.000000	96.231982 
1889.000000	96.231257 
1888.000000	96.230953 
1887.000000	96.231575 
1886.000000	96.233184 
1885.000000	96.234635 
1884.000000	96.234612 
1883.000000	96.233301 
1882.000000	96.232145 
1881.000000	96.232141 
1880.000000	96.233234 
1879.000000	96.234600 
1878.000000	96.235114 
1877.000000	96.234348 
1876.000000	96.233201 
1875.000000	96.233292 
1874.000000	96.235383 
1873.000000	96.238478 
1872.000000	96.240945 
1871.000000	96.242170 
1870.000000	96.242371 
1869.000000	96.241901 
1868.000000	96.241592 
1867.000000	96.242805 
1866.000000	96.245593 
1865.000000	96.247670 
1864.000000	96.247093 
1863.000000	96.245292 
1862.000000	96.245570 
1861.000000	96.248864 
1860.000000	96.253208 
1859.000000	96.257047 
1858.000000	96.260766 
1857.000000	96.264717 
1856.000000	96.268732 
1855.000000	96.273209 
1854.000000	96.278402 
1853.000000	96.282403 
1852.000000	96.283763 
1851.000000	96.283883 
1850.000000	96.284478 
1849.000000	96.285145 
1848.000000	96.284774 
1847.000000	96.284627 
1846.000000	96.286996 
1845.000000	96.291670 
1844.000000	96.296268 
1843.000000	96.299854 
1842.000000	96.303508 
1841.000000	96.307669 
1840.000000	96.312235 
1839.000000	96.317177 
1838.000000	96.322051 
1837.000000	96.324856 
1836.000000	96.324013 
1835.000000	96.321696 
1834.000000	96.321577 
1833.000000	96.324122 
1832.000000	96.327350 
1831.000000	96.329296 
1830.000000	96.329820 
1829.000000	96.330527 
1828.000000	96.331853 
1827.000000	96.333045 
1826.000000	96.333400 
1825.000000	96.333252 
1824.000000	96.333271 
1823.000000	96.333539 
1822.000000	96.334187 
1821.000000	96.335083 
1820.000000	96.335650 
1819.000000	96.335821 
1818.000000	96.337444 
1817.000000	96.341467 
1816.000000	96.345011 
1815.000000	96.345743 
1814.000000	96.344751 
1813.000000	96.344526 
1812.000000	96.344879 
1811.000000	96.343341 
1810.000000	96.340538 
1809.000000	96.338667 
1808.000000	96.337438 
1807.000000	96.336527 
1806.000000	96.337918 
1805.000000	96.342557 
1804.000000	96.346737 
1803.000000	96.346048 
1802.000000	96.339730 
1801.000000	96.331776 
1800.000000	96.326258 
1799.000000	96.323912 
1798.000000	96.324487 
1797.000000	96.326310 
1796.000000	96.326891 
1795.000000	96.326768 
1794.000000	96.328476 
1793.000000	96.332288 
1792.000000	96.334332 
1791.000000	96.332555 
1790.000000	96.331315 
1789.000000	96.334421 
1788.000000	96.340253 
1787.000000	96.344804 
1786.000000	96.346569 
1785.000000	96.347275 
1784.000000	96.348613 
1783.000000	96.352121 
1782.000000	96.356914 
1781.000000	96.361066 
1780.000000	96.364216 
1779.000000	96.367186 
1778.000000	96.371535 
1777.000000	96.376515 
1776.000000	96.380503 
1775.000000	96.383162 
1774.000000	96.384816 
1773.000000	96.386685 
1772.000000	96.390032 
1771.000000	96.392904 
1770.000000	96.393979 
1769.000000	96.395033 
1768.000000	96.397654 
1767.000000	96.401871 
1766.000000	96.406209 
1765.000000	96.409979 
1764.000000	96.412941 
1763.000000	96.414188 
1762.000000	96.413571 
1761.000000	96.414065 
1760.000000	96.417420 
1759.000000	96.421983 
1758.000000	96.425243 
1757.000000	96.426348 
1756.000000	96.428155 
1755.000000	96.431459 
1754.000000	96.433285 
1753.000000	96.431141 
1752.000000	96.426225 
1751.000000	96.422652 
1750.000000	96.422990 
1749.000000	96.425828 
1748.000000	96.428938 
1747.000000	96.432071 
1746.000000	96.434551 
1745.000000	96.436541 
1744.000000	96.439104 
1743.000000	96.441681 
1742.000000	96.442932 
1741.000000	96.443573 
1740.000000	96.445246 
1739.000000	96.448042 
1738.000000	96.450203 
1737.000000	96.450907 
1736.000000	96.450250 
1735.000000	96.447875 
1734.000000	96.445908 
1733.000000	96.446162 
1732.000000	96.448399 
1731.000000	96.453040 
1730.000000	96.459369 
1729.000000	96.464506 
1728.000000	96.467025 
1727.000000	96.467726 
1726.000000	96.466778 
1725.000000	96.464542 
1724.000000	96.461486 
1723.000000	96.458288 
1722.000000	96.456385 
1721.000000	96.455848 
1720.000000	96.455519 
1719.000000	96.453945 
1718.000000	96.452242 
1717.000000	96.452529 
1716.000000	96.451614 
1715.000000	96.448075 
1714.000000	96.445460 
1713.000000	96.444776 
1712.000000	96.443297 
1711.000000	96.440560 
1710.000000	96.438545 
1709.000000	96.437568 
1708.000000	96.436503 
1707.000000	96.435312 
1706.000000	96.435227 
1705.000000	96.435446 
1704.000000	96.432530 
1703.000000	96.425999 
1702.000000	96.418390 
1701.000000	96.413160 
1700.000000	96.411571 
1699.000000	96.409714 
1698.000000	96.407633 
1697.000000	96.406490 
1696.000000	96.404796 
1695.000000	96.402326 
1694.000000	96.399897 
1693.000000	96.397912 
1692.000000	96.395987 
1691.000000	96.393543 
1690.000000	96.390407 
1689.000000	96.386540 
1688.000000	96.382436 
1687.000000	96.378601 
1686.000000	96.375362 
1685.000000	96.372781 
1684.000000	96.370248 
1683.000000	96.367266 
1682.000000	96.363950 
1681.000000	96.360408 
1680.000000	96.357060 
1679.000000	96.354180 
1678.000000	96.351384 
1677.000000	96.348181 
1676.000000	96.344904 
1675.000000	96.342454 
1674.000000	96.339863 
1673.000000	96.336172 
1672.000000	96.332296 
1671.000000	96.329410 
1670.000000	96.327256 
1669.000000	96.324386 
1668.000000	96.321430 
1667.000000	96.319984 
1666.000000	96.319418 
1665.000000	96.318742 
1664.000000	96.317852 
1663.000000	96.317300 
1662.000000	96.315709 
1661.000000	96.310947 
1660.000000	96.305622 
1659.000000	96.303286 
1658.000000	96.302535 
1657.000000	96.299480 
1656.000000	96.293300 
1655.000000	96.285304 
1654.000000	96.276421 
1653.000000	96.273539 
1652.000000	96.273405 
1651.000000	96.270657 
1650.000000	96.266948 
1649.000000	96.265024 
1648.000000	96.263730 
1647.000000	96.262348 
1646.000000	96.261758 
1645.000000	96.260876 
1644.000000	96.257709 
1643.000000	96.253527 
1642.000000	96.250657 
1641.000000	96.249028 
1640.000000	96.248498 
1639.000000	96.247984 
1638.000000	96.247042 
1637.000000	96.245172 
1636.000000	96.243896 
1635.000000	96.246158 
1634.000000	96.249632 
1633.000000	96.251306 
1632.000000	96.250202 
1631.000000	96.248630 
1630.000000	96.248923 
1629.000000	96.250532 
1628.000000	96.251534 
1627.000000	96.252478 
1626.000000	96.253615 
1625.000000	96.254321 
1624.000000	96.256161 
1623.000000	96.262175 
1622.000000	96.270397 
1621.000000	96.274617 
1620.000000	96.274518 
1619.000000	96.274138 
1618.000000	96.275680 
1617.000000	96.276633 
1616.000000	96.275362 
1615.000000	96.275028 
1614.000000	96.277479 
1613.000000	96.280140 
1612.000000	96.280787 
1611.000000	96.281110 
1610.000000	96.282499 
1609.000000	96.284487 
1608.000000	96.288783 
1607.000000	96.297899 
1606.000000	96.308410 
1605.000000	96.315007 
1604.000000	96.319482 
1603.000000	96.325699 
1602.000000	96.332621 
1601.000000	96.337108 
1600.000000	96.339959 
1599.000000	96.343802 
1598.000000	96.347714 
1597.000000	96.349839 
1596.000000	96.351665 
1595.000000	96.356117 
1594.000000	96.362471 
1593.000000	96.367217 
1592.000000	96.369850 
1591.000000	96.373160 
1590.000000	96.377829 
1589.000000	96.381739 
1588.000000	96.385331 
1587.000000	96.391295 
1586.000000	96.398984 
1585.000000	96.403129 
1584.000000	96.403997 
1583.000000	96.407457 
1582.000000	96.414093 
1581.000000	96.419126 
1580.000000	96.421529 
1579.000000	96.424355 
1578.000000	96.428046 
1577.000000	96.431493 
1576.000000	96.436367 
1575.000000	96.443601 
1574.000000	96.448945 
1573.000000	96.451082 
1572.000000	96.454106 
1571.000000	96.461346 
1570.000000	96.469368 
1569.000000	96.469641 
1568.000000	96.465034 
1567.000000	96.463115 
1566.000000	96.463613 
1565.000000	96.462623 
1564.000000	96.461640 
1563.000000	96.459099 
1562.000000	96.451692 
1561.000000	96.433717 
1560.000000	96.419992 
1559.000000	96.423729 
1558.000000	96.432710 
1557.000000	96.434373 
1556.000000	96.433054 
1555.000000	96.432758 
1554.000000	96.431188 
1553.000000	96.427799 
1552.000000	96.424032 
1551.000000	96.415994 
1550.000000	96.402079 
1549.000000	96.387872 
1548.000000	96.379393 
1547.000000	96.375338 
1546.000000	96.367503 
1545.000000	96.350616 
1544.000000	96.330359 
1543.000000	96.315047 
1542.000000	96.307937 
1541.000000	96.305455 
1540.000000	96.297373 
1539.000000	96.283159 
1538.000000	96.266558 
1537.000000	96.247917 
1536.000000	96.228688 
1535.000000	96.212451 
1534.000000	96.199632 
1533.000000	96.188331 
1532.000000	96.176467 
1531.000000	96.163075 
1530.000000	96.149163 
1529.000000	96.134216 
1528.000000	96.115894 
1527.000000	96.095147 
1526.000000	96.075613 
1525.000000	96.059713 
1524.000000	96.047508 
1523.000000	96.037141 
1522.000000	96.024505 
1521.000000	96.006133 
1520.000000	95.983699 
1519.000000	95.961668 
1518.000000	95.941216 
1517.000000	95.920958 
1516.000000	95.901371 
1515.000000	95.885224 
1514.000000	95.872893 
1513.000000	95.862134 
1512.000000	95.849147 
1511.000000	95.830893 
1510.000000	95.808512 
1509.000000	95.784604 
1508.000000	95.760924 
1507.000000	95.738751 
1506.000000	95.722554 
1505.000000	95.709629 
1504.000000	95.694836 
1503.000000	95.677432 
1502.000000	95.658277 
1501.000000	95.638583 
1500.000000	95.619756 
1499.000000	95.601623 
1498.000000	95.582508 
1497.000000	95.562778 
1496.000000	95.544133 
1495.000000	95.527647 
1494.000000	95.513877 
1493.000000	95.502817 
1492.000000	95.492814 
1491.000000	95.480377 
1490.000000	95.463025 
1489.000000	95.443009 
1488.000000	95.422858 
1487.000000	95.403080 
1486.000000	95.385197 
1485.000000	95.367442 
1484.000000	95.348585 
1483.000000	95.330177 
1482.000000	95.312896 
1481.000000	95.296258 
1480.000000	95.279133 
1479.000000	95.261770 
1478.000000	95.244492 
1477.000000	95.226444 
1476.000000	95.205142 
1475.000000	95.180851 
1474.000000	95.156698 
1473.000000	95.136229 
1472.000000	95.122349 
1471.000000	95.113095 
1470.000000	95.104276 
1469.000000	95.093116 
1468.000000	95.077646 
1467.000000	95.058465 
1466.000000	95.039922 
1465.000000	95.026338 
1464.000000	95.018706 
1463.000000	95.011068 
1462.000000	94.998754 
1461.000000	94.983530 
1460.000000	94.969455 
1459.000000	94.954900 
1458.000000	94.929795 
1457.000000	94.896303 
1456.000000	94.874628 
1455.000000	94.867870 
1454.000000	94.863096 
1453.000000	94.855591 
1452.000000	94.848352 
1451.000000	94.844356 
1450.000000	94.843958 
1449.000000	94.847221 
1448.000000	94.850968 
1447.000000	94.851168 
1446.000000	94.845571 
1445.000000	94.837452 
1444.000000	94.833306 
1443.000000	94.832586 
1442.000000	94.831206 
1441.000000	94.827783 
1440.000000	94.824077 
1439.000000	94.817829 
1438.000000	94.804405 
1437.000000	94.787057 
1436.000000	94.777951 
1435.000000	94.779124 
1434.000000	94.783062 
1433.000000	94.787209 
1432.000000	94.793020 
1431.000000	94.800103 
1430.000000	94.805614 
1429.000000	94.810458 
1428.000000	94.816706 
1427.000000	94.825065 
1426.000000	94.833386 
1425.000000	94.840190 
1424.000000	94.848817 
1423.000000	94.858144 
1422.000000	94.864614 
1421.000000	94.870582 
1420.000000	94.881592 
1419.000000	94.892093 
1418.000000	94.892578 
1417.000000	94.890833 
1416.000000	94.900729 
1415.000000	94.922650 
1414.000000	94.945317 
1413.000000	94.960566 
1412.000000	94.971634 
1411.000000	94.983970 
1410.000000	94.997746 
1409.000000	95.012867 
1408.000000	95.029528 
1407.000000	95.046744 
1406.000000	95.062424 
1405.000000	95.077831 
1404.000000	95.098687 
1403.000000	95.123260 
1402.000000	95.144609 
1401.000000	95.162480 
1400.000000	95.182970 
1399.000000	95.208172 
1398.000000	95.232145 
1397.000000	95.250631 
1396.000000	95.266499 
1395.000000	95.285884 
1394.000000	95.310503 
1393.000000	95.339359 
1392.000000	95.373248 
1391.000000	95.410257 
1390.000000	95.445130 
1389.000000	95.473882 
1388.000000	95.496280 
1387.000000	95.515305 
1386.000000	95.534745 
1385.000000	95.557383 
1384.000000	95.584604 
1383.000000	95.613707 
1382.000000	95.639956 
1381.000000	95.661443 
1380.000000	95.679635 
1379.000000	95.697809 
1378.000000	95.718828 
1377.000000	95.743383 
1376.000000	95.768884 
1375.000000	95.790897 
1374.000000	95.807273 
1373.000000	95.822528 
1372.000000	95.842498 
1371.000000	95.867962 
1370.000000	95.894333 
1369.000000	95.916632 
1368.000000	95.935890 
1367.000000	95.955467 
1366.000000	95.975601 
1365.000000	95.994157 
1364.000000	96.008789 
1363.000000	96.019059 
1362.000000	96.028545 
1361.000000	96.042051 
1360.000000	96.060885 
1359.000000	96.083146 
1358.000000	96.105641 
1357.000000	96.125410 
1356.000000	96.141125 
1355.000000	96.153613 
1354.000000	96.165488 
1353.000000	96.180397 
1352.000000	96.198465 
1351.000000	96.217468 
1350.000000	96.234977 
1349.000000	96.248749 
1348.000000	96.258961 
1347.000000	96.267830 
1346.000000	96.278262 
1345.000000	96.291871 
1344.000000	96.307870 
1343.000000	96.323725 
1342.000000	96.336745 
1341.000000	96.344894 
1340.000000	96.347754 
1339.000000	96.347928 
1338.000000	96.349504 
1337.000000	96.354767 
1336.000000	96.362865 
1335.000000	96.371265 
1334.000000	96.378543 
1333.000000	96.385469 
1332.000000	96.392901 
1331.000000	96.400325 
1330.000000	96.406605 
1329.000000	96.411821 
1328.000000	96.417135 
1327.000000	96.423740 
1326.000000	96.431089 
1325.000000	96.436826 
1324.000000	96.439460 
1323.000000	96.439004 
1322.000000	96.436408 
1321.000000	96.433223 
1320.000000	96.431213 
1319.000000	96.431410 
1318.000000	96.434073 
1317.000000	96.439286 
1316.000000	96.446084 
1315.000000	96.451440 
1314.000000	96.452408 
1313.000000	96.450204 
1312.000000	96.449561 
1311.000000	96.453064 
1310.000000	96.458136 
1309.000000	96.461243 
1308.000000	96.462154 
1307.000000	96.463272 
1306.000000	96.465684 
1305.000000	96.467990 
1304.000000	96.468840 
1303.000000	96.467732 
1302.000000	96.464610 
1301.000000	96.460388 
1300.000000	96.457672 
1299.000000	96.458857 
1298.000000	96.463288 
1297.000000	96.467296 
1296.000000	96.467622 
1295.000000	96.464651 
1294.000000	96.461856 
1293.000000	96.462362 
1292.000000	96.465894 
1291.000000	96.469181 
1290.000000	96.469562 
1289.000000	96.467470 
1288.000000	96.464809 
1287.000000	96.462032 
1286.000000	96.458428 
1285.000000	96.454869 
1284.000000	96.453851 
1283.000000	96.455900 
1282.000000	96.458101 
1281.000000	96.457143 
1280.000000	96.452857 
1279.000000	96.447952 
1278.000000	96.445430 
1277.000000	96.446922 
1276.000000	96.452098 
1275.000000	96.458782 
1274.000000	96.464278 
1273.000000	96.467486 
1272.000000	96.469144 
1271.000000	96.469788 
1270.000000	96.468887 
1269.000000	96.466460 
1268.000000	96.464073 
1267.000000	96.462736 
1266.000000	96.461191 
1265.000000	96.458208 
1264.000000	96.455134 
1263.000000	96.454239 
1262.000000	96.455685 
1261.000000	96.457816 
1260.000000	96.460271 
1259.000000	96.464555 
1258.000000	96.470839 
1257.000000	96.475956 
1256.000000	96.475684 
1255.000000	96.469268 
1254.000000	96.461225 
1253.000000	96.457169 
1252.000000	96.457280 
1251.000000	96.455681 
1250.000000	96.447759 
1249.000000	96.436356 
1248.000000	96.428241 
1247.000000	96.425189 
1246.000000	96.422120 
1245.000000	96.414610 
1244.000000	96.404277 
1243.000000	96.395399 
1242.000000	96.389588 
1241.000000	96.385734 
1240.000000	96.382198 
1239.000000	96.376675 
1238.000000	96.366376 
1237.000000	96.350943 
1236.000000	96.333481 
1235.000000	96.316776 
1234.000000	96.300251 
1233.000000	96.282373 
1232.000000	96.263526 
1231.000000	96.243899 
1230.000000	96.221076 
1229.000000	96.193045 
1228.000000	96.161582 
1227.000000	96.129103 
1226.000000	96.093356 
1225.000000	96.048996 
1224.000000	95.994271 
1223.000000	95.932877 
1222.000000	95.868883 
1221.000000	95.802541 
1220.000000	95.731971 
1219.000000	95.656564 
1218.000000	95.577361 
1217.000000	95.495499 
1216.000000	95.410951 
1215.000000	95.322251 
1214.000000	95.228176 
1213.000000	95.130914 
1212.000000	95.035759 
1211.000000	94.944760 
1210.000000	94.852267 
1209.000000	94.750781 
1208.000000	94.640863 
1207.000000	94.531382 
1206.000000	94.429384 
1205.000000	94.332986 
1204.000000	94.235281 
1203.000000	94.132035 
1202.000000	94.024598 
1201.000000	93.917854 
1200.000000	93.816211 
1199.000000	93.719579 
1198.000000	93.622945 
1197.000000	93.521882 
1196.000000	93.417688 
1195.000000	93.314876 
1194.000000	93.214907 
1193.000000	93.115510 
1192.000000	93.015108 
1191.000000	92.913833 
1190.000000	92.810531 
1189.000000	92.702797 
1188.000000	92.590211 
1187.000000	92.474306 
1186.000000	92.355593 
1185.000000	92.233883 
1184.000000	92.110810 
1183.000000	91.988259 
1182.000000	91.864934 
1181.000000	91.738198 
1180.000000	91.608353 
1179.000000	91.476788 
1178.000000	91.341028 
1177.000000	91.196862 
1176.000000	91.044784 
1175.000000	90.889152 
1174.000000	90.731506 
1173.000000	90.570296 
1172.000000	90.406734 
1171.000000	90.244272 
1170.000000	90.082204 
1169.000000	89.917010 
1168.000000	89.751299 
1167.000000	89.595086 
1166.000000	89.457745 
1165.000000	89.346045 
1164.000000	89.270469 
1163.000000	89.243707 
1162.000000	89.268344 
1161.000000	89.330810 
1160.000000	89.408679 
1159.000000	89.479142 
1158.000000	89.521903 
1157.000000	89.523266 
1156.000000	89.481171 
1155.000000	89.402614 
1154.000000	89.295745 
1153.000000	89.168201 
1152.000000	89.031093 
1151.000000	88.896296 
1150.000000	88.767923 
1149.000000	88.642673 
1148.000000	88.519095 
1147.000000	88.399204 
1146.000000	88.280676 
1145.000000	88.156510 
1144.000000	88.025045 
1143.000000	87.892797 
1142.000000	87.764669 
1141.000000	87.638239 
1140.000000	87.510057 
1139.000000	87.380717 
1138.000000	87.251559 
1137.000000	87.122822 
1136.000000	86.996479 
1135.000000	86.874274 
1134.000000	86.752128 
1133.000000	86.623621 
1132.000000	86.489263 
1131.000000	86.354707 
1130.000000	86.220267 
1129.000000	86.081505 
1128.000000	85.940165 
1127.000000	85.803806 
1126.000000	85.672945 
1125.000000	85.539086 
1124.000000	85.397930 
1123.000000	85.254595 
1122.000000	85.113422 
1121.000000	84.972892 
1120.000000	84.833163 
1119.000000	84.697941 
1118.000000	84.566112 
1117.000000	84.432472 
1116.000000	84.299250 
1115.000000	84.175436 
1114.000000	84.061868 
1113.000000	83.948927 
1112.000000	83.832087 
1111.000000	83.717271 
1110.000000	83.607255 
1109.000000	83.495846 
1108.000000	83.379105 
1107.000000	83.260334 
1106.000000	83.141096 
1105.000000	83.018856 
1104.000000	82.895959 
1103.000000	82.779164 
1102.000000	82.667274 
1101.000000	82.552528 
1100.000000	82.435353 
1099.000000	82.325524 
1098.000000	82.226813 
1097.000000	82.132023 
1096.000000	82.035946 
1095.000000	81.939907 
1094.000000	81.842522 
1093.000000	81.740237 
1092.000000	81.639404 
1091.000000	81.553460 
1090.000000	81.485077 
1089.000000	81.423985 
1088.000000	81.363870 
1087.000000	81.307556 
1086.000000	81.254808 
1085.000000	81.200588 
1084.000000	81.147129 
1083.000000	81.102256 
1082.000000	81.063818 
1081.000000	81.021307 
1080.000000	80.974775 
1079.000000	80.936023 
1078.000000	80.908394 
1077.000000	80.880860 
1076.000000	80.844418 
1075.000000	80.798443 
1074.000000	80.739112 
1073.000000	80.658231 
1072.000000	80.555935 
1071.000000	80.438619 
1070.000000	80.302035 
1069.000000	80.132851 
1068.000000	79.929907 
1067.000000	79.708341 
1066.000000	79.480142 
1065.000000	79.246644 
1064.000000	79.012703 
1063.000000	78.789107 
1062.000000	78.575532 
1061.000000	78.359246 
1060.000000	78.136852 
1059.000000	77.920697 
1058.000000	77.718497 
1057.000000	77.523356 
1056.000000	77.329037 
1055.000000	77.138134 
1054.000000	76.949854 
1053.000000	76.756587 
1052.000000	76.558708 
1051.000000	76.365948 
1050.000000	76.178226 
1049.000000	75.983723 
1048.000000	75.780861 
1047.000000	75.581833 
1046.000000	75.390894 
1045.000000	75.199379 
1044.000000	75.004155 
1043.000000	74.811462 
1042.000000	74.620434 
1041.000000	74.422009 
1040.000000	74.217398 
1039.000000	74.019492 
1038.000000	73.833616 
1037.000000	73.655320 
1036.000000	73.488115 
1035.000000	73.342668 
1034.000000	73.216756 
1033.000000	73.097280 
1032.000000	72.984044 
1031.000000	72.889706 
1030.000000	72.814487 
1029.000000	72.744163 
1028.000000	72.675845 
1027.000000	72.621997 
1026.000000	72.584896 
1025.000000	72.550583 
1024.000000	72.512602 
1023.000000	72.478908 
1022.000000	72.450518 
1021.000000	72.416035 
1020.000000	72.372420 
1019.000000	72.329805 
1018.000000	72.291433 
1017.000000	72.250020 
1016.000000	72.207288 
1015.000000	72.175157 
1014.000000	72.153717 
1013.000000	72.129688 
1012.000000	72.100373 
1011.000000	72.077738 
1010.000000	72.065712 
1009.000000	72.055569 
1008.000000	72.046973 
1007.000000	72.051406 
1006.000000	72.071252 
1005.000000	72.097184 
1004.000000	72.128852 
1003.000000	72.175671 
1002.000000	72.234322 
1001.000000	72.288824 
1000.000000	72.336952 
999.000000	 72.393987 
998.000000	 72.466271 
997.000000	 72.543498 
996.000000	 72.620952 
995.000000	 72.707105 
994.000000	 72.804530 
993.000000	 72.904700 
992.000000	 73.005755 
991.000000	 73.114694 
990.000000	 73.229093 
989.000000	 73.338227 
988.000000	 73.445367 
987.000000	 73.566940 
986.000000	 73.706505 
985.000000	 73.851484 
984.000000	 73.998436 
983.000000	 74.158889 
982.000000	 74.336111 
981.000000	 74.518694 
980.000000	 74.701727 
979.000000	 74.892617 
978.000000	 75.091381 
977.000000	 75.287353 
976.000000	 75.480879 
975.000000	 75.687138 
974.000000	 75.912391 
973.000000	 76.145808 
972.000000	 76.379671 
971.000000	 76.618504 
970.000000	 76.863250 
969.000000	 77.105304 
968.000000	 77.341474 
967.000000	 77.577684 
966.000000	 77.814122 
965.000000	 78.043947 
964.000000	 78.269563 
963.000000	 78.502379 
962.000000	 78.743486 
961.000000	 78.982026 
960.000000	 79.214813 
959.000000	 79.448938 
958.000000	 79.682418 
957.000000	 79.901812 
956.000000	 80.103760 
955.000000	 80.301340 
954.000000	 80.504304 
953.000000	 80.708636 
952.000000	 80.909127 
951.000000	 81.105865 
950.000000	 81.295086 
949.000000	 81.470007 
948.000000	 81.634041 
947.000000	 81.797692 
946.000000	 81.959943 
945.000000	 82.108751 
944.000000	 82.242133 
943.000000	 82.372292 
942.000000	 82.506354 
941.000000	 82.639709 
940.000000	 82.771616 
939.000000	 82.909740 
938.000000	 83.054576 
937.000000	 83.195670 
936.000000	 83.328410 
935.000000	 83.459950 
934.000000	 83.594794 
933.000000	 83.729228 
932.000000	 83.863322 
931.000000	 84.003044 
930.000000	 84.146567 
929.000000	 84.283475 
928.000000	 84.411748 
927.000000	 84.541240 
926.000000	 84.676473 
925.000000	 84.809599 
924.000000	 84.933703 
923.000000	 85.049656 
922.000000	 85.157479 
921.000000	 85.255108 
920.000000	 85.348388 
919.000000	 85.447778 
918.000000	 85.551685 
917.000000	 85.647008 
916.000000	 85.730036 
915.000000	 85.813801 
914.000000	 85.911293 
913.000000	 86.024097 
912.000000	 86.150206 
911.000000	 86.289653 
910.000000	 86.439256 
909.000000	 86.594731 
908.000000	 86.760666 
907.000000	 86.946223 
906.000000	 87.149858 
905.000000	 87.360691 
904.000000	 87.574489 
903.000000	 87.794292 
902.000000	 88.016262 
901.000000	 88.231044 
900.000000	 88.439949 
899.000000	 88.654070 
898.000000	 88.875528 
897.000000	 89.093947 
896.000000	 89.302429 
895.000000	 89.502326 
894.000000	 89.691730 
893.000000	 89.864996 
892.000000	 90.025615 
891.000000	 90.184444 
890.000000	 90.341621 
889.000000	 90.482954 
888.000000	 90.595989 
887.000000	 90.677490 
886.000000	 90.726414 
885.000000	 90.745123 
884.000000	 90.748402 
883.000000	 90.754707 
882.000000	 90.765634 
881.000000	 90.770457 
880.000000	 90.773031 
879.000000	 90.794799 
878.000000	 90.846760 
877.000000	 90.919167 
876.000000	 91.005711 
875.000000	 91.117287 
874.000000	 91.262936 
873.000000	 91.436870 
872.000000	 91.633641 
871.000000	 91.857388 
870.000000	 92.105426 
869.000000	 92.358871 
868.000000	 92.600076 
867.000000	 92.826877 
866.000000	 93.042239 
865.000000	 93.243254 
864.000000	 93.429021 
863.000000	 93.607946 
862.000000	 93.787552 
861.000000	 93.964677 
860.000000	 94.132687 
859.000000	 94.291013 
858.000000	 94.442346 
857.000000	 94.588007 
856.000000	 94.730486 
855.000000	 94.872408 
854.000000	 95.008424 
853.000000	 95.126107 
852.000000	 95.219614 
851.000000	 95.296435 
850.000000	 95.368622 
849.000000	 95.444295 
848.000000	 95.528214 
847.000000	 95.620565 
846.000000	 95.712720 
845.000000	 95.793897 
844.000000	 95.864145 
843.000000	 95.931692 
842.000000	 95.997180 
841.000000	 96.051796 
840.000000	 96.091726 
839.000000	 96.121390 
838.000000	 96.140469 
837.000000	 96.142433 
836.000000	 96.131132 
835.000000	 96.125069 
834.000000	 96.136783 
833.000000	 96.158408 
832.000000	 96.175540 
831.000000	 96.185916 
830.000000	 96.196741 
829.000000	 96.212850 
828.000000	 96.236860 
827.000000	 96.273682 
826.000000	 96.324863 
825.000000	 96.382735 
824.000000	 96.436459 
823.000000	 96.478885 
822.000000	 96.505128 
821.000000	 96.513349 
820.000000	 96.509586 
819.000000	 96.502064 
818.000000	 96.487429 
817.000000	 96.450322 
816.000000	 96.378119 
815.000000	 96.268000 
814.000000	 96.118158 
813.000000	 95.921448 
812.000000	 95.670697 
811.000000	 95.360687 
810.000000	 94.980450 
809.000000	 94.513546 
808.000000	 93.953477 
807.000000	 93.313313 
806.000000	 92.616722 
805.000000	 91.888254 
804.000000	 91.156895 
803.000000	 90.456157 
802.000000	 89.810968 
801.000000	 89.234675 
800.000000	 88.745327 
799.000000	 88.370143 
798.000000	 88.124478 
797.000000	 87.999156 
796.000000	 87.974302 
795.000000	 88.030208 
794.000000	 88.139990 
793.000000	 88.270499 
792.000000	 88.399301 
791.000000	 88.517625 
790.000000	 88.613445 
789.000000	 88.667578 
788.000000	 88.669664 
787.000000	 88.621058 
786.000000	 88.517758 
785.000000	 88.347537 
784.000000	 88.110594 
783.000000	 87.828740 
782.000000	 87.529987 
781.000000	 87.240405 
780.000000	 86.994267 
779.000000	 86.829711 
778.000000	 86.763171 
777.000000	 86.784141 
776.000000	 86.881211 
775.000000	 87.053681 
774.000000	 87.290927 
773.000000	 87.562934 
772.000000	 87.842854 
771.000000	 88.122023 
770.000000	 88.394859 
769.000000	 88.647594 
768.000000	 88.871223 
767.000000	 89.069044 
766.000000	 89.243315 
765.000000	 89.391341 
764.000000	 89.522777 
763.000000	 89.661906 
762.000000	 89.820675 
761.000000	 89.984898 
760.000000	 90.138394 
759.000000	 90.285467 
758.000000	 90.437892 
757.000000	 90.595433 
756.000000	 90.753846 
755.000000	 90.918798 
754.000000	 91.094556 
753.000000	 91.266518 
752.000000	 91.410568 
751.000000	 91.517775 
750.000000	 91.601790 
749.000000	 91.685345 
748.000000	 91.784373 
747.000000	 91.899413 
746.000000	 92.017423 
745.000000	 92.127062 
744.000000	 92.234230 
743.000000	 92.355440 
742.000000	 92.495369 
741.000000	 92.641615 
740.000000	 92.783121 
739.000000	 92.921061 
738.000000	 93.058096 
737.000000	 93.189426 
736.000000	 93.309941 
735.000000	 93.419886 
734.000000	 93.518664 
733.000000	 93.602878 
732.000000	 93.674151 
731.000000	 93.739372 
730.000000	 93.799626 
729.000000	 93.847952 
728.000000	 93.883338 
727.000000	 93.916858 
726.000000	 93.959517 
725.000000	 94.014952 
724.000000	 94.085095 
723.000000	 94.170063 
722.000000	 94.260191 
721.000000	 94.341626 
720.000000	 94.413474 
719.000000	 94.484582 
718.000000	 94.550964 
717.000000	 94.595461 
716.000000	 94.613619 
715.000000	 94.623854 
714.000000	 94.646754 
713.000000	 94.688425 
712.000000	 94.750590 
711.000000	 94.838256 
710.000000	 94.946244 
709.000000	 95.053119 
708.000000	 95.139907 
707.000000	 95.203785 
706.000000	 95.243333 
705.000000	 95.247603 
704.000000	 95.211254 
703.000000	 95.141829 
702.000000	 95.038339 
701.000000	 94.875075 
700.000000	 94.622219 
699.000000	 94.279013 
698.000000	 93.877925 
697.000000	 93.471541 
696.000000	 93.126146 
695.000000	 92.906854 
694.000000	 92.847790 
693.000000	 92.933697 
692.000000	 93.116904 
691.000000	 93.351306 
690.000000	 93.605148 
689.000000	 93.856025 
688.000000	 94.088756 
687.000000	 94.294738 
686.000000	 94.468222 
685.000000	 94.606491 
684.000000	 94.718289 
683.000000	 94.824387 
682.000000	 94.939694 
681.000000	 95.061320 
680.000000	 95.177664 
679.000000	 95.283604 
678.000000	 95.376867 
677.000000	 95.453420 
676.000000	 95.522776 
675.000000	 95.602998 
674.000000	 95.695781 
673.000000	 95.786284 
672.000000	 95.871375 
671.000000	 95.979547 
670.000000	 96.148523 
669.000000	 96.369518 
668.000000	 96.512164 
667.000000	 96.489677 
666.000000	 96.411646 
665.000000	 96.360256 
664.000000	 96.333822 
663.000000	 96.328855 
662.000000	 96.355194 
661.000000	 96.405691 
660.000000	 96.465884 
659.000000	 96.527009 
658.000000	 96.575229 
657.000000	 96.584037 
656.000000	 96.548388 
655.000000	 96.495350 
654.000000	 96.449836 
653.000000	 96.411752 
652.000000	 96.382181 
651.000000	 96.381928 
650.000000	 96.419860 

