4000.000000	97.683805 
3999.000000	97.680973 
3998.000000	97.675298 
3997.000000	97.668669 
3996.000000	97.663273 
3995.000000	97.660277 
3994.000000	97.659663 
3993.000000	97.660316 
3992.000000	97.660851 
3991.000000	97.660678 
3990.000000	97.660235 
3989.000000	97.660176 
3988.000000	97.660475 
3987.000000	97.660553 
3986.000000	97.660100 
3985.000000	97.659409 
3984.000000	97.658859 
3983.000000	97.658462 
3982.000000	97.658184 
3981.000000	97.658228 
3980.000000	97.658586 
3979.000000	97.658631 
3978.000000	97.657690 
3977.000000	97.655943 
3976.000000	97.654300 
3975.000000	97.653200 
3974.000000	97.652104 
3973.000000	97.650298 
3972.000000	97.647705 
3971.000000	97.644844 
3970.000000	97.642385 
3969.000000	97.640955 
3968.000000	97.640850 
3967.000000	97.641735 
3966.000000	97.642669 
3965.000000	97.642539 
3964.000000	97.640670 
3963.000000	97.637252 
3962.000000	97.633471 
3961.000000	97.630872 
3960.000000	97.630184 
3959.000000	97.630892 
3958.000000	97.631890 
3957.000000	97.632511 
3956.000000	97.632636 
3955.000000	97.632301 
3954.000000	97.631613 
3953.000000	97.630770 
3952.000000	97.629880 
3951.000000	97.628654 
3950.000000	97.626632 
3949.000000	97.623750 
3948.000000	97.620648 
3947.000000	97.618318 
3946.000000	97.617272 
3945.000000	97.617077 
3944.000000	97.616843 
3943.000000	97.616394 
3942.000000	97.616510 
3941.000000	97.617790 
3940.000000	97.619822 
3939.000000	97.621668 
3938.000000	97.622810 
3937.000000	97.623474 
3936.000000	97.623725 
3935.000000	97.622826 
3934.000000	97.620096 
3933.000000	97.616093 
3932.000000	97.612589 
3931.000000	97.610839 
3930.000000	97.610773 
3929.000000	97.611825 
3928.000000	97.613454 
3927.000000	97.614889 
3926.000000	97.615109 
3925.000000	97.613979 
3924.000000	97.612628 
3923.000000	97.611974 
3922.000000	97.611721 
3921.000000	97.611307 
3920.000000	97.610912 
3919.000000	97.610961 
3918.000000	97.611137 
3917.000000	97.610825 
3916.000000	97.610064 
3915.000000	97.609367 
3914.000000	97.608937 
3913.000000	97.608628 
3912.000000	97.608339 
3911.000000	97.608167 
3910.000000	97.608100 
3909.000000	97.608052 
3908.000000	97.607904 
3907.000000	97.607528 
3906.000000	97.606806 
3905.000000	97.605811 
3904.000000	97.604800 
3903.000000	97.603930 
3902.000000	97.603149 
3901.000000	97.602375 
3900.000000	97.601582 
3899.000000	97.600769 
3898.000000	97.599941 
3897.000000	97.599098 
3896.000000	97.598237 
3895.000000	97.597360 
3894.000000	97.596471 
3893.000000	97.595574 
3892.000000	97.594666 
3891.000000	97.593741 
3890.000000	97.592802 
3889.000000	97.591852 
3888.000000	97.590888 
3887.000000	97.589895 
3886.000000	97.588871 
3885.000000	97.587822 
3884.000000	97.586756 
3883.000000	97.585665 
3882.000000	97.584539 
3881.000000	97.583385 
3880.000000	97.582231 
3879.000000	97.581105 
3878.000000	97.580011 
3877.000000	97.578931 
3876.000000	97.577840 
3875.000000	97.576724 
3874.000000	97.575589 
3873.000000	97.574448 
3872.000000	97.573306 
3871.000000	97.572165 
3870.000000	97.571037 
3869.000000	97.569948 
3868.000000	97.568910 
3867.000000	97.567908 
3866.000000	97.566927 
3865.000000	97.565970 
3864.000000	97.565050 
3863.000000	97.564166 
3862.000000	97.563301 
3861.000000	97.562439 
3860.000000	97.561575 
3859.000000	97.560708 
3858.000000	97.559839 
3857.000000	97.558980 
3856.000000	97.558147 
3855.000000	97.557350 
3854.000000	97.556603 
3853.000000	97.555918 
3852.000000	97.555302 
3851.000000	97.554745 
3850.000000	97.554239 
3849.000000	97.553773 
3848.000000	97.553335 
3847.000000	97.552912 
3846.000000	97.552486 
3845.000000	97.552047 
3844.000000	97.551592 
3843.000000	97.551132 
3842.000000	97.550689 
3841.000000	97.550289 
3840.000000	97.549955 
3839.000000	97.549690 
3838.000000	97.549481 
3837.000000	97.549304 
3836.000000	97.549140 
3835.000000	97.548990 
3834.000000	97.548864 
3833.000000	97.548772 
3832.000000	97.548719 
3831.000000	97.548701 
3830.000000	97.548711 
3829.000000	97.548741 
3828.000000	97.548788 
3827.000000	97.548843 
3826.000000	97.548906 
3825.000000	97.548982 
3824.000000	97.549083 
3823.000000	97.549210 
3822.000000	97.549355 
3821.000000	97.549521 
3820.000000	97.549727 
3819.000000	97.549988 
3818.000000	97.550299 
3817.000000	97.550648 
3816.000000	97.551026 
3815.000000	97.551429 
3814.000000	97.551842 
3813.000000	97.552237 
3812.000000	97.552597 
3811.000000	97.552923 
3810.000000	97.553226 
3809.000000	97.553510 
3808.000000	97.553770 
3807.000000	97.554007 
3806.000000	97.554240 
3805.000000	97.554493 
3804.000000	97.554785 
3803.000000	97.555123 
3802.000000	97.555515 
3801.000000	97.555971 
3800.000000	97.556479 
3799.000000	97.557003 
3798.000000	97.557504 
3797.000000	97.557961 
3796.000000	97.558374 
3795.000000	97.558740 
3794.000000	97.559055 
3793.000000	97.559316 
3792.000000	97.559527 
3791.000000	97.559689 
3790.000000	97.559805 
3789.000000	97.559888 
3788.000000	97.559942 
3787.000000	97.559980 
3786.000000	97.560032 
3785.000000	97.560088 
3784.000000	97.560124 
3783.000000	97.560138 
3782.000000	97.560032 
3781.000000	97.559631 
3780.000000	97.558974 
3779.000000	97.558501 
3778.000000	97.558584 
3777.000000	97.559019 
3776.000000	97.559133 
3775.000000	97.558556 
3774.000000	97.557594 
3773.000000	97.556803 
3772.000000	97.556166 
3771.000000	97.555262 
3770.000000	97.554196 
3769.000000	97.553631 
3768.000000	97.553712 
3767.000000	97.553717 
3766.000000	97.552948 
3765.000000	97.551753 
3764.000000	97.551275 
3763.000000	97.551936 
3762.000000	97.552747 
3761.000000	97.552598 
3760.000000	97.551699 
3759.000000	97.550805 
3758.000000	97.549386 
3757.000000	97.546733 
3756.000000	97.543407 
3755.000000	97.540369 
3754.000000	97.537725 
3753.000000	97.535396 
3752.000000	97.534562 
3751.000000	97.535574 
3750.000000	97.535823 
3749.000000	97.533919 
3748.000000	97.532608 
3747.000000	97.534324 
3746.000000	97.536821 
3745.000000	97.536412 
3744.000000	97.535026 
3743.000000	97.535453 
3742.000000	97.535725 
3741.000000	97.533451 
3740.000000	97.529784 
3739.000000	97.528356 
3738.000000	97.529667 
3737.000000	97.529844 
3736.000000	97.527425 
3735.000000	97.526742 
3734.000000	97.530801 
3733.000000	97.535997 
3732.000000	97.537829 
3731.000000	97.536507 
3730.000000	97.534703 
3729.000000	97.533196 
3728.000000	97.530276 
3727.000000	97.525437 
3726.000000	97.521380 
3725.000000	97.520006 
3724.000000	97.519802 
3723.000000	97.518933 
3722.000000	97.517877 
3721.000000	97.517557 
3720.000000	97.517335 
3719.000000	97.516159 
3718.000000	97.513503 
3717.000000	97.510409 
3716.000000	97.508419 
3715.000000	97.506789 
3714.000000	97.502894 
3713.000000	97.496107 
3712.000000	97.489933 
3711.000000	97.487474 
3710.000000	97.487096 
3709.000000	97.485746 
3708.000000	97.482114 
3707.000000	97.476819 
3706.000000	97.471694 
3705.000000	97.467955 
3704.000000	97.464783 
3703.000000	97.459867 
3702.000000	97.451423 
3701.000000	97.439801 
3700.000000	97.427407 
3699.000000	97.416740 
3698.000000	97.407875 
3697.000000	97.399896 
3696.000000	97.393879 
3695.000000	97.390216 
3694.000000	97.386218 
3693.000000	97.380096 
3692.000000	97.375039 
3691.000000	97.376216 
3690.000000	97.383025 
3689.000000	97.388436 
3688.000000	97.386893 
3687.000000	97.379367 
3686.000000	97.369219 
3685.000000	97.357804 
3684.000000	97.346788 
3683.000000	97.339936 
3682.000000	97.337697 
3681.000000	97.333429 
3680.000000	97.321946 
3679.000000	97.307610 
3678.000000	97.297820 
3677.000000	97.289188 
3676.000000	97.275151 
3675.000000	97.259740 
3674.000000	97.248655 
3673.000000	97.241087 
3672.000000	97.231573 
3671.000000	97.217137 
3670.000000	97.204999 
3669.000000	97.200887 
3668.000000	97.197949 
3667.000000	97.189428 
3666.000000	97.177520 
3665.000000	97.167552 
3664.000000	97.160881 
3663.000000	97.153655 
3662.000000	97.140929 
3661.000000	97.122286 
3660.000000	97.102874 
3659.000000	97.087499 
3658.000000	97.075132 
3657.000000	97.059888 
3656.000000	97.040090 
3655.000000	97.020304 
3654.000000	97.004781 
3653.000000	96.992548 
3652.000000	96.978207 
3651.000000	96.959767 
3650.000000	96.943406 
3649.000000	96.932397 
3648.000000	96.921376 
3647.000000	96.908040 
3646.000000	96.896236 
3645.000000	96.888130 
3644.000000	96.881100 
3643.000000	96.871767 
3642.000000	96.859492 
3641.000000	96.845828 
3640.000000	96.830909 
3639.000000	96.814102 
3638.000000	96.798144 
3637.000000	96.787231 
3636.000000	96.780568 
3635.000000	96.771461 
3634.000000	96.757078 
3633.000000	96.743322 
3632.000000	96.736164 
3631.000000	96.730176 
3630.000000	96.714213 
3629.000000	96.693088 
3628.000000	96.679887 
3627.000000	96.673378 
3626.000000	96.665947 
3625.000000	96.657029 
3624.000000	96.652094 
3623.000000	96.655585 
3622.000000	96.664058 
3621.000000	96.667417 
3620.000000	96.658901 
3619.000000	96.641509 
3618.000000	96.623144 
3617.000000	96.611204 
3616.000000	96.610487 
3615.000000	96.620266 
3614.000000	96.636194 
3613.000000	96.654851 
3612.000000	96.673829 
3611.000000	96.688787 
3610.000000	96.694558 
3609.000000	96.690942 
3608.000000	96.684662 
3607.000000	96.682523 
3606.000000	96.685455 
3605.000000	96.691584 
3604.000000	96.699972 
3603.000000	96.709826 
3602.000000	96.718886 
3601.000000	96.724659 
3600.000000	96.727723 
3599.000000	96.730451 
3598.000000	96.734007 
3597.000000	96.738000 
3596.000000	96.742176 
3595.000000	96.746408 
3594.000000	96.751409 
3593.000000	96.758079 
3592.000000	96.766443 
3591.000000	96.774553 
3590.000000	96.777744 
3589.000000	96.772108 
3588.000000	96.760561 
3587.000000	96.751532 
3586.000000	96.749765 
3585.000000	96.753859 
3584.000000	96.760993 
3583.000000	96.769266 
3582.000000	96.777305 
3581.000000	96.783366 
3580.000000	96.786062 
3579.000000	96.785481 
3578.000000	96.783559 
3577.000000	96.782910 
3576.000000	96.784773 
3575.000000	96.788056 
3574.000000	96.790530 
3573.000000	96.791148 
3572.000000	96.790550 
3571.000000	96.789562 
3570.000000	96.787022 
3569.000000	96.780300 
3568.000000	96.769590 
3567.000000	96.760281 
3566.000000	96.757382 
3565.000000	96.760697 
3564.000000	96.766909 
3563.000000	96.772871 
3562.000000	96.777119 
3561.000000	96.779651 
3560.000000	96.781048 
3559.000000	96.781852 
3558.000000	96.782348 
3557.000000	96.782747 
3556.000000	96.783089 
3555.000000	96.782971 
3554.000000	96.781683 
3553.000000	96.779160 
3552.000000	96.776477 
3551.000000	96.774808 
3550.000000	96.774127 
3549.000000	96.773293 
3548.000000	96.771312 
3547.000000	96.768349 
3546.000000	96.765577 
3545.000000	96.764338 
3544.000000	96.765553 
3543.000000	96.769167 
3542.000000	96.773806 
3541.000000	96.777801 
3540.000000	96.780489 
3539.000000	96.782138 
3538.000000	96.782891 
3537.000000	96.782566 
3536.000000	96.781410 
3535.000000	96.780066 
3534.000000	96.778958 
3533.000000	96.778092 
3532.000000	96.777650 
3531.000000	96.777905 
3530.000000	96.778354 
3529.000000	96.777723 
3528.000000	96.775397 
3527.000000	96.772392 
3526.000000	96.770238 
3525.000000	96.769429 
3524.000000	96.769759 
3523.000000	96.771411 
3522.000000	96.774465 
3521.000000	96.778260 
3520.000000	96.781755 
3519.000000	96.784244 
3518.000000	96.785587 
3517.000000	96.785702 
3516.000000	96.784498 
3515.000000	96.782474 
3514.000000	96.780932 
3513.000000	96.780839 
3512.000000	96.781673 
3511.000000	96.781909 
3510.000000	96.780752 
3509.000000	96.779014 
3508.000000	96.778201 
3507.000000	96.778959 
3506.000000	96.780556 
3505.000000	96.781704 
3504.000000	96.781811 
3503.000000	96.781334 
3502.000000	96.781025 
3501.000000	96.781144 
3500.000000	96.781506 
3499.000000	96.782014 
3498.000000	96.782887 
3497.000000	96.784255 
3496.000000	96.785463 
3495.000000	96.785179 
3494.000000	96.782648 
3493.000000	96.778734 
3492.000000	96.775300 
3491.000000	96.773489 
3490.000000	96.772964 
3489.000000	96.772670 
3488.000000	96.771839 
3487.000000	96.770148 
3486.000000	96.767486 
3485.000000	96.764155 
3484.000000	96.761070 
3483.000000	96.759254 
3482.000000	96.759119 
3481.000000	96.760433 
3480.000000	96.762748 
3479.000000	96.765345 
3478.000000	96.766877 
3477.000000	96.765870 
3476.000000	96.761963 
3475.000000	96.756522 
3474.000000	96.751619 
3473.000000	96.748314 
3472.000000	96.746161 
3471.000000	96.744119 
3470.000000	96.741671 
3469.000000	96.739056 
3468.000000	96.736765 
3467.000000	96.735092 
3466.000000	96.734065 
3465.000000	96.733532 
3464.000000	96.733179 
3463.000000	96.732522 
3462.000000	96.730956 
3461.000000	96.727881 
3460.000000	96.722882 
3459.000000	96.715944 
3458.000000	96.707679 
3457.000000	96.699410 
3456.000000	96.692875 
3455.000000	96.689481 
3454.000000	96.689440 
3453.000000	96.691415 
3452.000000	96.693460 
3451.000000	96.694453 
3450.000000	96.694504 
3449.000000	96.694163 
3448.000000	96.693605 
3447.000000	96.692626 
3446.000000	96.690906 
3445.000000	96.688222 
3444.000000	96.684587 
3443.000000	96.680307 
3442.000000	96.675831 
3441.000000	96.671548 
3440.000000	96.667808 
3439.000000	96.664929 
3438.000000	96.662819 
3437.000000	96.660661 
3436.000000	96.657570 
3435.000000	96.653731 
3434.000000	96.650438 
3433.000000	96.648696 
3432.000000	96.648355 
3431.000000	96.648775 
3430.000000	96.649765 
3429.000000	96.651358 
3428.000000	96.652880 
3427.000000	96.653057 
3426.000000	96.651302 
3425.000000	96.648499 
3424.000000	96.646019 
3423.000000	96.644091 
3422.000000	96.641705 
3421.000000	96.638164 
3420.000000	96.634122 
3419.000000	96.630808 
3418.000000	96.628740 
3417.000000	96.627735 
3416.000000	96.627780 
3415.000000	96.629066 
3414.000000	96.631171 
3413.000000	96.632845 
3412.000000	96.632954 
3411.000000	96.631444 
3410.000000	96.629258 
3409.000000	96.627549 
3408.000000	96.626856 
3407.000000	96.626766 
3406.000000	96.626266 
3405.000000	96.624608 
3404.000000	96.621889 
3403.000000	96.618888 
3402.000000	96.616456 
3401.000000	96.615030 
3400.000000	96.614615 
3399.000000	96.614831 
3398.000000	96.614955 
3397.000000	96.614278 
3396.000000	96.612699 
3395.000000	96.610981 
3394.000000	96.610196 
3393.000000	96.610805 
3392.000000	96.612227 
3391.000000	96.613251 
3390.000000	96.613002 
3389.000000	96.611514 
3388.000000	96.609601 
3387.000000	96.608191 
3386.000000	96.607624 
3385.000000	96.607418 
3384.000000	96.606700 
3383.000000	96.605047 
3382.000000	96.603010 
3381.000000	96.601654 
3380.000000	96.601476 
3379.000000	96.602011 
3378.000000	96.602737 
3377.000000	96.604080 
3376.000000	96.606922 
3375.000000	96.611061 
3374.000000	96.614733 
3373.000000	96.616107 
3372.000000	96.615068 
3371.000000	96.613306 
3370.000000	96.612756 
3369.000000	96.614046 
3368.000000	96.616277 
3367.000000	96.617845 
3366.000000	96.617403 
3365.000000	96.614449 
3364.000000	96.609537 
3363.000000	96.604146 
3362.000000	96.600167 
3361.000000	96.599155 
3360.000000	96.601741 
3359.000000	96.607379 
3358.000000	96.614491 
3357.000000	96.621147 
3356.000000	96.626069 
3355.000000	96.629337 
3354.000000	96.632270 
3353.000000	96.636309 
3352.000000	96.641488 
3351.000000	96.645880 
3350.000000	96.646926 
3349.000000	96.643601 
3348.000000	96.637440 
3347.000000	96.631569 
3346.000000	96.628367 
3345.000000	96.627972 
3344.000000	96.628841 
3343.000000	96.629562 
3342.000000	96.630302 
3341.000000	96.632502 
3340.000000	96.637172 
3339.000000	96.643649 
3338.000000	96.650124 
3337.000000	96.655261 
3336.000000	96.659002 
3335.000000	96.661699 
3334.000000	96.662923 
3333.000000	96.661622 
3332.000000	96.657437 
3331.000000	96.651485 
3330.000000	96.645681 
3329.000000	96.641376 
3328.000000	96.638902 
3327.000000	96.638336 
3326.000000	96.640021 
3325.000000	96.643984 
3324.000000	96.649222 
3323.000000	96.654208 
3322.000000	96.658366 
3321.000000	96.662584 
3320.000000	96.667858 
3319.000000	96.673760 
3318.000000	96.678548 
3317.000000	96.680619 
3316.000000	96.679522 
3315.000000	96.675882 
3314.000000	96.671024 
3313.000000	96.666636 
3312.000000	96.664125 
3311.000000	96.663997 
3310.000000	96.665906 
3309.000000	96.669254 
3308.000000	96.673556 
3307.000000	96.678211 
3306.000000	96.682386 
3305.000000	96.685569 
3304.000000	96.688111 
3303.000000	96.690945 
3302.000000	96.694618 
3301.000000	96.698486 
3300.000000	96.700905 
3299.000000	96.700385 
3298.000000	96.696837 
3297.000000	96.691923 
3296.000000	96.688050 
3295.000000	96.686754 
3294.000000	96.688031 
3293.000000	96.690777 
3292.000000	96.693569 
3291.000000	96.695283 
3290.000000	96.695646 
3289.000000	96.695649 
3288.000000	96.697160 
3287.000000	96.701532 
3286.000000	96.708245 
3285.000000	96.714990 
3284.000000	96.719447 
3283.000000	96.721209 
3282.000000	96.721959 
3281.000000	96.723635 
3280.000000	96.726278 
3279.000000	96.728004 
3278.000000	96.727125 
3277.000000	96.723766 
3276.000000	96.719259 
3275.000000	96.714599 
3274.000000	96.710351 
3273.000000	96.707776 
3272.000000	96.708738 
3271.000000	96.713995 
3270.000000	96.722172 
3269.000000	96.730750 
3268.000000	96.738040 
3267.000000	96.743987 
3266.000000	96.749458 
3265.000000	96.755102 
3264.000000	96.760471 
3263.000000	96.763938 
3262.000000	96.763885 
3261.000000	96.760178 
3260.000000	96.754261 
3259.000000	96.747900 
3258.000000	96.742222 
3257.000000	96.738019 
3256.000000	96.736128 
3255.000000	96.736852 
3254.000000	96.739586 
3253.000000	96.743735 
3252.000000	96.749659 
3251.000000	96.757914 
3250.000000	96.767646 
3249.000000	96.776425 
3248.000000	96.782087 
3247.000000	96.784530 
3246.000000	96.785473 
3245.000000	96.786583 
3244.000000	96.787883 
3243.000000	96.787986 
3242.000000	96.785708 
3241.000000	96.781199 
3240.000000	96.775714 
3239.000000	96.770818 
3238.000000	96.768072 
3237.000000	96.768944 
3236.000000	96.774001 
3235.000000	96.781860 
3234.000000	96.789609 
3233.000000	96.795069 
3232.000000	96.798660 
3231.000000	96.802747 
3230.000000	96.809168 
3229.000000	96.817357 
3228.000000	96.824696 
3227.000000	96.828637 
3226.000000	96.828435 
3225.000000	96.825226 
3224.000000	96.820879 
3223.000000	96.816842 
3222.000000	96.814019 
3221.000000	96.813171 
3220.000000	96.814762 
3219.000000	96.818340 
3218.000000	96.822516 
3217.000000	96.825944 
3216.000000	96.828335 
3215.000000	96.830618 
3214.000000	96.834165 
3213.000000	96.839613 
3212.000000	96.846131 
3211.000000	96.851798 
3210.000000	96.855006 
3209.000000	96.855595 
3208.000000	96.854608 
3207.000000	96.853048 
3206.000000	96.851180 
3205.000000	96.849192 
3204.000000	96.848031 
3203.000000	96.848896 
3202.000000	96.851850 
3201.000000	96.855349 
3200.000000	96.857708 
3199.000000	96.859230 
3198.000000	96.862399 
3197.000000	96.869426 
3196.000000	96.879744 
3195.000000	96.890196 
3194.000000	96.897785 
3193.000000	96.901738 
3192.000000	96.902765 
3191.000000	96.901317 
3190.000000	96.897364 
3189.000000	96.891640 
3188.000000	96.886200 
3187.000000	96.883356 
3186.000000	96.884189 
3185.000000	96.887994 
3184.000000	96.892821 
3183.000000	96.896993 
3182.000000	96.900634 
3181.000000	96.905509 
3180.000000	96.912967 
3179.000000	96.922104 
3178.000000	96.930282 
3177.000000	96.935403 
3176.000000	96.937234 
3175.000000	96.936918 
3174.000000	96.935944 
3173.000000	96.935451 
3172.000000	96.935671 
3171.000000	96.935731 
3170.000000	96.934537 
3169.000000	96.932160 
3168.000000	96.930102 
3167.000000	96.930205 
3166.000000	96.933656 
3165.000000	96.940769 
3164.000000	96.950796 
3163.000000	96.961692 
3162.000000	96.970882 
3161.000000	96.976892 
3160.000000	96.980059 
3159.000000	96.981620 
3158.000000	96.982442 
3157.000000	96.982670 
3156.000000	96.982005 
3155.000000	96.979975 
3154.000000	96.976467 
3153.000000	96.972446 
3152.000000	96.969752 
3151.000000	96.969790 
3150.000000	96.972622 
3149.000000	96.977509 
3148.000000	96.983870 
3147.000000	96.991316 
3146.000000	96.999125 
3145.000000	97.006267 
3144.000000	97.011885 
3143.000000	97.015506 
3142.000000	97.017051 
3141.000000	97.017052 
3140.000000	97.016664 
3139.000000	97.016871 
3138.000000	97.017496 
3137.000000	97.017273 
3136.000000	97.015217 
3135.000000	97.012069 
3134.000000	97.010317 
3133.000000	97.012270 
3132.000000	97.017963 
3131.000000	97.024955 
3130.000000	97.030518 
3129.000000	97.034102 
3128.000000	97.037277 
3127.000000	97.041602 
3126.000000	97.047011 
3125.000000	97.052165 
3124.000000	97.055719 
3123.000000	97.056962 
3122.000000	97.055808 
3121.000000	97.052926 
3120.000000	97.049731 
3119.000000	97.047756 
3118.000000	97.047942 
3117.000000	97.050479 
3116.000000	97.054959 
3115.000000	97.060387 
3114.000000	97.065387 
3113.000000	97.069020 
3112.000000	97.071567 
3111.000000	97.074231 
3110.000000	97.077885 
3109.000000	97.082210 
3108.000000	97.086189 
3107.000000	97.089257 
3106.000000	97.091576 
3105.000000	97.093214 
3104.000000	97.093631 
3103.000000	97.092359 
3102.000000	97.090001 
3101.000000	97.088089 
3100.000000	97.087702 
3099.000000	97.088612 
3098.000000	97.090023 
3097.000000	97.091744 
3096.000000	97.094148 
3095.000000	97.097326 
3094.000000	97.101086 
3093.000000	97.105642 
3092.000000	97.111401 
3091.000000	97.117779 
3090.000000	97.122862 
3089.000000	97.124966 
3088.000000	97.124229 
3087.000000	97.122589 
3086.000000	97.122361 
3085.000000	97.124450 
3084.000000	97.127603 
3083.000000	97.129311 
3082.000000	97.128034 
3081.000000	97.124771 
3080.000000	97.122184 
3079.000000	97.121933 
3078.000000	97.123563 
3077.000000	97.125951 
3076.000000	97.128832 
3075.000000	97.132356 
3074.000000	97.136041 
3073.000000	97.139177 
3072.000000	97.141855 
3071.000000	97.144651 
3070.000000	97.147502 
3069.000000	97.149748 
3068.000000	97.151142 
3067.000000	97.151949 
3066.000000	97.152002 
3065.000000	97.150585 
3064.000000	97.147479 
3063.000000	97.143518 
3062.000000	97.139918 
3061.000000	97.137415 
3060.000000	97.136213 
3059.000000	97.136445 
3058.000000	97.138460 
3057.000000	97.142600 
3056.000000	97.148444 
3055.000000	97.154299 
3054.000000	97.158129 
3053.000000	97.159384 
3052.000000	97.159558 
3051.000000	97.160513 
3050.000000	97.162353 
3049.000000	97.163532 
3048.000000	97.162879 
3047.000000	97.160746 
3046.000000	97.158289 
3045.000000	97.156407 
3044.000000	97.155668 
3043.000000	97.156666 
3042.000000	97.159698 
3041.000000	97.163992 
3040.000000	97.167660 
3039.000000	97.169016 
3038.000000	97.168079 
3037.000000	97.166569 
3036.000000	97.166213 
3035.000000	97.166987 
3034.000000	97.167407 
3033.000000	97.166360 
3032.000000	97.164114 
3031.000000	97.161660 
3030.000000	97.159727 
3029.000000	97.158546 
3028.000000	97.157867 
3027.000000	97.156819 
3026.000000	97.154398 
3025.000000	97.150664 
3024.000000	97.147179 
3023.000000	97.145644 
3022.000000	97.146324 
3021.000000	97.148242 
3020.000000	97.150490 
3019.000000	97.152671 
3018.000000	97.154166 
3017.000000	97.153984 
3016.000000	97.151775 
3015.000000	97.148481 
3014.000000	97.145718 
3013.000000	97.144603 
3012.000000	97.145128 
3011.000000	97.146131 
3010.000000	97.145832 
3009.000000	97.143010 
3008.000000	97.137951 
3007.000000	97.132266 
3006.000000	97.127625 
3005.000000	97.124823 
3004.000000	97.123907 
3003.000000	97.124573 
3002.000000	97.126269 
3001.000000	97.128357 
3000.000000	97.130343 
2999.000000	97.131640 
2998.000000	97.131303 
2997.000000	97.128716 
2996.000000	97.124707 
2995.000000	97.121325 
2994.000000	97.119994 
2993.000000	97.120279 
2992.000000	97.120492 
2991.000000	97.119031 
2990.000000	97.115118 
2989.000000	97.109221 
2988.000000	97.103407 
2987.000000	97.100446 
2986.000000	97.101733 
2985.000000	97.106199 
2984.000000	97.111483 
2983.000000	97.116099 
2982.000000	97.120137 
2981.000000	97.124244 
2980.000000	97.128400 
2979.000000	97.131554 
2978.000000	97.132290 
2977.000000	97.130166 
2976.000000	97.126635 
2975.000000	97.124146 
2974.000000	97.123898 
2973.000000	97.125010 
2972.000000	97.126132 
2971.000000	97.127193 
2970.000000	97.128912 
2969.000000	97.131336 
2968.000000	97.133853 
2967.000000	97.136322 
2966.000000	97.139192 
2965.000000	97.142577 
2964.000000	97.146093 
2963.000000	97.149661 
2962.000000	97.153699 
2961.000000	97.158329 
2960.000000	97.162915 
2959.000000	97.166621 
2958.000000	97.169154 
2957.000000	97.170817 
2956.000000	97.172031 
2955.000000	97.172892 
2954.000000	97.173190 
2953.000000	97.173024 
2952.000000	97.173422 
2951.000000	97.175874 
2950.000000	97.180847 
2949.000000	97.187029 
2948.000000	97.192459 
2947.000000	97.196366 
2946.000000	97.199454 
2945.000000	97.202614 
2944.000000	97.205908 
2943.000000	97.208727 
2942.000000	97.210291 
2941.000000	97.209851 
2940.000000	97.207135 
2939.000000	97.203101 
2938.000000	97.199909 
2937.000000	97.199445 
2936.000000	97.201846 
2935.000000	97.205637 
2934.000000	97.209148 
2933.000000	97.211767 
2932.000000	97.214020 
2931.000000	97.216913 
2930.000000	97.221240 
2929.000000	97.226946 
2928.000000	97.232695 
2927.000000	97.236366 
2926.000000	97.236474 
2925.000000	97.233345 
2924.000000	97.229091 
2923.000000	97.226120 
2922.000000	97.225373 
2921.000000	97.226029 
2920.000000	97.226716 
2919.000000	97.226967 
2918.000000	97.227399 
2917.000000	97.228529 
2916.000000	97.229888 
2915.000000	97.230700 
2914.000000	97.231217 
2913.000000	97.232732 
2912.000000	97.235946 
2911.000000	97.239694 
2910.000000	97.241797 
2909.000000	97.241259 
2908.000000	97.239296 
2907.000000	97.238189 
2906.000000	97.239145 
2905.000000	97.241406 
2904.000000	97.243020 
2903.000000	97.242530 
2902.000000	97.239999 
2901.000000	97.236805 
2900.000000	97.234836 
2899.000000	97.235380 
2898.000000	97.238656 
2897.000000	97.243751 
2896.000000	97.248967 
2895.000000	97.252766 
2894.000000	97.255033 
2893.000000	97.257407 
2892.000000	97.261796 
2891.000000	97.268303 
2890.000000	97.274939 
2889.000000	97.279697 
2888.000000	97.282319 
2887.000000	97.283551 
2886.000000	97.283358 
2885.000000	97.281064 
2884.000000	97.277386 
2883.000000	97.274968 
2882.000000	97.275886 
2881.000000	97.279429 
2880.000000	97.283217 
2879.000000	97.286261 
2878.000000	97.289767 
2877.000000	97.294821 
2876.000000	97.300617 
2875.000000	97.305688 
2874.000000	97.309986 
2873.000000	97.314692 
2872.000000	97.320333 
2871.000000	97.326049 
2870.000000	97.330638 
2869.000000	97.333457 
2868.000000	97.334238 
2867.000000	97.333006 
2866.000000	97.330646 
2865.000000	97.328737 
2864.000000	97.328206 
2863.000000	97.328643 
2862.000000	97.329438 
2861.000000	97.331124 
2860.000000	97.334829 
2859.000000	97.340767 
2858.000000	97.348061 
2857.000000	97.355870 
2856.000000	97.363839 
2855.000000	97.371355 
2854.000000	97.377137 
2853.000000	97.380044 
2852.000000	97.380013 
2851.000000	97.378076 
2850.000000	97.375714 
2849.000000	97.374240 
2848.000000	97.374300 
2847.000000	97.375456 
2846.000000	97.376458 
2845.000000	97.376453 
2844.000000	97.376077 
2843.000000	97.377098 
2842.000000	97.380829 
2841.000000	97.386936 
2840.000000	97.393598 
2839.000000	97.398773 
2838.000000	97.401509 
2837.000000	97.402170 
2836.000000	97.401874 
2835.000000	97.401858 
2834.000000	97.403053 
2833.000000	97.405717 
2832.000000	97.409055 
2831.000000	97.411440 
2830.000000	97.411560 
2829.000000	97.409481 
2828.000000	97.406574 
2827.000000	97.404476 
2826.000000	97.404319 
2825.000000	97.406631 
2824.000000	97.411203 
2823.000000	97.416811 
2822.000000	97.421689 
2821.000000	97.424824 
2820.000000	97.426607 
2819.000000	97.428051 
2818.000000	97.429621 
2817.000000	97.431080 
2816.000000	97.432019 
2815.000000	97.431986 
2814.000000	97.430317 
2813.000000	97.426508 
2812.000000	97.420978 
2811.000000	97.415213 
2810.000000	97.410980 
2809.000000	97.409430 
2808.000000	97.410814 
2807.000000	97.414613 
2806.000000	97.419748 
2805.000000	97.424937 
2804.000000	97.429244 
2803.000000	97.432527 
2802.000000	97.435479 
2801.000000	97.439125 
2800.000000	97.443820 
2799.000000	97.448410 
2798.000000	97.450682 
2797.000000	97.449148 
2796.000000	97.444413 
2795.000000	97.438966 
2794.000000	97.435396 
2793.000000	97.434631 
2792.000000	97.435840 
2791.000000	97.437410 
2790.000000	97.438051 
2789.000000	97.437474 
2788.000000	97.436449 
2787.000000	97.436249 
2786.000000	97.437723 
2785.000000	97.440627 
2784.000000	97.443749 
2783.000000	97.445773 
2782.000000	97.446190 
2781.000000	97.445483 
2780.000000	97.444598 
2779.000000	97.444266 
2778.000000	97.444674 
2777.000000	97.445541 
2776.000000	97.446396 
2775.000000	97.446896 
2774.000000	97.447054 
2773.000000	97.447155 
2772.000000	97.447426 
2771.000000	97.447855 
2770.000000	97.448380 
2769.000000	97.449091 
2768.000000	97.450082 
2767.000000	97.451202 
2766.000000	97.452132 
2765.000000	97.452718 
2764.000000	97.453032 
2763.000000	97.453128 
2762.000000	97.452913 
2761.000000	97.452393 
2760.000000	97.451893 
2759.000000	97.451805 
2758.000000	97.452123 
2757.000000	97.452384 
2756.000000	97.452150 
2755.000000	97.451412 
2754.000000	97.450566 
2753.000000	97.450096 
2752.000000	97.450165 
2751.000000	97.450608 
2750.000000	97.451147 
2749.000000	97.451667 
2748.000000	97.452116 
2747.000000	97.452302 
2746.000000	97.452055 
2745.000000	97.451507 
2744.000000	97.451016 
2743.000000	97.450759 
2742.000000	97.450576 
2741.000000	97.450256 
2740.000000	97.449803 
2739.000000	97.449344 
2738.000000	97.448922 
2737.000000	97.448529 
2736.000000	97.448235 
2735.000000	97.448112 
2734.000000	97.448093 
2733.000000	97.448030 
2732.000000	97.447886 
2731.000000	97.447763 
2730.000000	97.447757 
2729.000000	97.447861 
2728.000000	97.447968 
2727.000000	97.447912 
2726.000000	97.447574 
2725.000000	97.446999 
2724.000000	97.446398 
2723.000000	97.445960 
2722.000000	97.445662 
2721.000000	97.445372 
2720.000000	97.445054 
2719.000000	97.444808 
2718.000000	97.444693 
2717.000000	97.444602 
2716.000000	97.444359 
2715.000000	97.443943 
2714.000000	97.443536 
2713.000000	97.443341 
2712.000000	97.443371 
2711.000000	97.443442 
2710.000000	97.443352 
2709.000000	97.443039 
2708.000000	97.442571 
2707.000000	97.442053 
2706.000000	97.441580 
2705.000000	97.441194 
2704.000000	97.440842 
2703.000000	97.440396 
2702.000000	97.439818 
2701.000000	97.439315 
2700.000000	97.439232 
2699.000000	97.439741 
2698.000000	97.440648 
2697.000000	97.441471 
2696.000000	97.441787 
2695.000000	97.441450 
2694.000000	97.440594 
2693.000000	97.439554 
2692.000000	97.438648 
2691.000000	97.437914 
2690.000000	97.437121 
2689.000000	97.436121 
2688.000000	97.435091 
2687.000000	97.434303 
2686.000000	97.433810 
2685.000000	97.433588 
2684.000000	97.433785 
2683.000000	97.434453 
2682.000000	97.435104 
2681.000000	97.434990 
2680.000000	97.433942 
2679.000000	97.432692 
2678.000000	97.432192 
2677.000000	97.432768 
2676.000000	97.433974 
2675.000000	97.434973 
2674.000000	97.435010 
2673.000000	97.433788 
2672.000000	97.431661 
2671.000000	97.429320 
2670.000000	97.427174 
2669.000000	97.425281 
2668.000000	97.423848 
2667.000000	97.423325 
2666.000000	97.423755 
2665.000000	97.424500 
2664.000000	97.424969 
2663.000000	97.425280 
2662.000000	97.425784 
2661.000000	97.426269 
2660.000000	97.426199 
2659.000000	97.425474 
2658.000000	97.424383 
2657.000000	97.422946 
2656.000000	97.420855 
2655.000000	97.418066 
2654.000000	97.414936 
2653.000000	97.411828 
2652.000000	97.409075 
2651.000000	97.407260 
2650.000000	97.406902 
2649.000000	97.407739 
2648.000000	97.408732 
2647.000000	97.408973 
2646.000000	97.408208 
2645.000000	97.406473 
2644.000000	97.403927 
2643.000000	97.401240 
2642.000000	97.399380 
2641.000000	97.398542 
2640.000000	97.397832 
2639.000000	97.396558 
2638.000000	97.395328 
2637.000000	97.395125 
2636.000000	97.395785 
2635.000000	97.396244 
2634.000000	97.395998 
2633.000000	97.395467 
2632.000000	97.394955 
2631.000000	97.394202 
2630.000000	97.393142 
2629.000000	97.392251 
2628.000000	97.391833 
2627.000000	97.391642 
2626.000000	97.391518 
2625.000000	97.391795 
2624.000000	97.392641 
2623.000000	97.393476 
2622.000000	97.393493 
2621.000000	97.392378 
2620.000000	97.390143 
2619.000000	97.386751 
2618.000000	97.382537 
2617.000000	97.378752 
2616.000000	97.376881 
2615.000000	97.377335 
2614.000000	97.379170 
2613.000000	97.380955 
2612.000000	97.381890 
2611.000000	97.382096 
2610.000000	97.382295 
2609.000000	97.383190 
2608.000000	97.384736 
2607.000000	97.385990 
2606.000000	97.386066 
2605.000000	97.385119 
2604.000000	97.383967 
2603.000000	97.382952 
2602.000000	97.381810 
2601.000000	97.380588 
2600.000000	97.379844 
2599.000000	97.379762 
2598.000000	97.379793 
2597.000000	97.379497 
2596.000000	97.379132 
2595.000000	97.379082 
2594.000000	97.379314 
2593.000000	97.379767 
2592.000000	97.380647 
2591.000000	97.381725 
2590.000000	97.381899 
2589.000000	97.380249 
2588.000000	97.377291 
2587.000000	97.374657 
2586.000000	97.373458 
2585.000000	97.373526 
2584.000000	97.374149 
2583.000000	97.374896 
2582.000000	97.375608 
2581.000000	97.376124 
2580.000000	97.376377 
2579.000000	97.376551 
2578.000000	97.376957 
2577.000000	97.377850 
2576.000000	97.379297 
2575.000000	97.380931 
2574.000000	97.381871 
2573.000000	97.381257 
2572.000000	97.378963 
2571.000000	97.375661 
2570.000000	97.372277 
2569.000000	97.369673 
2568.000000	97.368693 
2567.000000	97.369861 
2566.000000	97.372722 
2565.000000	97.375860 
2564.000000	97.377998 
2563.000000	97.378929 
2562.000000	97.379265 
2561.000000	97.379777 
2560.000000	97.381196 
2559.000000	97.384063 
2558.000000	97.388067 
2557.000000	97.391649 
2556.000000	97.393089 
2555.000000	97.392132 
2554.000000	97.390227 
2553.000000	97.389052 
2552.000000	97.389097 
2551.000000	97.389989 
2550.000000	97.391521 
2549.000000	97.393622 
2548.000000	97.395603 
2547.000000	97.396400 
2546.000000	97.395875 
2545.000000	97.395144 
2544.000000	97.395061 
2543.000000	97.395035 
2542.000000	97.394081 
2541.000000	97.392645 
2540.000000	97.392434 
2539.000000	97.394422 
2538.000000	97.397907 
2537.000000	97.401767 
2536.000000	97.405897 
2535.000000	97.410702 
2534.000000	97.415628 
2533.000000	97.419126 
2532.000000	97.420179 
2531.000000	97.419254 
2530.000000	97.417569 
2529.000000	97.415767 
2528.000000	97.413690 
2527.000000	97.411399 
2526.000000	97.409899 
2525.000000	97.410442 
2524.000000	97.413192 
2523.000000	97.416887 
2522.000000	97.419998 
2521.000000	97.422092 
2520.000000	97.423865 
2519.000000	97.426173 
2518.000000	97.429258 
2517.000000	97.432644 
2516.000000	97.435426 
2515.000000	97.436942 
2514.000000	97.437521 
2513.000000	97.438400 
2512.000000	97.440455 
2511.000000	97.443248 
2510.000000	97.445726 
2509.000000	97.447534 
2508.000000	97.448932 
2507.000000	97.449752 
2506.000000	97.449568 
2505.000000	97.449030 
2504.000000	97.449879 
2503.000000	97.453015 
2502.000000	97.457223 
2501.000000	97.460360 
2500.000000	97.461570 
2499.000000	97.461548 
2498.000000	97.461156 
2497.000000	97.460611 
2496.000000	97.460067 
2495.000000	97.459962 
2494.000000	97.460412 
2493.000000	97.460878 
2492.000000	97.460903 
2491.000000	97.460881 
2490.000000	97.461638 
2489.000000	97.463366 
2488.000000	97.465353 
2487.000000	97.466756 
2486.000000	97.467367 
2485.000000	97.467497 
2484.000000	97.467449 
2483.000000	97.467408 
2482.000000	97.467696 
2481.000000	97.468678 
2480.000000	97.470243 
2479.000000	97.471674 
2478.000000	97.472394 
2477.000000	97.472571 
2476.000000	97.472657 
2475.000000	97.472619 
2474.000000	97.472219 
2473.000000	97.471810 
2472.000000	97.471982 
2471.000000	97.472445 
2470.000000	97.472160 
2469.000000	97.470862 
2468.000000	97.469714 
2467.000000	97.469963 
2466.000000	97.471594 
2465.000000	97.473647 
2464.000000	97.475358 
2463.000000	97.476534 
2462.000000	97.477273 
2461.000000	97.477942 
2460.000000	97.479007 
2459.000000	97.480286 
2458.000000	97.480770 
2457.000000	97.479776 
2456.000000	97.477984 
2455.000000	97.476786 
2454.000000	97.476771 
2453.000000	97.477409 
2452.000000	97.477994 
2451.000000	97.478382 
2450.000000	97.478844 
2449.000000	97.479653 
2448.000000	97.480791 
2447.000000	97.481789 
2446.000000	97.482052 
2445.000000	97.481676 
2444.000000	97.481602 
2443.000000	97.482558 
2442.000000	97.484244 
2441.000000	97.485983 
2440.000000	97.487787 
2439.000000	97.490275 
2438.000000	97.493838 
2437.000000	97.498208 
2436.000000	97.502474 
2435.000000	97.505406 
2434.000000	97.506257 
2433.000000	97.505528 
2432.000000	97.504703 
2431.000000	97.504851 
2430.000000	97.505878 
2429.000000	97.507306 
2428.000000	97.509101 
2427.000000	97.511379 
2426.000000	97.513767 
2425.000000	97.515506 
2424.000000	97.516055 
2423.000000	97.515507 
2422.000000	97.514536 
2421.000000	97.514029 
2420.000000	97.514600 
2419.000000	97.516231 
2418.000000	97.518367 
2417.000000	97.520648 
2416.000000	97.523150 
2415.000000	97.525708 
2414.000000	97.527685 
2413.000000	97.528938 
2412.000000	97.530197 
2411.000000	97.531714 
2410.000000	97.532424 
2409.000000	97.531605 
2408.000000	97.530562 
2407.000000	97.531343 
2406.000000	97.534068 
2405.000000	97.536646 
2404.000000	97.537060 
2403.000000	97.535011 
2402.000000	97.531678 
2401.000000	97.528942 
2400.000000	97.528634 
2399.000000	97.531399 
2398.000000	97.536083 
2397.000000	97.540824 
2396.000000	97.544560 
2395.000000	97.546757 
2394.000000	97.546561 
2393.000000	97.543749 
2392.000000	97.540207 
2391.000000	97.538701 
2390.000000	97.539736 
2389.000000	97.540919 
2388.000000	97.539718 
2387.000000	97.535591 
2386.000000	97.529394 
2385.000000	97.522427 
2384.000000	97.516725 
2383.000000	97.514755 
2382.000000	97.517981 
2381.000000	97.526453 
2380.000000	97.539799 
2379.000000	97.557078 
2378.000000	97.574857 
2377.000000	97.587238 
2376.000000	97.589971 
2375.000000	97.583984 
2374.000000	97.573998 
2373.000000	97.563869 
2372.000000	97.554987 
2371.000000	97.548882 
2370.000000	97.547781 
2369.000000	97.551218 
2368.000000	97.554584 
2367.000000	97.553520 
2366.000000	97.548889 
2365.000000	97.545250 
2364.000000	97.544525 
2363.000000	97.543815 
2362.000000	97.540911 
2361.000000	97.538316 
2360.000000	97.538285 
2359.000000	97.538402 
2358.000000	97.535787 
2357.000000	97.532674 
2356.000000	97.534274 
2355.000000	97.541531 
2354.000000	97.551448 
2353.000000	97.557257 
2352.000000	97.553561 
2351.000000	97.540281 
2350.000000	97.521330 
2349.000000	97.502870 
2348.000000	97.490836 
2347.000000	97.488470 
2346.000000	97.490148 
2345.000000	97.485639 
2344.000000	97.472715 
2343.000000	97.456777 
2342.000000	97.447613 
2341.000000	97.450625 
2340.000000	97.463917 
2339.000000	97.479433 
2338.000000	97.490271 
2337.000000	97.495141 
2336.000000	97.494356 
2335.000000	97.488523 
2334.000000	97.478383 
2333.000000	97.466183 
2332.000000	97.451633 
2331.000000	97.434557 
2330.000000	97.411777 
2329.000000	97.382785 
2328.000000	97.346449 
2327.000000	97.308875 
2326.000000	97.277123 
2325.000000	97.257072 
2324.000000	97.250167 
2323.000000	97.254694 
2322.000000	97.266223 
2321.000000	97.277620 
2320.000000	97.284018 
2319.000000	97.288012 
2318.000000	97.294407 
2317.000000	97.305261 
2316.000000	97.315518 
2315.000000	97.320959 
2314.000000	97.318896 
2313.000000	97.312113 
2312.000000	97.302937 
2311.000000	97.295181 
2310.000000	97.289775 
2309.000000	97.287630 
2308.000000	97.287751 
2307.000000	97.290046 
2306.000000	97.292175 
2305.000000	97.291697 
2304.000000	97.287636 
2303.000000	97.283560 
2302.000000	97.282777 
2301.000000	97.285772 
2300.000000	97.289277 
2299.000000	97.291351 
2298.000000	97.290774 
2297.000000	97.287580 
2296.000000	97.281404 
2295.000000	97.274279 
2294.000000	97.268937 
2293.000000	97.267703 
2292.000000	97.270596 
2291.000000	97.276782 
2290.000000	97.284797 
2289.000000	97.292566 
2288.000000	97.298073 
2287.000000	97.300764 
2286.000000	97.301969 
2285.000000	97.303475 
2284.000000	97.306463 
2283.000000	97.310886 
2282.000000	97.315876 
2281.000000	97.320156 
2280.000000	97.322854 
2279.000000	97.323772 
2278.000000	97.323538 
2277.000000	97.323425 
2276.000000	97.324637 
2275.000000	97.327397 
2274.000000	97.330823 
2273.000000	97.334042 
2272.000000	97.337018 
2271.000000	97.340164 
2270.000000	97.343562 
2269.000000	97.347349 
2268.000000	97.352197 
2267.000000	97.358323 
2266.000000	97.364008 
2265.000000	97.366527 
2264.000000	97.364793 
2263.000000	97.360278 
2262.000000	97.355467 
2261.000000	97.352071 
2260.000000	97.350715 
2259.000000	97.351075 
2258.000000	97.352063 
2257.000000	97.352952 
2256.000000	97.354858 
2255.000000	97.359750 
2254.000000	97.367658 
2253.000000	97.375635 
2252.000000	97.380231 
2251.000000	97.380385 
2250.000000	97.377155 
2249.000000	97.372356 
2248.000000	97.368005 
2247.000000	97.365847 
2246.000000	97.366353 
2245.000000	97.368274 
2244.000000	97.369769 
2243.000000	97.370007 
2242.000000	97.369197 
2241.000000	97.367706 
2240.000000	97.365880 
2239.000000	97.364210 
2238.000000	97.362923 
2237.000000	97.361704 
2236.000000	97.360397 
2235.000000	97.359581 
2234.000000	97.359810 
2233.000000	97.360724 
2232.000000	97.361506 
2231.000000	97.361829 
2230.000000	97.361628 
2229.000000	97.360421 
2228.000000	97.357812 
2227.000000	97.354384 
2226.000000	97.351356 
2225.000000	97.349231 
2224.000000	97.347438 
2223.000000	97.345382 
2222.000000	97.343339 
2221.000000	97.341837 
2220.000000	97.340572 
2219.000000	97.338702 
2218.000000	97.336090 
2217.000000	97.333656 
2216.000000	97.332273 
2215.000000	97.331720 
2214.000000	97.330860 
2213.000000	97.328824 
2212.000000	97.325782 
2211.000000	97.322713 
2210.000000	97.320449 
2209.000000	97.319030 
2208.000000	97.317832 
2207.000000	97.315998 
2206.000000	97.312792 
2205.000000	97.308108 
2204.000000	97.303231 
2203.000000	97.300441 
2202.000000	97.300857 
2201.000000	97.303122 
2200.000000	97.304749 
2199.000000	97.304516 
2198.000000	97.303015 
2197.000000	97.301448 
2196.000000	97.300554 
2195.000000	97.300027 
2194.000000	97.298452 
2193.000000	97.294622 
2192.000000	97.289322 
2191.000000	97.284545 
2190.000000	97.280514 
2189.000000	97.275368 
2188.000000	97.268686 
2187.000000	97.262848 
2186.000000	97.259164 
2185.000000	97.255547 
2184.000000	97.251285 
2183.000000	97.251615 
2182.000000	97.262486 
2181.000000	97.281464 
2180.000000	97.297882 
2179.000000	97.303509 
2178.000000	97.299647 
2177.000000	97.293732 
2176.000000	97.292036 
2175.000000	97.295712 
2174.000000	97.301049 
2173.000000	97.302484 
2172.000000	97.297899 
2171.000000	97.291504 
2170.000000	97.289010 
2169.000000	97.289614 
2168.000000	97.286284 
2167.000000	97.275326 
2166.000000	97.261775 
2165.000000	97.252520 
2164.000000	97.247912 
2163.000000	97.245163 
2162.000000	97.247776 
2161.000000	97.264943 
2160.000000	97.300318 
2159.000000	97.344983 
2158.000000	97.383674 
2157.000000	97.407453 
2156.000000	97.417236 
2155.000000	97.418173 
2154.000000	97.414873 
2153.000000	97.410443 
2152.000000	97.406058 
2151.000000	97.400455 
2150.000000	97.392161 
2149.000000	97.383265 
2148.000000	97.379031 
2147.000000	97.382360 
2146.000000	97.390660 
2145.000000	97.400319 
2144.000000	97.412530 
2143.000000	97.430781 
2142.000000	97.452850 
2141.000000	97.469888 
2140.000000	97.475695 
2139.000000	97.473805 
2138.000000	97.473114 
2137.000000	97.478241 
2136.000000	97.486425 
2135.000000	97.491924 
2134.000000	97.490736 
2133.000000	97.482831 
2132.000000	97.472880 
2131.000000	97.467657 
2130.000000	97.470243 
2129.000000	97.477221 
2128.000000	97.483141 
2127.000000	97.486958 
2126.000000	97.491810 
2125.000000	97.499027 
2124.000000	97.505288 
2123.000000	97.506418 
2122.000000	97.501673 
2121.000000	97.493366 
2120.000000	97.483827 
2119.000000	97.474106 
2118.000000	97.465107 
2117.000000	97.458373 
2116.000000	97.454822 
2115.000000	97.453203 
2114.000000	97.450685 
2113.000000	97.445849 
2112.000000	97.440876 
2111.000000	97.439458 
2110.000000	97.442675 
2109.000000	97.448212 
2108.000000	97.453642 
2107.000000	97.458499 
2106.000000	97.462470 
2105.000000	97.464126 
2104.000000	97.463124 
2103.000000	97.461525 
2102.000000	97.460632 
2101.000000	97.458199 
2100.000000	97.451639 
2099.000000	97.443313 
2098.000000	97.439720 
2097.000000	97.444942 
2096.000000	97.457029 
2095.000000	97.470403 
2094.000000	97.480168 
2093.000000	97.484351 
2092.000000	97.483784 
2091.000000	97.481273 
2090.000000	97.479753 
2089.000000	97.479760 
2088.000000	97.479098 
2087.000000	97.475474 
2086.000000	97.468913 
2085.000000	97.461627 
2084.000000	97.456334 
2083.000000	97.454637 
2082.000000	97.456144 
2081.000000	97.458570 
2080.000000	97.459463 
2079.000000	97.458344 
2078.000000	97.456694 
2077.000000	97.455928 
2076.000000	97.456322 
2075.000000	97.458001 
2074.000000	97.461313 
2073.000000	97.465220 
2072.000000	97.466613 
2071.000000	97.462911 
2070.000000	97.454862 
2069.000000	97.446256 
2068.000000	97.440795 
2067.000000	97.439728 
2066.000000	97.442249 
2065.000000	97.446544 
2064.000000	97.450381 
2063.000000	97.452181 
2062.000000	97.452281 
2061.000000	97.452680 
2060.000000	97.455001 
2059.000000	97.458946 
2058.000000	97.462948 
2057.000000	97.465767 
2056.000000	97.466855 
2055.000000	97.465520 
2054.000000	97.461042 
2053.000000	97.454296 
2052.000000	97.448289 
2051.000000	97.445647 
2050.000000	97.446068 
2049.000000	97.446987 
2048.000000	97.446966 
2047.000000	97.447304 
2046.000000	97.449567 
2045.000000	97.453085 
2044.000000	97.456080 
2043.000000	97.458306 
2042.000000	97.461154 
2041.000000	97.465541 
2040.000000	97.471088 
2039.000000	97.477201 
2038.000000	97.483186 
2037.000000	97.487458 
2036.000000	97.488773 
2035.000000	97.488721 
2034.000000	97.491369 
2033.000000	97.499202 
2032.000000	97.510119 
2031.000000	97.519020 
2030.000000	97.521807 
2029.000000	97.517512 
2028.000000	97.508234 
2027.000000	97.498023 
2026.000000	97.490836 
2025.000000	97.488833 
2024.000000	97.492089 
2023.000000	97.499367 
2022.000000	97.508760 
2021.000000	97.517724 
2020.000000	97.523637 
2019.000000	97.524976 
2018.000000	97.521903 
2017.000000	97.516136 
2016.000000	97.510428 
2015.000000	97.507110 
2014.000000	97.506089 
2013.000000	97.504987 
2012.000000	97.502966 
2011.000000	97.503816 
2010.000000	97.512443 
2009.000000	97.528157 
2008.000000	97.543546 
2007.000000	97.552094 
2006.000000	97.554238 
2005.000000	97.554055 
2004.000000	97.553194 
2003.000000	97.550994 
2002.000000	97.548507 
2001.000000	97.547818 
2000.000000	97.547646 
1999.000000	97.543314 
1998.000000	97.532319 
1997.000000	97.518375 
1996.000000	97.508705 
1995.000000	97.507608 
1994.000000	97.513722 
1993.000000	97.521683 
1992.000000	97.526182 
1991.000000	97.525861 
1990.000000	97.523615 
1989.000000	97.523126 
1988.000000	97.524980 
1987.000000	97.526243 
1986.000000	97.523727 
1985.000000	97.517236 
1984.000000	97.509323 
1983.000000	97.502611 
1982.000000	97.498391 
1981.000000	97.497500 
1980.000000	97.501170 
1979.000000	97.509654 
1978.000000	97.520118 
1977.000000	97.527680 
1976.000000	97.529768 
1975.000000	97.528472 
1974.000000	97.527965 
1973.000000	97.530408 
1972.000000	97.534783 
1971.000000	97.538793 
1970.000000	97.540714 
1969.000000	97.539614 
1968.000000	97.535427 
1967.000000	97.529971 
1966.000000	97.526808 
1965.000000	97.528524 
1964.000000	97.534778 
1963.000000	97.543670 
1962.000000	97.554233 
1961.000000	97.565809 
1960.000000	97.575437 
1959.000000	97.578830 
1958.000000	97.575153 
1957.000000	97.569301 
1956.000000	97.567359 
1955.000000	97.569893 
1954.000000	97.572515 
1953.000000	97.572116 
1952.000000	97.569832 
1951.000000	97.567951 
1950.000000	97.566892 
1949.000000	97.566392 
1948.000000	97.567334 
1947.000000	97.570508 
1946.000000	97.574652 
1945.000000	97.577341 
1944.000000	97.577410 
1943.000000	97.575566 
1942.000000	97.573232 
1941.000000	97.571507 
1940.000000	97.571035 
1939.000000	97.572006 
1938.000000	97.574120 
1937.000000	97.576914 
1936.000000	97.579918 
1935.000000	97.582267 
1934.000000	97.582966 
1933.000000	97.582342 
1932.000000	97.582400 
1931.000000	97.584732 
1930.000000	97.588564 
1929.000000	97.591291 
1928.000000	97.591450 
1927.000000	97.590051 
1926.000000	97.589162 
1925.000000	97.589758 
1924.000000	97.591095 
1923.000000	97.591759 
1922.000000	97.590790 
1921.000000	97.588248 
1920.000000	97.585200 
1919.000000	97.582850 
1918.000000	97.581468 
1917.000000	97.580370 
1916.000000	97.579254 
1915.000000	97.578937 
1914.000000	97.580135 
1913.000000	97.582223 
1912.000000	97.583568 
1911.000000	97.583303 
1910.000000	97.581897 
1909.000000	97.580327 
1908.000000	97.579296 
1907.000000	97.578951 
1906.000000	97.578784 
1905.000000	97.577683 
1904.000000	97.574861 
1903.000000	97.571263 
1902.000000	97.569005 
1901.000000	97.569018 
1900.000000	97.570187 
1899.000000	97.570780 
1898.000000	97.570187 
1897.000000	97.568831 
1896.000000	97.566897 
1895.000000	97.564050 
1894.000000	97.560092 
1893.000000	97.555389 
1892.000000	97.550875 
1891.000000	97.547786 
1890.000000	97.546983 
1889.000000	97.548257 
1888.000000	97.550516 
1887.000000	97.553037 
1886.000000	97.555585 
1885.000000	97.557216 
1884.000000	97.556517 
1883.000000	97.553464 
1882.000000	97.550170 
1881.000000	97.548896 
1880.000000	97.549806 
1879.000000	97.550945 
1878.000000	97.550484 
1877.000000	97.548979 
1876.000000	97.548512 
1875.000000	97.549919 
1874.000000	97.551976 
1873.000000	97.553174 
1872.000000	97.553521 
1871.000000	97.553856 
1870.000000	97.553961 
1869.000000	97.552891 
1868.000000	97.551210 
1867.000000	97.550946 
1866.000000	97.552450 
1865.000000	97.553493 
1864.000000	97.552583 
1863.000000	97.551513 
1862.000000	97.553146 
1861.000000	97.557702 
1860.000000	97.562865 
1859.000000	97.566914 
1858.000000	97.569755 
1857.000000	97.571275 
1856.000000	97.571231 
1855.000000	97.570403 
1854.000000	97.570111 
1853.000000	97.570813 
1852.000000	97.573113 
1851.000000	97.578180 
1850.000000	97.585458 
1849.000000	97.592076 
1848.000000	97.595786 
1847.000000	97.597787 
1846.000000	97.600832 
1845.000000	97.605244 
1844.000000	97.608527 
1843.000000	97.609124 
1842.000000	97.608161 
1841.000000	97.607257 
1840.000000	97.607672 
1839.000000	97.610140 
1838.000000	97.613891 
1837.000000	97.616283 
1836.000000	97.615506 
1835.000000	97.613334 
1834.000000	97.612962 
1833.000000	97.614971 
1832.000000	97.617372 
1831.000000	97.617909 
1830.000000	97.616180 
1829.000000	97.614051 
1828.000000	97.613305 
1827.000000	97.614144 
1826.000000	97.615724 
1825.000000	97.617293 
1824.000000	97.618537 
1823.000000	97.619444 
1822.000000	97.620159 
1821.000000	97.620439 
1820.000000	97.619770 
1819.000000	97.618301 
1818.000000	97.617434 
1817.000000	97.618168 
1816.000000	97.619541 
1815.000000	97.620548 
1814.000000	97.621659 
1813.000000	97.623560 
1812.000000	97.625124 
1811.000000	97.624271 
1810.000000	97.621478 
1809.000000	97.619358 
1808.000000	97.619012 
1807.000000	97.619420 
1806.000000	97.619475 
1805.000000	97.618675 
1804.000000	97.616440 
1803.000000	97.612789 
1802.000000	97.609212 
1801.000000	97.608014 
1800.000000	97.609303 
1799.000000	97.610498 
1798.000000	97.610239 
1797.000000	97.609507 
1796.000000	97.609790 
1795.000000	97.611893 
1794.000000	97.615317 
1793.000000	97.618256 
1792.000000	97.618678 
1791.000000	97.616606 
1790.000000	97.614450 
1789.000000	97.614013 
1788.000000	97.615162 
1787.000000	97.616833 
1786.000000	97.618362 
1785.000000	97.619718 
1784.000000	97.620849 
1783.000000	97.622142 
1782.000000	97.623766 
1781.000000	97.625823 
1780.000000	97.628692 
1779.000000	97.632313 
1778.000000	97.636444 
1777.000000	97.640181 
1776.000000	97.642565 
1775.000000	97.643235 
1774.000000	97.642291 
1773.000000	97.640944 
1772.000000	97.640967 
1771.000000	97.642093 
1770.000000	97.642892 
1769.000000	97.642868 
1768.000000	97.642662 
1767.000000	97.643305 
1766.000000	97.644984 
1765.000000	97.647347 
1764.000000	97.650164 
1763.000000	97.653251 
1762.000000	97.656347 
1761.000000	97.659509 
1760.000000	97.662475 
1759.000000	97.664371 
1758.000000	97.664403 
1757.000000	97.662769 
1756.000000	97.661572 
1755.000000	97.661903 
1754.000000	97.662219 
1753.000000	97.660605 
1752.000000	97.657445 
1751.000000	97.655686 
1750.000000	97.657431 
1749.000000	97.661546 
1748.000000	97.665743 
1747.000000	97.669231 
1746.000000	97.671776 
1745.000000	97.673355 
1744.000000	97.674211 
1743.000000	97.674261 
1742.000000	97.673488 
1741.000000	97.672765 
1740.000000	97.673254 
1739.000000	97.675030 
1738.000000	97.676751 
1737.000000	97.676881 
1736.000000	97.674249 
1735.000000	97.668401 
1734.000000	97.661911 
1733.000000	97.658492 
1732.000000	97.659462 
1731.000000	97.664226 
1730.000000	97.671144 
1729.000000	97.677438 
1728.000000	97.681319 
1727.000000	97.683083 
1726.000000	97.683395 
1725.000000	97.682581 
1724.000000	97.680722 
1723.000000	97.678605 
1722.000000	97.677773 
1721.000000	97.677989 
1720.000000	97.677079 
1719.000000	97.673059 
1718.000000	97.666960 
1717.000000	97.661563 
1716.000000	97.656310 
1715.000000	97.651110 
1714.000000	97.648864 
1713.000000	97.650004 
1712.000000	97.650914 
1711.000000	97.649569 
1710.000000	97.647744 
1709.000000	97.647503 
1708.000000	97.648360 
1707.000000	97.648274 
1706.000000	97.646136 
1705.000000	97.641787 
1704.000000	97.634366 
1703.000000	97.623718 
1702.000000	97.611188 
1701.000000	97.600734 
1700.000000	97.595948 
1699.000000	97.593673 
1698.000000	97.593027 
1697.000000	97.594538 
1696.000000	97.596254 
1695.000000	97.596178 
1694.000000	97.594292 
1693.000000	97.591451 
1692.000000	97.587653 
1691.000000	97.582898 
1690.000000	97.577671 
1689.000000	97.572188 
1688.000000	97.566610 
1687.000000	97.561040 
1686.000000	97.556164 
1685.000000	97.553306 
1684.000000	97.551218 
1683.000000	97.547445 
1682.000000	97.542664 
1681.000000	97.538026 
1680.000000	97.535054 
1679.000000	97.534280 
1678.000000	97.534071 
1677.000000	97.532374 
1676.000000	97.529040 
1675.000000	97.525454 
1674.000000	97.521185 
1673.000000	97.515688 
1672.000000	97.509828 
1671.000000	97.504687 
1670.000000	97.500271 
1669.000000	97.495353 
1668.000000	97.490609 
1667.000000	97.487293 
1666.000000	97.484316 
1665.000000	97.481115 
1664.000000	97.479480 
1663.000000	97.481213 
1662.000000	97.483304 
1661.000000	97.480932 
1660.000000	97.475604 
1659.000000	97.471850 
1658.000000	97.470190 
1657.000000	97.467234 
1656.000000	97.460011 
1655.000000	97.448513 
1654.000000	97.436413 
1653.000000	97.430262 
1652.000000	97.425456 
1651.000000	97.421650 
1650.000000	97.419226 
1649.000000	97.417682 
1648.000000	97.416847 
1647.000000	97.417109 
1646.000000	97.417259 
1645.000000	97.416248 
1644.000000	97.414855 
1643.000000	97.414265 
1642.000000	97.414907 
1641.000000	97.415391 
1640.000000	97.414484 
1639.000000	97.410987 
1638.000000	97.405219 
1637.000000	97.399707 
1636.000000	97.397881 
1635.000000	97.399540 
1634.000000	97.400787 
1633.000000	97.400347 
1632.000000	97.398619 
1631.000000	97.398008 
1630.000000	97.400623 
1629.000000	97.405764 
1628.000000	97.411011 
1627.000000	97.415576 
1626.000000	97.419629 
1625.000000	97.423500 
1624.000000	97.428401 
1623.000000	97.434617 
1622.000000	97.439337 
1621.000000	97.440066 
1620.000000	97.438623 
1619.000000	97.437988 
1618.000000	97.439319 
1617.000000	97.441349 
1616.000000	97.443680 
1615.000000	97.448417 
1614.000000	97.454628 
1613.000000	97.458028 
1612.000000	97.457356 
1611.000000	97.456125 
1610.000000	97.457484 
1609.000000	97.461631 
1608.000000	97.468872 
1607.000000	97.479383 
1606.000000	97.489622 
1605.000000	97.495691 
1604.000000	97.499070 
1603.000000	97.503151 
1602.000000	97.507997 
1601.000000	97.511775 
1600.000000	97.515324 
1599.000000	97.521281 
1598.000000	97.529742 
1597.000000	97.538588 
1596.000000	97.546697 
1595.000000	97.554506 
1594.000000	97.561682 
1593.000000	97.566778 
1592.000000	97.569793 
1591.000000	97.572566 
1590.000000	97.576044 
1589.000000	97.579371 
1588.000000	97.582506 
1587.000000	97.586842 
1586.000000	97.592531 
1585.000000	97.597338 
1584.000000	97.600740 
1583.000000	97.604353 
1582.000000	97.608052 
1581.000000	97.610590 
1580.000000	97.612664 
1579.000000	97.616224 
1578.000000	97.622412 
1577.000000	97.632128 
1576.000000	97.644005 
1575.000000	97.653167 
1574.000000	97.656738 
1573.000000	97.656315 
1572.000000	97.655459 
1571.000000	97.656973 
1570.000000	97.659529 
1569.000000	97.658637 
1568.000000	97.656205 
1567.000000	97.656668 
1566.000000	97.659000 
1565.000000	97.659949 
1564.000000	97.659536 
1563.000000	97.657368 
1562.000000	97.652936 
1561.000000	97.645227 
1560.000000	97.645129 
1559.000000	97.656999 
1558.000000	97.661749 
1557.000000	97.656169 
1556.000000	97.649832 
1555.000000	97.644393 
1554.000000	97.638581 
1553.000000	97.633136 
1552.000000	97.629190 
1551.000000	97.623777 
1550.000000	97.615360 
1549.000000	97.607233 
1548.000000	97.602918 
1547.000000	97.601075 
1546.000000	97.596649 
1545.000000	97.587940 
1544.000000	97.580299 
1543.000000	97.578784 
1542.000000	97.582350 
1541.000000	97.584597 
1540.000000	97.576023 
1539.000000	97.557640 
1538.000000	97.539793 
1537.000000	97.525953 
1536.000000	97.513855 
1535.000000	97.503195 
1534.000000	97.494339 
1533.000000	97.486188 
1532.000000	97.477284 
1531.000000	97.468017 
1530.000000	97.459852 
1529.000000	97.452382 
1528.000000	97.443006 
1527.000000	97.430819 
1526.000000	97.417985 
1525.000000	97.407334 
1524.000000	97.399631 
1523.000000	97.393214 
1522.000000	97.384516 
1521.000000	97.369908 
1520.000000	97.350567 
1519.000000	97.331038 
1518.000000	97.313152 
1517.000000	97.296703 
1516.000000	97.281982 
1515.000000	97.270099 
1514.000000	97.260990 
1513.000000	97.252978 
1512.000000	97.243582 
1511.000000	97.230723 
1510.000000	97.214937 
1509.000000	97.198043 
1508.000000	97.182935 
1507.000000	97.171794 
1506.000000	97.163874 
1505.000000	97.155011 
1504.000000	97.143816 
1503.000000	97.130891 
1502.000000	97.116989 
1501.000000	97.103211 
1500.000000	97.090674 
1499.000000	97.079057 
1498.000000	97.066697 
1497.000000	97.053220 
1496.000000	97.039605 
1495.000000	97.026929 
1494.000000	97.015731 
1493.000000	97.005945 
1492.000000	96.997330 
1491.000000	96.989534 
1490.000000	96.981535 
1489.000000	96.971794 
1488.000000	96.958530 
1487.000000	96.941979 
1486.000000	96.925209 
1485.000000	96.909500 
1484.000000	96.895126 
1483.000000	96.883353 
1482.000000	96.874709 
1481.000000	96.867972 
1480.000000	96.860603 
1479.000000	96.851480 
1478.000000	96.840868 
1477.000000	96.828765 
1476.000000	96.814207 
1475.000000	96.797732 
1474.000000	96.782600 
1473.000000	96.772266 
1472.000000	96.766216 
1471.000000	96.759756 
1470.000000	96.750798 
1469.000000	96.740254 
1468.000000	96.728388 
1467.000000	96.715228 
1466.000000	96.702581 
1465.000000	96.692738 
1464.000000	96.685605 
1463.000000	96.677165 
1462.000000	96.665032 
1461.000000	96.651101 
1460.000000	96.638567 
1459.000000	96.627706 
1458.000000	96.615063 
1457.000000	96.601234 
1456.000000	96.591686 
1455.000000	96.584468 
1454.000000	96.573497 
1453.000000	96.559951 
1452.000000	96.550197 
1451.000000	96.547771 
1450.000000	96.550946 
1449.000000	96.556802 
1448.000000	96.562163 
1447.000000	96.564260 
1446.000000	96.561779 
1445.000000	96.556978 
1444.000000	96.554004 
1443.000000	96.552625 
1442.000000	96.550247 
1441.000000	96.545969 
1440.000000	96.541073 
1439.000000	96.535305 
1438.000000	96.527496 
1437.000000	96.520124 
1436.000000	96.517644 
1435.000000	96.518051 
1434.000000	96.517406 
1433.000000	96.517057 
1432.000000	96.520518 
1431.000000	96.528618 
1430.000000	96.538187 
1429.000000	96.546526 
1428.000000	96.552788 
1427.000000	96.557971 
1426.000000	96.563289 
1425.000000	96.569623 
1424.000000	96.577877 
1423.000000	96.584795 
1422.000000	96.588181 
1421.000000	96.593226 
1420.000000	96.607211 
1419.000000	96.624932 
1418.000000	96.632869 
1417.000000	96.632670 
1416.000000	96.636929 
1415.000000	96.649884 
1414.000000	96.665362 
1413.000000	96.676886 
1412.000000	96.685357 
1411.000000	96.694465 
1410.000000	96.704924 
1409.000000	96.716728 
1408.000000	96.730073 
1407.000000	96.744622 
1406.000000	96.760052 
1405.000000	96.778143 
1404.000000	96.800909 
1403.000000	96.823455 
1402.000000	96.839349 
1401.000000	96.850504 
1400.000000	96.864578 
1399.000000	96.884118 
1398.000000	96.903121 
1397.000000	96.917692 
1396.000000	96.931913 
1395.000000	96.951250 
1394.000000	96.973979 
1393.000000	96.995465 
1392.000000	97.016286 
1391.000000	97.038027 
1390.000000	97.059183 
1389.000000	97.077310 
1388.000000	97.091992 
1387.000000	97.105008 
1386.000000	97.118065 
1385.000000	97.132192 
1384.000000	97.148378 
1383.000000	97.165790 
1382.000000	97.181995 
1381.000000	97.195870 
1380.000000	97.208666 
1379.000000	97.223126 
1378.000000	97.241150 
1377.000000	97.261799 
1376.000000	97.281320 
1375.000000	97.295774 
1374.000000	97.304720 
1373.000000	97.312931 
1372.000000	97.325488 
1371.000000	97.343243 
1370.000000	97.362746 
1369.000000	97.379016 
1368.000000	97.390570 
1367.000000	97.399730 
1366.000000	97.409781 
1365.000000	97.422389 
1364.000000	97.435506 
1363.000000	97.445007 
1362.000000	97.450395 
1361.000000	97.456343 
1360.000000	97.466949 
1359.000000	97.481861 
1358.000000	97.498170 
1357.000000	97.513767 
1356.000000	97.527920 
1355.000000	97.539557 
1354.000000	97.547606 
1353.000000	97.553816 
1352.000000	97.560958 
1351.000000	97.570591 
1350.000000	97.582014 
1349.000000	97.592657 
1348.000000	97.601214 
1347.000000	97.608208 
1346.000000	97.614796 
1345.000000	97.621666 
1344.000000	97.628889 
1343.000000	97.636217 
1342.000000	97.643062 
1341.000000	97.648173 
1340.000000	97.650170 
1339.000000	97.649220 
1338.000000	97.647513 
1337.000000	97.647951 
1336.000000	97.651952 
1335.000000	97.658191 
1334.000000	97.664019 
1333.000000	97.668040 
1332.000000	97.670597 
1331.000000	97.672766 
1330.000000	97.675231 
1329.000000	97.678031 
1328.000000	97.680540 
1327.000000	97.682100 
1326.000000	97.682461 
1325.000000	97.681830 
1324.000000	97.681028 
1323.000000	97.680197 
1322.000000	97.678620 
1321.000000	97.676553 
1320.000000	97.675931 
1319.000000	97.678049 
1318.000000	97.681717 
1317.000000	97.684821 
1316.000000	97.686025 
1315.000000	97.684035 
1314.000000	97.677552 
1313.000000	97.668229 
1312.000000	97.661532 
1311.000000	97.661947 
1310.000000	97.668139 
1309.000000	97.674973 
1308.000000	97.679141 
1307.000000	97.681406 
1306.000000	97.683725 
1305.000000	97.686441 
1304.000000	97.688880 
1303.000000	97.690013 
1302.000000	97.688593 
1301.000000	97.684330 
1300.000000	97.679371 
1299.000000	97.676838 
1298.000000	97.677460 
1297.000000	97.678984 
1296.000000	97.679193 
1295.000000	97.678312 
1294.000000	97.677830 
1293.000000	97.678428 
1292.000000	97.679806 
1291.000000	97.681463 
1290.000000	97.682953 
1289.000000	97.683906 
1288.000000	97.684218 
1287.000000	97.683872 
1286.000000	97.682554 
1285.000000	97.680226 
1284.000000	97.677948 
1283.000000	97.676775 
1282.000000	97.675896 
1281.000000	97.673340 
1280.000000	97.669365 
1279.000000	97.667607 
1278.000000	97.671396 
1277.000000	97.679573 
1276.000000	97.687161 
1275.000000	97.690047 
1274.000000	97.687912 
1273.000000	97.683219 
1272.000000	97.678907 
1271.000000	97.677035 
1270.000000	97.678072 
1269.000000	97.680519 
1268.000000	97.681908 
1267.000000	97.680681 
1266.000000	97.677249 
1265.000000	97.673755 
1264.000000	97.672661 
1263.000000	97.674659 
1262.000000	97.677607 
1261.000000	97.678232 
1260.000000	97.676168 
1259.000000	97.675565 
1258.000000	97.680658 
1257.000000	97.689677 
1256.000000	97.695103 
1255.000000	97.691589 
1254.000000	97.682680 
1253.000000	97.677270 
1252.000000	97.679199 
1251.000000	97.683239 
1250.000000	97.682602 
1249.000000	97.677677 
1248.000000	97.674693 
1247.000000	97.677146 
1246.000000	97.682067 
1245.000000	97.685013 
1244.000000	97.685092 
1243.000000	97.683699 
1242.000000	97.681306 
1241.000000	97.677710 
1240.000000	97.673446 
1239.000000	97.668650 
1238.000000	97.661835 
1237.000000	97.651991 
1236.000000	97.641018 
1235.000000	97.632011 
1234.000000	97.625536 
1233.000000	97.619416 
1232.000000	97.611712 
1231.000000	97.601946 
1230.000000	97.589730 
1229.000000	97.574145 
1228.000000	97.554519 
1227.000000	97.530527 
1226.000000	97.501768 
1225.000000	97.468448 
1224.000000	97.431983 
1223.000000	97.393222 
1222.000000	97.350293 
1221.000000	97.300327 
1220.000000	97.243887 
1219.000000	97.185924 
1218.000000	97.131148 
1217.000000	97.079342 
1216.000000	97.025979 
1215.000000	96.966687 
1214.000000	96.900990 
1213.000000	96.832827 
1212.000000	96.767262 
1211.000000	96.705103 
1210.000000	96.641085 
1209.000000	96.569304 
1208.000000	96.490369 
1207.000000	96.411276 
1206.000000	96.337939 
1205.000000	96.269603 
1204.000000	96.201045 
1203.000000	96.128119 
1202.000000	96.050526 
1201.000000	95.971190 
1200.000000	95.894034 
1199.000000	95.821174 
1198.000000	95.751390 
1197.000000	95.681983 
1196.000000	95.611688 
1195.000000	95.540739 
1194.000000	95.469010 
1193.000000	95.395713 
1192.000000	95.320341 
1191.000000	95.242341 
1190.000000	95.160684 
1189.000000	95.075337 
1188.000000	94.987974 
1187.000000	94.899630 
1186.000000	94.809469 
1185.000000	94.717870 
1184.000000	94.628168 
1183.000000	94.542196 
1182.000000	94.456649 
1181.000000	94.367671 
1180.000000	94.276437 
1179.000000	94.185377 
1178.000000	94.091244 
1177.000000	93.988173 
1176.000000	93.876441 
1175.000000	93.761907 
1174.000000	93.647156 
1173.000000	93.529599 
1172.000000	93.408673 
1171.000000	93.288001 
1170.000000	93.169182 
1169.000000	93.050042 
1168.000000	92.930872 
1167.000000	92.816595 
1166.000000	92.711671 
1165.000000	92.619705 
1164.000000	92.549655 
1163.000000	92.514492 
1162.000000	92.519369 
1161.000000	92.555136 
1160.000000	92.604784 
1159.000000	92.651434 
1158.000000	92.679975 
1157.000000	92.678980 
1156.000000	92.645576 
1155.000000	92.585428 
1154.000000	92.506494 
1153.000000	92.415664 
1152.000000	92.320578 
1151.000000	92.227898 
1150.000000	92.137699 
1149.000000	92.045324 
1148.000000	91.950514 
1147.000000	91.858665 
1146.000000	91.771361 
1145.000000	91.682507 
1144.000000	91.586869 
1143.000000	91.486346 
1142.000000	91.384762 
1141.000000	91.282280 
1140.000000	91.178283 
1139.000000	91.074570 
1138.000000	90.972592 
1137.000000	90.871997 
1136.000000	90.773664 
1135.000000	90.678859 
1134.000000	90.583957 
1133.000000	90.482215 
1132.000000	90.372631 
1131.000000	90.261051 
1130.000000	90.151017 
1129.000000	90.040024 
1128.000000	89.926469 
1127.000000	89.812826 
1126.000000	89.699472 
1125.000000	89.582629 
1124.000000	89.461365 
1123.000000	89.339911 
1122.000000	89.220299 
1121.000000	89.099418 
1120.000000	88.975946 
1119.000000	88.853303 
1118.000000	88.733441 
1117.000000	88.615174 
1116.000000	88.500500 
1115.000000	88.394352 
1114.000000	88.295919 
1113.000000	88.198405 
1112.000000	88.099286 
1111.000000	88.002103 
1110.000000	87.906761 
1109.000000	87.808186 
1108.000000	87.706055 
1107.000000	87.605267 
1106.000000	87.505180 
1105.000000	87.399288 
1104.000000	87.287912 
1103.000000	87.180383 
1102.000000	87.080976 
1101.000000	86.984005 
1100.000000	86.884753 
1099.000000	86.785335 
1098.000000	86.687382 
1097.000000	86.588541 
1096.000000	86.489742 
1095.000000	86.395471 
1094.000000	86.304950 
1093.000000	86.213293 
1092.000000	86.122855 
1091.000000	86.042138 
1090.000000	85.972003 
1089.000000	85.904536 
1088.000000	85.836488 
1087.000000	85.771455 
1086.000000	85.708347 
1085.000000	85.641758 
1084.000000	85.575097 
1083.000000	85.518540 
1082.000000	85.471302 
1081.000000	85.420562 
1080.000000	85.361052 
1079.000000	85.301228 
1078.000000	85.246673 
1077.000000	85.191575 
1076.000000	85.130225 
1075.000000	85.062422 
1074.000000	84.984008 
1073.000000	84.886944 
1072.000000	84.772796 
1071.000000	84.651723 
1070.000000	84.523817 
1069.000000	84.376072 
1068.000000	84.202654 
1067.000000	84.013856 
1066.000000	83.820415 
1065.000000	83.623371 
1064.000000	83.424711 
1063.000000	83.232072 
1062.000000	83.045214 
1061.000000	82.852499 
1060.000000	82.648742 
1059.000000	82.443448 
1058.000000	82.244483 
1057.000000	82.046589 
1056.000000	81.842961 
1055.000000	81.635235 
1054.000000	81.425355 
1053.000000	81.210285 
1052.000000	80.991926 
1051.000000	80.779468 
1050.000000	80.574059 
1049.000000	80.364021 
1048.000000	80.141561 
1047.000000	79.910626 
1046.000000	79.675008 
1045.000000	79.433692 
1044.000000	79.190155 
1043.000000	78.951348 
1042.000000	78.715673 
1041.000000	78.476905 
1040.000000	78.241033 
1039.000000	78.022400 
1038.000000	77.821632 
1037.000000	77.625657 
1036.000000	77.431868 
1035.000000	77.252925 
1034.000000	77.094204 
1033.000000	76.946628 
1032.000000	76.806313 
1031.000000	76.681576 
1030.000000	76.574872 
1029.000000	76.476912 
1028.000000	76.384599 
1027.000000	76.306743 
1026.000000	76.246301 
1025.000000	76.193905 
1024.000000	76.143063 
1023.000000	76.094892 
1022.000000	76.045145 
1021.000000	75.985148 
1020.000000	75.918546 
1019.000000	75.858539 
1018.000000	75.806065 
1017.000000	75.749466 
1016.000000	75.687359 
1015.000000	75.631480 
1014.000000	75.584551 
1013.000000	75.536415 
1012.000000	75.485066 
1011.000000	75.440232 
1010.000000	75.402650 
1009.000000	75.361603 
1008.000000	75.317652 
1007.000000	75.286701 
1006.000000	75.276604 
1005.000000	75.279665 
1004.000000	75.291558 
1003.000000	75.316441 
1002.000000	75.349582 
1001.000000	75.377432 
1000.000000	75.400604 
999.000000	 75.435380 
998.000000	 75.486729 
997.000000	 75.540744 
996.000000	 75.589456 
995.000000	 75.642498 
994.000000	 75.707702 
993.000000	 75.780059 
992.000000	 75.856173 
991.000000	 75.940339 
990.000000	 76.030320 
989.000000	 76.115933 
988.000000	 76.197454 
987.000000	 76.287503 
986.000000	 76.390393 
985.000000	 76.498355 
984.000000	 76.611616 
983.000000	 76.741566 
982.000000	 76.888827 
981.000000	 77.038651 
980.000000	 77.184513 
979.000000	 77.337164 
978.000000	 77.503806 
977.000000	 77.677303 
976.000000	 77.852598 
975.000000	 78.035706 
974.000000	 78.229569 
973.000000	 78.428100 
972.000000	 78.630530 
971.000000	 78.845075 
970.000000	 79.072045 
969.000000	 79.298973 
968.000000	 79.518257 
967.000000	 79.735083 
966.000000	 79.953561 
965.000000	 80.170280 
964.000000	 80.385772 
963.000000	 80.606679 
962.000000	 80.831543 
961.000000	 81.049164 
960.000000	 81.255807 
959.000000	 81.460131 
958.000000	 81.666895 
957.000000	 81.869392 
956.000000	 82.062301 
955.000000	 82.249483 
954.000000	 82.435763 
953.000000	 82.622514 
952.000000	 82.812288 
951.000000	 83.004542 
950.000000	 83.186374 
949.000000	 83.342326 
948.000000	 83.474742 
947.000000	 83.600874 
946.000000	 83.729064 
945.000000	 83.852441 
944.000000	 83.967084 
943.000000	 84.079364 
942.000000	 84.192172 
941.000000	 84.299847 
940.000000	 84.401275 
939.000000	 84.503653 
938.000000	 84.609744 
937.000000	 84.715539 
936.000000	 84.823442 
935.000000	 84.942521 
934.000000	 85.071713 
933.000000	 85.197513 
932.000000	 85.312637 
931.000000	 85.423315 
930.000000	 85.534688 
929.000000	 85.643153 
928.000000	 85.747490 
927.000000	 85.853591 
926.000000	 85.962891 
925.000000	 86.068324 
924.000000	 86.166050 
923.000000	 86.259639 
922.000000	 86.349606 
921.000000	 86.430937 
920.000000	 86.504049 
919.000000	 86.576244 
918.000000	 86.649375 
917.000000	 86.717785 
916.000000	 86.781080 
915.000000	 86.847611 
914.000000	 86.923541 
913.000000	 87.009914 
912.000000	 87.110932 
911.000000	 87.232117 
910.000000	 87.369587 
909.000000	 87.514757 
908.000000	 87.669965 
907.000000	 87.845111 
906.000000	 88.039472 
905.000000	 88.242722 
904.000000	 88.453570 
903.000000	 88.679369 
902.000000	 88.915893 
901.000000	 89.146288 
900.000000	 89.364383 
899.000000	 89.582443 
898.000000	 89.810764 
897.000000	 90.043771 
896.000000	 90.270230 
895.000000	 90.483718 
894.000000	 90.679730 
893.000000	 90.856184 
892.000000	 91.020831 
891.000000	 91.185933 
890.000000	 91.351609 
889.000000	 91.505097 
888.000000	 91.637873 
887.000000	 91.751894 
886.000000	 91.849371 
885.000000	 91.930789 
884.000000	 92.004401 
883.000000	 92.082029 
882.000000	 92.161911 
881.000000	 92.231430 
880.000000	 92.291174 
879.000000	 92.360104 
878.000000	 92.451004 
877.000000	 92.556964 
876.000000	 92.669131 
875.000000	 92.792032 
874.000000	 92.933341 
873.000000	 93.092973 
872.000000	 93.269781 
871.000000	 93.465436 
870.000000	 93.674536 
869.000000	 93.882692 
868.000000	 94.080297 
867.000000	 94.268322 
866.000000	 94.448210 
865.000000	 94.618103 
864.000000	 94.781863 
863.000000	 94.948748 
862.000000	 95.118946 
861.000000	 95.280655 
860.000000	 95.426587 
859.000000	 95.563221 
858.000000	 95.699693 
857.000000	 95.837346 
856.000000	 95.973643 
855.000000	 96.105505 
854.000000	 96.224709 
853.000000	 96.321187 
852.000000	 96.396500 
851.000000	 96.465321 
850.000000	 96.539485 
849.000000	 96.619081 
848.000000	 96.700944 
847.000000	 96.783989 
846.000000	 96.862694 
845.000000	 96.927519 
844.000000	 96.976827 
843.000000	 97.018286 
842.000000	 97.055006 
841.000000	 97.081332 
840.000000	 97.095558 
839.000000	 97.103796 
838.000000	 97.106483 
837.000000	 97.094607 
836.000000	 97.066585 
835.000000	 97.036624 
834.000000	 97.017606 
833.000000	 97.006312 
832.000000	 96.994741 
831.000000	 96.985698 
830.000000	 96.986776 
829.000000	 96.997794 
828.000000	 97.015653 
827.000000	 97.044409 
826.000000	 97.088665 
825.000000	 97.142502 
824.000000	 97.195704 
823.000000	 97.245611 
822.000000	 97.293709 
821.000000	 97.337091 
820.000000	 97.371407 
819.000000	 97.395243 
818.000000	 97.404601 
817.000000	 97.389428 
816.000000	 97.342626 
815.000000	 97.268760 
814.000000	 97.177970 
813.000000	 97.072323 
812.000000	 96.939999 
811.000000	 96.759427 
810.000000	 96.508910 
809.000000	 96.179631 
808.000000	 95.783360 
807.000000	 95.342983 
806.000000	 94.873415 
805.000000	 94.378253 
804.000000	 93.866461 
803.000000	 93.361565 
802.000000	 92.889960 
801.000000	 92.471191 
800.000000	 92.123821 
799.000000	 91.865686 
798.000000	 91.699405 
797.000000	 91.609342 
796.000000	 91.579075 
795.000000	 91.599707 
794.000000	 91.657730 
793.000000	 91.731444 
792.000000	 91.806236 
791.000000	 91.879294 
790.000000	 91.944120 
789.000000	 91.985589 
788.000000	 91.996005 
787.000000	 91.979896 
786.000000	 91.934580 
785.000000	 91.840935 
784.000000	 91.685426 
783.000000	 91.482145 
782.000000	 91.264220 
781.000000	 91.062027 
780.000000	 90.896614 
779.000000	 90.783050 
778.000000	 90.729304 
777.000000	 90.737217 
776.000000	 90.808299 
775.000000	 90.939801 
774.000000	 91.113938 
773.000000	 91.303844 
772.000000	 91.493296 
771.000000	 91.679505 
770.000000	 91.857188 
769.000000	 92.015461 
768.000000	 92.151902 
767.000000	 92.273354 
766.000000	 92.379709 
765.000000	 92.463084 
764.000000	 92.527088 
763.000000	 92.590147 
762.000000	 92.663413 
761.000000	 92.740656 
760.000000	 92.815952 
759.000000	 92.894886 
758.000000	 92.981023 
757.000000	 93.068591 
756.000000	 93.158120 
755.000000	 93.262716 
754.000000	 93.386129 
753.000000	 93.507716 
752.000000	 93.602617 
751.000000	 93.668499 
750.000000	 93.723090 
749.000000	 93.784131 
748.000000	 93.859949 
747.000000	 93.949905 
746.000000	 94.044325 
745.000000	 94.131507 
744.000000	 94.213435 
743.000000	 94.308322 
742.000000	 94.430478 
741.000000	 94.573412 
740.000000	 94.718140 
739.000000	 94.851456 
738.000000	 94.971419 
737.000000	 95.081983 
736.000000	 95.187207 
735.000000	 95.286208 
734.000000	 95.371890 
733.000000	 95.439702 
732.000000	 95.496498 
731.000000	 95.553260 
730.000000	 95.610407 
729.000000	 95.659225 
728.000000	 95.698254 
727.000000	 95.735644 
726.000000	 95.774256 
725.000000	 95.811077 
724.000000	 95.851944 
723.000000	 95.908874 
722.000000	 95.979899 
721.000000	 96.049050 
720.000000	 96.111481 
719.000000	 96.178997 
718.000000	 96.254231 
717.000000	 96.321846 
716.000000	 96.372603 
715.000000	 96.416580 
714.000000	 96.463685 
713.000000	 96.508163 
712.000000	 96.545669 
711.000000	 96.588496 
710.000000	 96.646715 
709.000000	 96.710337 
708.000000	 96.763106 
707.000000	 96.803026 
706.000000	 96.833192 
705.000000	 96.845077 
704.000000	 96.827321 
703.000000	 96.778552 
702.000000	 96.698909 
701.000000	 96.577550 
700.000000	 96.401541 
699.000000	 96.174919 
698.000000	 95.917844 
697.000000	 95.657380 
696.000000	 95.429815 
695.000000	 95.276574 
694.000000	 95.225261 
693.000000	 95.273796 
692.000000	 95.395814 
691.000000	 95.558827 
690.000000	 95.732840 
689.000000	 95.896131 
688.000000	 96.042668 
687.000000	 96.175514 
686.000000	 96.293248 
685.000000	 96.392249 
684.000000	 96.480341 
683.000000	 96.572102 
682.000000	 96.664562 
681.000000	 96.737153 
680.000000	 96.782260 
679.000000	 96.821374 
678.000000	 96.874308 
677.000000	 96.933159 
676.000000	 96.990363 
675.000000	 97.053480 
674.000000	 97.123043 
673.000000	 97.183053 
672.000000	 97.223050 
671.000000	 97.270936 
670.000000	 97.380649 
669.000000	 97.597959 
668.000000	 97.806191 
667.000000	 97.820030 
666.000000	 97.716093 
665.000000	 97.626849 
664.000000	 97.568972 
663.000000	 97.550910 
662.000000	 97.575028 
661.000000	 97.615685 
660.000000	 97.651379 
659.000000	 97.691930 
658.000000	 97.746361 
657.000000	 97.788328 
656.000000	 97.792879 
655.000000	 97.764582 
654.000000	 97.718200 
653.000000	 97.661094 
652.000000	 97.610147 
651.000000	 97.596029 
650.000000	 97.624332 

