4000.000000	98.021487 
3999.000000	98.020374 
3998.000000	98.016954 
3997.000000	98.012612 
3996.000000	98.009307 
3995.000000	98.008127 
3994.000000	98.009078 
3993.000000	98.011110 
3992.000000	98.012721 
3991.000000	98.013081 
3990.000000	98.012381 
3989.000000	98.011272 
3988.000000	98.010190 
3987.000000	98.009321 
3986.000000	98.008981 
3985.000000	98.009584 
3984.000000	98.011104 
3983.000000	98.012878 
3982.000000	98.014220 
3981.000000	98.014970 
3980.000000	98.015214 
3979.000000	98.014902 
3978.000000	98.014132 
3977.000000	98.013484 
3976.000000	98.013591 
3975.000000	98.014384 
3974.000000	98.015060 
3973.000000	98.014773 
3972.000000	98.013207 
3971.000000	98.010731 
3970.000000	98.008193 
3969.000000	98.006485 
3968.000000	98.006159 
3967.000000	98.007131 
3966.000000	98.008688 
3965.000000	98.009872 
3964.000000	98.009938 
3963.000000	98.008780 
3962.000000	98.007078 
3961.000000	98.005704 
3960.000000	98.004913 
3959.000000	98.004384 
3958.000000	98.003856 
3957.000000	98.003444 
3956.000000	98.003316 
3955.000000	98.003228 
3954.000000	98.002718 
3953.000000	98.001583 
3952.000000	98.000037 
3951.000000	97.998440 
3950.000000	97.996852 
3949.000000	97.995070 
3948.000000	97.992991 
3947.000000	97.990921 
3946.000000	97.989588 
3945.000000	97.989634 
3944.000000	97.991028 
3943.000000	97.992806 
3942.000000	97.993931 
3941.000000	97.994390 
3940.000000	97.994876 
3939.000000	97.995790 
3938.000000	97.996751 
3937.000000	97.997041 
3936.000000	97.996385 
3935.000000	97.995110 
3934.000000	97.993802 
3933.000000	97.992719 
3932.000000	97.991676 
3931.000000	97.990457 
3930.000000	97.989311 
3929.000000	97.988905 
3928.000000	97.989534 
3927.000000	97.990707 
3926.000000	97.991492 
3925.000000	97.991296 
3924.000000	97.990230 
3923.000000	97.988859 
3922.000000	97.987729 
3921.000000	97.987087 
3920.000000	97.986855 
3919.000000	97.986764 
3918.000000	97.986572 
3917.000000	97.986214 
3916.000000	97.985781 
3915.000000	97.985366 
3914.000000	97.985013 
3913.000000	97.984716 
3912.000000	97.984409 
3911.000000	97.984039 
3910.000000	97.983576 
3909.000000	97.983030 
3908.000000	97.982450 
3907.000000	97.981859 
3906.000000	97.981222 
3905.000000	97.980448 
3904.000000	97.979505 
3903.000000	97.978478 
3902.000000	97.977488 
3901.000000	97.976598 
3900.000000	97.975784 
3899.000000	97.974992 
3898.000000	97.974180 
3897.000000	97.973342 
3896.000000	97.972480 
3895.000000	97.971594 
3894.000000	97.970681 
3893.000000	97.969733 
3892.000000	97.968743 
3891.000000	97.967709 
3890.000000	97.966637 
3889.000000	97.965543 
3888.000000	97.964442 
3887.000000	97.963346 
3886.000000	97.962253 
3885.000000	97.961150 
3884.000000	97.960024 
3883.000000	97.958875 
3882.000000	97.957717 
3881.000000	97.956569 
3880.000000	97.955444 
3879.000000	97.954340 
3878.000000	97.953252 
3877.000000	97.952177 
3876.000000	97.951117 
3875.000000	97.950074 
3874.000000	97.949039 
3873.000000	97.947997 
3872.000000	97.946942 
3871.000000	97.945886 
3870.000000	97.944876 
3869.000000	97.943956 
3868.000000	97.943120 
3867.000000	97.942304 
3866.000000	97.941501 
3865.000000	97.940798 
3864.000000	97.940243 
3863.000000	97.939704 
3862.000000	97.938991 
3861.000000	97.938129 
3860.000000	97.937418 
3859.000000	97.937103 
3858.000000	97.937056 
3857.000000	97.936836 
3856.000000	97.936079 
3855.000000	97.934813 
3854.000000	97.933325 
3853.000000	97.931975 
3852.000000	97.931144 
3851.000000	97.930956 
3850.000000	97.931257 
3849.000000	97.932039 
3848.000000	97.933291 
3847.000000	97.934803 
3846.000000	97.936093 
3845.000000	97.936612 
3844.000000	97.936222 
3843.000000	97.935291 
3842.000000	97.934283 
3841.000000	97.933672 
3840.000000	97.933854 
3839.000000	97.934902 
3838.000000	97.936404 
3837.000000	97.937652 
3836.000000	97.938241 
3835.000000	97.938259 
3834.000000	97.938098 
3833.000000	97.938351 
3832.000000	97.939400 
3831.000000	97.940974 
3830.000000	97.942383 
3829.000000	97.943185 
3828.000000	97.943761 
3827.000000	97.944900 
3826.000000	97.946515 
3825.000000	97.947358 
3824.000000	97.946366 
3823.000000	97.944134 
3822.000000	97.942614 
3821.000000	97.942855 
3820.000000	97.943757 
3819.000000	97.943682 
3818.000000	97.942520 
3817.000000	97.941887 
3816.000000	97.943130 
3815.000000	97.945325 
3814.000000	97.946459 
3813.000000	97.946152 
3812.000000	97.945821 
3811.000000	97.946669 
3810.000000	97.948112 
3809.000000	97.948510 
3808.000000	97.947261 
3807.000000	97.945343 
3806.000000	97.943573 
3805.000000	97.941247 
3804.000000	97.937481 
3803.000000	97.933469 
3802.000000	97.931792 
3801.000000	97.933157 
3800.000000	97.935413 
3799.000000	97.936227 
3798.000000	97.935671 
3797.000000	97.935620 
3796.000000	97.937225 
3795.000000	97.939599 
3794.000000	97.941211 
3793.000000	97.941796 
3792.000000	97.942222 
3791.000000	97.943080 
3790.000000	97.943817 
3789.000000	97.943440 
3788.000000	97.941749 
3787.000000	97.939507 
3786.000000	97.937814 
3785.000000	97.937263 
3784.000000	97.937435 
3783.000000	97.937109 
3782.000000	97.935370 
3781.000000	97.932701 
3780.000000	97.930839 
3779.000000	97.931246 
3778.000000	97.933603 
3777.000000	97.936224 
3776.000000	97.937787 
3775.000000	97.938192 
3774.000000	97.937552 
3773.000000	97.935344 
3772.000000	97.931572 
3771.000000	97.927785 
3770.000000	97.925788 
3769.000000	97.925749 
3768.000000	97.926173 
3767.000000	97.925503 
3766.000000	97.923756 
3765.000000	97.922162 
3764.000000	97.921541 
3763.000000	97.921500 
3762.000000	97.921699 
3761.000000	97.922483 
3760.000000	97.923419 
3759.000000	97.923365 
3758.000000	97.921676 
3757.000000	97.918194 
3756.000000	97.912323 
3755.000000	97.903575 
3754.000000	97.893467 
3753.000000	97.885114 
3752.000000	97.879600 
3751.000000	97.874524 
3750.000000	97.869096 
3749.000000	97.866600 
3748.000000	97.868302 
3747.000000	97.871533 
3746.000000	97.874834 
3745.000000	97.879422 
3744.000000	97.885974 
3743.000000	97.890564 
3742.000000	97.888470 
3741.000000	97.880606 
3740.000000	97.872263 
3739.000000	97.867601 
3738.000000	97.866543 
3737.000000	97.867016 
3736.000000	97.869208 
3735.000000	97.874338 
3734.000000	97.880603 
3733.000000	97.884254 
3732.000000	97.884329 
3731.000000	97.882596 
3730.000000	97.879759 
3729.000000	97.875674 
3728.000000	97.872389 
3727.000000	97.872783 
3726.000000	97.876182 
3725.000000	97.878569 
3724.000000	97.878523 
3723.000000	97.878839 
3722.000000	97.881858 
3721.000000	97.886285 
3720.000000	97.888351 
3719.000000	97.886700 
3718.000000	97.883887 
3717.000000	97.882186 
3716.000000	97.880361 
3715.000000	97.874891 
3714.000000	97.864484 
3713.000000	97.852346 
3712.000000	97.843133 
3711.000000	97.838612 
3710.000000	97.836471 
3709.000000	97.833295 
3708.000000	97.827818 
3707.000000	97.820631 
3706.000000	97.813194 
3705.000000	97.807216 
3704.000000	97.803522 
3703.000000	97.800292 
3702.000000	97.792816 
3701.000000	97.777873 
3700.000000	97.757259 
3699.000000	97.736394 
3698.000000	97.720690 
3697.000000	97.712179 
3696.000000	97.708345 
3695.000000	97.704582 
3694.000000	97.698745 
3693.000000	97.692643 
3692.000000	97.688764 
3691.000000	97.686612 
3690.000000	97.682660 
3689.000000	97.675472 
3688.000000	97.668608 
3687.000000	97.664676 
3686.000000	97.661450 
3685.000000	97.656027 
3684.000000	97.648125 
3683.000000	97.639287 
3682.000000	97.630341 
3681.000000	97.620569 
3680.000000	97.608226 
3679.000000	97.590309 
3678.000000	97.565388 
3677.000000	97.538188 
3676.000000	97.517506 
3675.000000	97.506570 
3674.000000	97.498505 
3673.000000	97.484802 
3672.000000	97.464756 
3671.000000	97.446100 
3670.000000	97.434566 
3669.000000	97.426785 
3668.000000	97.416853 
3667.000000	97.403476 
3666.000000	97.389427 
3665.000000	97.377363 
3664.000000	97.366927 
3663.000000	97.356285 
3662.000000	97.344102 
3661.000000	97.329391 
3660.000000	97.311021 
3659.000000	97.288309 
3658.000000	97.263017 
3657.000000	97.238580 
3656.000000	97.216591 
3655.000000	97.195248 
3654.000000	97.171750 
3653.000000	97.146495 
3652.000000	97.123357 
3651.000000	97.104695 
3650.000000	97.086601 
3649.000000	97.064652 
3648.000000	97.043224 
3647.000000	97.029323 
3646.000000	97.023064 
3645.000000	97.019637 
3644.000000	97.015100 
3643.000000	97.008348 
3642.000000	96.999208 
3641.000000	96.986659 
3640.000000	96.970398 
3639.000000	96.952241 
3638.000000	96.934468 
3637.000000	96.916928 
3636.000000	96.897596 
3635.000000	96.875645 
3634.000000	96.851958 
3633.000000	96.826666 
3632.000000	96.798729 
3631.000000	96.769560 
3630.000000	96.745114 
3629.000000	96.729800 
3628.000000	96.720469 
3627.000000	96.711978 
3626.000000	96.703857 
3625.000000	96.699768 
3624.000000	96.702112 
3623.000000	96.708370 
3622.000000	96.713471 
3621.000000	96.714513 
3620.000000	96.710691 
3619.000000	96.701562 
3618.000000	96.688870 
3617.000000	96.677722 
3616.000000	96.674351 
3615.000000	96.682873 
3614.000000	96.701907 
3613.000000	96.724146 
3612.000000	96.741220 
3611.000000	96.749383 
3610.000000	96.751471 
3609.000000	96.753993 
3608.000000	96.760838 
3607.000000	96.770607 
3606.000000	96.779846 
3605.000000	96.787377 
3604.000000	96.794895 
3603.000000	96.804212 
3602.000000	96.815039 
3601.000000	96.825206 
3600.000000	96.831665 
3599.000000	96.833104 
3598.000000	96.832378 
3597.000000	96.834248 
3596.000000	96.841020 
3595.000000	96.850108 
3594.000000	96.856426 
3593.000000	96.857538 
3592.000000	96.854895 
3591.000000	96.850935 
3590.000000	96.847717 
3589.000000	96.846974 
3588.000000	96.849051 
3587.000000	96.852075 
3586.000000	96.854289 
3585.000000	96.856304 
3584.000000	96.860445 
3583.000000	96.867557 
3582.000000	96.875631 
3581.000000	96.880944 
3580.000000	96.880938 
3579.000000	96.876024 
3578.000000	96.869058 
3577.000000	96.863178 
3576.000000	96.859389 
3575.000000	96.856534 
3574.000000	96.852938 
3573.000000	96.848100 
3572.000000	96.842678 
3571.000000	96.837026 
3570.000000	96.830669 
3569.000000	96.823809 
3568.000000	96.818203 
3567.000000	96.815553 
3566.000000	96.815700 
3565.000000	96.816952 
3564.000000	96.817782 
3563.000000	96.817926 
3562.000000	96.817824 
3561.000000	96.817630 
3560.000000	96.816850 
3559.000000	96.814691 
3558.000000	96.811155 
3557.000000	96.807654 
3556.000000	96.805939 
3555.000000	96.806367 
3554.000000	96.807584 
3553.000000	96.807514 
3552.000000	96.804870 
3551.000000	96.800016 
3550.000000	96.794798 
3549.000000	96.791660 
3548.000000	96.792005 
3547.000000	96.794634 
3546.000000	96.796538 
3545.000000	96.795910 
3544.000000	96.793932 
3543.000000	96.793085 
3542.000000	96.794516 
3541.000000	96.797556 
3540.000000	96.800929 
3539.000000	96.803669 
3538.000000	96.805233 
3537.000000	96.805355 
3536.000000	96.804199 
3535.000000	96.802327 
3534.000000	96.800470 
3533.000000	96.799369 
3532.000000	96.799595 
3531.000000	96.801246 
3530.000000	96.803630 
3529.000000	96.805516 
3528.000000	96.806011 
3527.000000	96.805224 
3526.000000	96.804122 
3525.000000	96.803800 
3524.000000	96.804729 
3523.000000	96.806547 
3522.000000	96.808471 
3521.000000	96.809923 
3520.000000	96.810863 
3519.000000	96.811517 
3518.000000	96.812003 
3517.000000	96.812242 
3516.000000	96.812222 
3515.000000	96.812221 
3514.000000	96.812660 
3513.000000	96.813743 
3512.000000	96.815194 
3511.000000	96.816310 
3510.000000	96.816432 
3509.000000	96.815526 
3508.000000	96.814286 
3507.000000	96.813561 
3506.000000	96.813681 
3505.000000	96.814360 
3504.000000	96.815015 
3503.000000	96.815197 
3502.000000	96.814844 
3501.000000	96.814220 
3500.000000	96.813702 
3499.000000	96.813611 
3498.000000	96.814026 
3497.000000	96.814578 
3496.000000	96.814535 
3495.000000	96.813440 
3494.000000	96.811732 
3493.000000	96.810524 
3492.000000	96.810520 
3491.000000	96.811277 
3490.000000	96.811682 
3489.000000	96.811102 
3488.000000	96.809749 
3487.000000	96.808033 
3486.000000	96.806158 
3485.000000	96.804507 
3484.000000	96.803732 
3483.000000	96.804006 
3482.000000	96.804526 
3481.000000	96.804302 
3480.000000	96.803213 
3479.000000	96.801774 
3478.000000	96.800166 
3477.000000	96.798066 
3476.000000	96.795302 
3475.000000	96.792244 
3474.000000	96.789517 
3473.000000	96.787530 
3472.000000	96.786314 
3471.000000	96.785576 
3470.000000	96.784818 
3469.000000	96.783660 
3468.000000	96.782104 
3467.000000	96.780384 
3466.000000	96.778591 
3465.000000	96.776488 
3464.000000	96.773709 
3463.000000	96.770152 
3462.000000	96.766147 
3461.000000	96.762253 
3460.000000	96.758833 
3459.000000	96.755722 
3458.000000	96.752396 
3457.000000	96.748489 
3456.000000	96.744246 
3455.000000	96.740377 
3454.000000	96.737499 
3453.000000	96.735745 
3452.000000	96.734705 
3451.000000	96.733708 
3450.000000	96.732195 
3449.000000	96.729872 
3448.000000	96.726620 
3447.000000	96.722410 
3446.000000	96.717516 
3445.000000	96.712763 
3444.000000	96.709167 
3443.000000	96.707111 
3442.000000	96.705883 
3441.000000	96.704127 
3440.000000	96.700958 
3439.000000	96.696500 
3438.000000	96.691508 
3437.000000	96.686700 
3436.000000	96.682516 
3435.000000	96.679241 
3434.000000	96.676987 
3433.000000	96.675449 
3432.000000	96.673938 
3431.000000	96.671949 
3430.000000	96.669542 
3429.000000	96.667040 
3428.000000	96.664343 
3427.000000	96.660911 
3426.000000	96.656704 
3425.000000	96.652765 
3424.000000	96.650332 
3423.000000	96.649338 
3422.000000	96.648255 
3421.000000	96.645801 
3420.000000	96.642399 
3419.000000	96.639487 
3418.000000	96.637703 
3417.000000	96.636421 
3416.000000	96.634826 
3415.000000	96.632644 
3414.000000	96.629703 
3413.000000	96.625583 
3412.000000	96.620386 
3411.000000	96.615532 
3410.000000	96.612996 
3409.000000	96.613573 
3408.000000	96.615993 
3407.000000	96.617795 
3406.000000	96.617370 
3405.000000	96.615213 
3404.000000	96.613266 
3403.000000	96.612935 
3402.000000	96.613836 
3401.000000	96.614524 
3400.000000	96.614222 
3399.000000	96.613407 
3398.000000	96.612781 
3397.000000	96.612404 
3396.000000	96.612171 
3395.000000	96.612542 
3394.000000	96.614050 
3393.000000	96.616136 
3392.000000	96.617097 
3391.000000	96.615585 
3390.000000	96.612105 
3389.000000	96.608933 
3388.000000	96.608473 
3387.000000	96.611528 
3386.000000	96.616756 
3385.000000	96.621463 
3384.000000	96.623581 
3383.000000	96.623341 
3382.000000	96.623051 
3381.000000	96.624941 
3380.000000	96.629071 
3379.000000	96.633475 
3378.000000	96.636430 
3377.000000	96.638289 
3376.000000	96.640629 
3375.000000	96.644003 
3374.000000	96.647306 
3373.000000	96.649419 
3372.000000	96.650759 
3371.000000	96.652689 
3370.000000	96.655773 
3369.000000	96.659178 
3368.000000	96.661748 
3367.000000	96.663107 
3366.000000	96.663692 
3365.000000	96.664152 
3364.000000	96.664942 
3363.000000	96.666238 
3362.000000	96.667922 
3361.000000	96.669774 
3360.000000	96.671839 
3359.000000	96.674498 
3358.000000	96.677975 
3357.000000	96.681855 
3356.000000	96.685368 
3355.000000	96.688203 
3354.000000	96.690831 
3353.000000	96.693910 
3352.000000	96.697526 
3351.000000	96.701109 
3350.000000	96.703992 
3349.000000	96.705881 
3348.000000	96.707011 
3347.000000	96.708018 
3346.000000	96.709570 
3345.000000	96.711892 
3344.000000	96.714513 
3343.000000	96.716659 
3342.000000	96.718058 
3341.000000	96.719325 
3340.000000	96.721333 
3339.000000	96.724220 
3338.000000	96.727275 
3337.000000	96.729706 
3336.000000	96.731412 
3335.000000	96.732868 
3334.000000	96.734480 
3333.000000	96.736196 
3332.000000	96.737788 
3331.000000	96.739278 
3330.000000	96.740960 
3329.000000	96.743077 
3328.000000	96.745596 
3327.000000	96.748263 
3326.000000	96.750803 
3325.000000	96.753058 
3324.000000	96.754992 
3323.000000	96.756686 
3322.000000	96.758312 
3321.000000	96.760056 
3320.000000	96.762008 
3319.000000	96.764126 
3318.000000	96.766332 
3317.000000	96.768600 
3316.000000	96.770936 
3315.000000	96.773318 
3314.000000	96.775661 
3313.000000	96.777868 
3312.000000	96.779912 
3311.000000	96.781891 
3310.000000	96.783966 
3309.000000	96.786218 
3308.000000	96.788554 
3307.000000	96.790775 
3306.000000	96.792771 
3305.000000	96.794615 
3304.000000	96.796502 
3303.000000	96.798586 
3302.000000	96.800869 
3301.000000	96.803225 
3300.000000	96.805478 
3299.000000	96.807515 
3298.000000	96.809338 
3297.000000	96.811074 
3296.000000	96.812913 
3295.000000	96.814984 
3294.000000	96.817298 
3293.000000	96.819765 
3292.000000	96.822251 
3291.000000	96.824649 
3290.000000	96.826898 
3289.000000	96.828995 
3288.000000	96.830999 
3287.000000	96.833014 
3286.000000	96.835112 
3285.000000	96.837236 
3284.000000	96.839212 
3283.000000	96.840948 
3282.000000	96.842629 
3281.000000	96.844596 
3280.000000	96.846960 
3279.000000	96.849413 
3278.000000	96.851529 
3277.000000	96.853253 
3276.000000	96.854972 
3275.000000	96.857099 
3274.000000	96.859729 
3273.000000	96.862705 
3272.000000	96.865795 
3271.000000	96.868786 
3270.000000	96.871494 
3269.000000	96.873849 
3268.000000	96.875925 
3267.000000	96.877866 
3266.000000	96.879840 
3265.000000	96.882027 
3264.000000	96.884515 
3263.000000	96.887139 
3262.000000	96.889574 
3261.000000	96.891668 
3260.000000	96.893596 
3259.000000	96.895596 
3258.000000	96.897698 
3257.000000	96.899860 
3256.000000	96.902194 
3255.000000	96.904805 
3254.000000	96.907528 
3253.000000	96.910092 
3252.000000	96.912540 
3251.000000	96.915226 
3250.000000	96.918270 
3249.000000	96.921251 
3248.000000	96.923617 
3247.000000	96.925309 
3246.000000	96.926842 
3245.000000	96.928779 
3244.000000	96.931221 
3243.000000	96.933876 
3242.000000	96.936458 
3241.000000	96.938911 
3240.000000	96.941337 
3239.000000	96.943898 
3238.000000	96.946790 
3237.000000	96.950147 
3236.000000	96.953887 
3235.000000	96.957668 
3234.000000	96.961058 
3233.000000	96.963820 
3232.000000	96.966018 
3231.000000	96.967979 
3230.000000	96.970056 
3229.000000	96.972344 
3228.000000	96.974676 
3227.000000	96.976938 
3226.000000	96.979363 
3225.000000	96.982349 
3224.000000	96.985997 
3223.000000	96.989960 
3222.000000	96.993686 
3221.000000	96.996836 
3220.000000	96.999416 
3219.000000	97.001671 
3218.000000	97.003954 
3217.000000	97.006551 
3216.000000	97.009484 
3215.000000	97.012522 
3214.000000	97.015427 
3213.000000	97.018172 
3212.000000	97.020874 
3211.000000	97.023596 
3210.000000	97.026314 
3209.000000	97.029006 
3208.000000	97.031690 
3207.000000	97.034383 
3206.000000	97.037108 
3205.000000	97.039922 
3204.000000	97.042885 
3203.000000	97.045981 
3202.000000	97.049110 
3201.000000	97.052162 
3200.000000	97.055093 
3199.000000	97.057931 
3198.000000	97.060732 
3197.000000	97.063540 
3196.000000	97.066364 
3195.000000	97.069209 
3194.000000	97.072107 
3193.000000	97.075097 
3192.000000	97.078172 
3191.000000	97.081265 
3190.000000	97.084302 
3189.000000	97.087269 
3188.000000	97.090197 
3187.000000	97.093137 
3186.000000	97.096120 
3185.000000	97.099140 
3184.000000	97.102168 
3183.000000	97.105183 
3182.000000	97.108192 
3181.000000	97.111208 
3180.000000	97.114226 
3179.000000	97.117238 
3178.000000	97.120247 
3177.000000	97.123269 
3176.000000	97.126319 
3175.000000	97.129390 
3174.000000	97.132469 
3173.000000	97.135543 
3172.000000	97.138599 
3171.000000	97.141626 
3170.000000	97.144622 
3169.000000	97.147598 
3168.000000	97.150569 
3167.000000	97.153542 
3166.000000	97.156508 
3165.000000	97.159460 
3164.000000	97.162399 
3163.000000	97.165327 
3162.000000	97.168246 
3161.000000	97.171156 
3160.000000	97.174065 
3159.000000	97.176979 
3158.000000	97.179900 
3157.000000	97.182827 
3156.000000	97.185755 
3155.000000	97.188677 
3154.000000	97.191583 
3153.000000	97.194470 
3152.000000	97.197342 
3151.000000	97.200205 
3150.000000	97.203063 
3149.000000	97.205917 
3148.000000	97.208768 
3147.000000	97.211621 
3146.000000	97.214490 
3145.000000	97.217394 
3144.000000	97.220343 
3143.000000	97.223303 
3142.000000	97.226209 
3141.000000	97.229005 
3140.000000	97.231708 
3139.000000	97.234422 
3138.000000	97.237258 
3137.000000	97.240220 
3136.000000	97.243151 
3135.000000	97.245838 
3134.000000	97.248198 
3133.000000	97.250403 
3132.000000	97.252758 
3131.000000	97.255370 
3130.000000	97.258064 
3129.000000	97.260699 
3128.000000	97.263459 
3127.000000	97.266665 
3126.000000	97.270394 
3125.000000	97.274328 
3124.000000	97.277953 
3123.000000	97.280908 
3122.000000	97.283195 
3121.000000	97.285196 
3120.000000	97.287404 
3119.000000	97.290006 
3118.000000	97.292777 
3117.000000	97.295394 
3116.000000	97.297771 
3115.000000	97.300017 
3114.000000	97.302205 
3113.000000	97.304373 
3112.000000	97.306739 
3111.000000	97.309697 
3110.000000	97.313463 
3109.000000	97.317741 
3108.000000	97.321848 
3107.000000	97.325272 
3106.000000	97.327996 
3105.000000	97.330234 
3104.000000	97.331963 
3103.000000	97.332959 
3102.000000	97.333309 
3101.000000	97.333493 
3100.000000	97.333880 
3099.000000	97.334524 
3098.000000	97.335661 
3097.000000	97.337978 
3096.000000	97.341888 
3095.000000	97.346675 
3094.000000	97.350937 
3093.000000	97.353858 
3092.000000	97.355666 
3091.000000	97.356980 
3090.000000	97.358105 
3089.000000	97.359043 
3088.000000	97.359774 
3087.000000	97.360442 
3086.000000	97.361488 
3085.000000	97.363440 
3084.000000	97.366309 
3083.000000	97.369349 
3082.000000	97.371797 
3081.000000	97.373741 
3080.000000	97.375795 
3079.000000	97.378022 
3078.000000	97.379777 
3077.000000	97.380726 
3076.000000	97.381431 
3075.000000	97.382599 
3074.000000	97.384152 
3073.000000	97.385539 
3072.000000	97.386651 
3071.000000	97.387898 
3070.000000	97.389522 
3069.000000	97.391325 
3068.000000	97.393051 
3067.000000	97.394634 
3066.000000	97.396012 
3065.000000	97.397053 
3064.000000	97.397776 
3063.000000	97.398365 
3062.000000	97.398885 
3061.000000	97.399205 
3060.000000	97.399333 
3059.000000	97.399666 
3058.000000	97.400757 
3057.000000	97.402883 
3056.000000	97.405773 
3055.000000	97.408571 
3054.000000	97.410260 
3053.000000	97.410462 
3052.000000	97.409989 
3051.000000	97.410371 
3050.000000	97.412454 
3049.000000	97.415591 
3048.000000	97.418224 
3047.000000	97.419284 
3046.000000	97.418810 
3045.000000	97.417592 
3044.000000	97.416603 
3043.000000	97.416649 
3042.000000	97.418106 
3041.000000	97.420551 
3040.000000	97.422800 
3039.000000	97.423799 
3038.000000	97.423615 
3037.000000	97.423276 
3036.000000	97.423440 
3035.000000	97.423465 
3034.000000	97.422259 
3033.000000	97.419893 
3032.000000	97.417833 
3031.000000	97.417413 
3030.000000	97.418510 
3029.000000	97.419846 
3028.000000	97.420116 
3027.000000	97.418603 
3026.000000	97.415346 
3025.000000	97.411381 
3024.000000	97.408398 
3023.000000	97.407324 
3022.000000	97.407383 
3021.000000	97.407193 
3020.000000	97.406598 
3019.000000	97.406554 
3018.000000	97.407243 
3017.000000	97.407343 
3016.000000	97.405601 
3015.000000	97.402384 
3014.000000	97.399269 
3013.000000	97.397517 
3012.000000	97.397138 
3011.000000	97.396894 
3010.000000	97.395017 
3009.000000	97.390559 
3008.000000	97.384428 
3007.000000	97.378703 
3006.000000	97.374519 
3005.000000	97.371215 
3004.000000	97.367821 
3003.000000	97.364735 
3002.000000	97.363377 
3001.000000	97.364510 
3000.000000	97.367219 
2999.000000	97.369259 
2998.000000	97.368300 
2997.000000	97.363459 
2996.000000	97.356254 
2995.000000	97.349758 
2994.000000	97.346151 
2993.000000	97.345082 
2992.000000	97.344402 
2991.000000	97.342220 
2990.000000	97.338178 
2989.000000	97.333329 
2988.000000	97.329387 
2987.000000	97.327835 
2986.000000	97.329218 
2985.000000	97.333063 
2984.000000	97.338432 
2983.000000	97.344368 
2982.000000	97.349802 
2981.000000	97.353511 
2980.000000	97.354612 
2979.000000	97.353070 
2978.000000	97.349676 
2977.000000	97.345789 
2976.000000	97.343028 
2975.000000	97.342643 
2974.000000	97.344854 
2973.000000	97.348977 
2972.000000	97.354186 
2971.000000	97.359706 
2970.000000	97.364318 
2969.000000	97.366793 
2968.000000	97.367454 
2967.000000	97.368494 
2966.000000	97.371811 
2965.000000	97.376929 
2964.000000	97.381847 
2963.000000	97.385500 
2962.000000	97.388493 
2961.000000	97.391660 
2960.000000	97.395056 
2959.000000	97.398588 
2958.000000	97.402667 
2957.000000	97.407637 
2956.000000	97.412934 
2955.000000	97.417195 
2954.000000	97.419210 
2953.000000	97.418886 
2952.000000	97.417742 
2951.000000	97.418292 
2950.000000	97.422094 
2949.000000	97.428167 
2948.000000	97.433737 
2947.000000	97.436793 
2946.000000	97.437566 
2945.000000	97.437518 
2944.000000	97.437724 
2943.000000	97.438543 
2942.000000	97.440015 
2941.000000	97.441798 
2940.000000	97.443125 
2939.000000	97.443675 
2938.000000	97.444328 
2937.000000	97.446258 
2936.000000	97.449166 
2935.000000	97.451208 
2934.000000	97.450994 
2933.000000	97.449098 
2932.000000	97.447436 
2931.000000	97.447496 
2930.000000	97.449394 
2929.000000	97.452197 
2928.000000	97.454660 
2927.000000	97.455896 
2926.000000	97.455887 
2925.000000	97.455569 
2924.000000	97.456166 
2923.000000	97.458159 
2922.000000	97.460833 
2921.000000	97.462904 
2920.000000	97.463739 
2919.000000	97.463964 
2918.000000	97.464654 
2917.000000	97.465834 
2916.000000	97.466193 
2915.000000	97.464681 
2914.000000	97.462135 
2913.000000	97.460618 
2912.000000	97.461004 
2911.000000	97.461917 
2910.000000	97.461505 
2909.000000	97.459810 
2908.000000	97.458702 
2907.000000	97.459512 
2906.000000	97.461360 
2905.000000	97.461957 
2904.000000	97.459924 
2903.000000	97.456098 
2902.000000	97.453250 
2901.000000	97.453616 
2900.000000	97.457268 
2899.000000	97.462608 
2898.000000	97.468101 
2897.000000	97.473489 
2896.000000	97.478751 
2895.000000	97.482844 
2894.000000	97.484558 
2893.000000	97.484482 
2892.000000	97.484904 
2891.000000	97.487240 
2890.000000	97.490436 
2889.000000	97.492666 
2888.000000	97.493840 
2887.000000	97.495316 
2886.000000	97.497567 
2885.000000	97.499590 
2884.000000	97.500894 
2883.000000	97.502638 
2882.000000	97.505896 
2881.000000	97.509819 
2880.000000	97.512804 
2879.000000	97.515100 
2878.000000	97.518711 
2877.000000	97.524572 
2876.000000	97.531055 
2875.000000	97.535803 
2874.000000	97.538277 
2873.000000	97.539677 
2872.000000	97.541102 
2871.000000	97.542607 
2870.000000	97.543911 
2869.000000	97.545123 
2868.000000	97.546562 
2867.000000	97.548430 
2866.000000	97.550807 
2865.000000	97.553621 
2864.000000	97.556585 
2863.000000	97.559559 
2862.000000	97.562940 
2861.000000	97.567140 
2860.000000	97.571726 
2859.000000	97.575704 
2858.000000	97.578746 
2857.000000	97.581635 
2856.000000	97.585306 
2855.000000	97.589746 
2854.000000	97.594035 
2853.000000	97.597350 
2852.000000	97.599657 
2851.000000	97.601549 
2850.000000	97.603714 
2849.000000	97.606467 
2848.000000	97.609612 
2847.000000	97.612616 
2846.000000	97.615034 
2845.000000	97.616845 
2844.000000	97.618451 
2843.000000	97.620405 
2842.000000	97.623065 
2841.000000	97.626309 
2840.000000	97.629491 
2839.000000	97.631949 
2838.000000	97.633682 
2837.000000	97.635384 
2836.000000	97.637664 
2835.000000	97.640431 
2834.000000	97.643246 
2833.000000	97.646026 
2832.000000	97.649031 
2831.000000	97.652219 
2830.000000	97.655042 
2829.000000	97.656993 
2828.000000	97.658138 
2827.000000	97.659084 
2826.000000	97.660577 
2825.000000	97.663026 
2824.000000	97.666204 
2823.000000	97.669254 
2822.000000	97.671336 
2821.000000	97.672333 
2820.000000	97.672810 
2819.000000	97.673355 
2818.000000	97.674114 
2817.000000	97.675057 
2816.000000	97.676332 
2815.000000	97.678087 
2814.000000	97.680130 
2813.000000	97.682005 
2812.000000	97.683400 
2811.000000	97.684352 
2810.000000	97.685116 
2809.000000	97.685978 
2808.000000	97.687147 
2807.000000	97.688706 
2806.000000	97.690580 
2805.000000	97.692550 
2804.000000	97.694330 
2803.000000	97.695680 
2802.000000	97.696562 
2801.000000	97.697230 
2800.000000	97.698091 
2799.000000	97.699319 
2798.000000	97.700687 
2797.000000	97.701827 
2796.000000	97.702650 
2795.000000	97.703395 
2794.000000	97.704331 
2793.000000	97.705489 
2792.000000	97.706734 
2791.000000	97.707949 
2790.000000	97.709092 
2789.000000	97.710150 
2788.000000	97.711135 
2787.000000	97.712114 
2786.000000	97.713176 
2785.000000	97.714340 
2784.000000	97.715543 
2783.000000	97.716725 
2782.000000	97.717893 
2781.000000	97.719091 
2780.000000	97.720324 
2779.000000	97.721541 
2778.000000	97.722670 
2777.000000	97.723675 
2776.000000	97.724566 
2775.000000	97.725409 
2774.000000	97.726288 
2773.000000	97.727232 
2772.000000	97.728191 
2771.000000	97.729111 
2770.000000	97.730027 
2769.000000	97.731039 
2768.000000	97.732186 
2767.000000	97.733359 
2766.000000	97.734397 
2765.000000	97.735245 
2764.000000	97.735979 
2763.000000	97.736704 
2762.000000	97.737444 
2761.000000	97.738181 
2760.000000	97.738931 
2759.000000	97.739763 
2758.000000	97.740727 
2757.000000	97.741782 
2756.000000	97.742766 
2755.000000	97.743542 
2754.000000	97.744128 
2753.000000	97.744712 
2752.000000	97.745465 
2751.000000	97.746381 
2750.000000	97.747333 
2749.000000	97.748227 
2748.000000	97.749046 
2747.000000	97.749737 
2746.000000	97.750224 
2745.000000	97.750552 
2744.000000	97.750917 
2743.000000	97.751451 
2742.000000	97.752087 
2741.000000	97.752713 
2740.000000	97.753369 
2739.000000	97.754168 
2738.000000	97.755075 
2737.000000	97.755896 
2736.000000	97.756518 
2735.000000	97.757031 
2734.000000	97.757622 
2733.000000	97.758389 
2732.000000	97.759285 
2731.000000	97.760202 
2730.000000	97.761091 
2729.000000	97.761990 
2728.000000	97.762947 
2727.000000	97.763913 
2726.000000	97.764770 
2725.000000	97.765465 
2724.000000	97.766073 
2723.000000	97.766699 
2722.000000	97.767376 
2721.000000	97.768077 
2720.000000	97.768786 
2719.000000	97.769523 
2718.000000	97.770302 
2717.000000	97.771109 
2716.000000	97.771914 
2715.000000	97.772696 
2714.000000	97.773458 
2713.000000	97.774220 
2712.000000	97.774999 
2711.000000	97.775801 
2710.000000	97.776630 
2709.000000	97.777464 
2708.000000	97.778257 
2707.000000	97.778997 
2706.000000	97.779755 
2705.000000	97.780639 
2704.000000	97.781653 
2703.000000	97.782628 
2702.000000	97.783364 
2701.000000	97.783834 
2700.000000	97.784236 
2699.000000	97.784796 
2698.000000	97.785575 
2697.000000	97.786431 
2696.000000	97.787115 
2695.000000	97.787464 
2694.000000	97.787542 
2693.000000	97.787629 
2692.000000	97.787991 
2691.000000	97.788685 
2690.000000	97.789574 
2689.000000	97.790448 
2688.000000	97.791093 
2687.000000	97.791317 
2686.000000	97.791109 
2685.000000	97.790774 
2684.000000	97.790698 
2683.000000	97.790929 
2682.000000	97.791198 
2681.000000	97.791408 
2680.000000	97.791834 
2679.000000	97.792710 
2678.000000	97.793861 
2677.000000	97.794942 
2676.000000	97.795788 
2675.000000	97.796285 
2674.000000	97.796145 
2673.000000	97.795221 
2672.000000	97.793888 
2671.000000	97.792730 
2670.000000	97.791966 
2669.000000	97.791468 
2668.000000	97.791204 
2667.000000	97.791269 
2666.000000	97.791479 
2665.000000	97.791334 
2664.000000	97.790607 
2663.000000	97.789752 
2662.000000	97.789460 
2661.000000	97.789805 
2660.000000	97.790061 
2659.000000	97.789445 
2658.000000	97.787921 
2657.000000	97.786254 
2656.000000	97.785278 
2655.000000	97.785159 
2654.000000	97.785393 
2653.000000	97.785405 
2652.000000	97.785078 
2651.000000	97.784711 
2650.000000	97.784633 
2649.000000	97.784925 
2648.000000	97.785433 
2647.000000	97.785919 
2646.000000	97.786166 
2645.000000	97.786040 
2644.000000	97.785584 
2643.000000	97.785070 
2642.000000	97.784832 
2641.000000	97.784973 
2640.000000	97.785267 
2639.000000	97.785412 
2638.000000	97.785366 
2637.000000	97.785332 
2636.000000	97.785470 
2635.000000	97.785756 
2634.000000	97.786096 
2633.000000	97.786428 
2632.000000	97.786674 
2631.000000	97.786742 
2630.000000	97.786609 
2629.000000	97.786408 
2628.000000	97.786360 
2627.000000	97.786572 
2626.000000	97.786951 
2625.000000	97.787330 
2624.000000	97.787649 
2623.000000	97.787937 
2622.000000	97.788180 
2621.000000	97.788301 
2620.000000	97.788242 
2619.000000	97.788002 
2618.000000	97.787663 
2617.000000	97.787428 
2616.000000	97.787563 
2615.000000	97.788151 
2614.000000	97.788951 
2613.000000	97.789562 
2612.000000	97.789788 
2611.000000	97.789794 
2610.000000	97.789956 
2609.000000	97.790525 
2608.000000	97.791363 
2607.000000	97.792029 
2606.000000	97.792308 
2605.000000	97.792539 
2604.000000	97.793111 
2603.000000	97.793734 
2602.000000	97.793808 
2601.000000	97.793522 
2600.000000	97.793768 
2599.000000	97.794627 
2598.000000	97.794826 
2597.000000	97.793345 
2596.000000	97.790869 
2595.000000	97.789019 
2594.000000	97.788380 
2593.000000	97.788243 
2592.000000	97.788010 
2591.000000	97.787874 
2590.000000	97.787962 
2589.000000	97.787763 
2588.000000	97.786906 
2587.000000	97.785965 
2586.000000	97.785954 
2585.000000	97.787343 
2584.000000	97.789739 
2583.000000	97.792324 
2582.000000	97.794379 
2581.000000	97.795501 
2580.000000	97.795708 
2579.000000	97.795447 
2578.000000	97.795492 
2577.000000	97.796412 
2576.000000	97.797934 
2575.000000	97.798985 
2574.000000	97.798680 
2573.000000	97.797134 
2572.000000	97.795046 
2571.000000	97.792663 
2570.000000	97.789799 
2569.000000	97.786862 
2568.000000	97.785014 
2567.000000	97.784882 
2566.000000	97.785673 
2565.000000	97.786028 
2564.000000	97.785580 
2563.000000	97.785117 
2562.000000	97.785398 
2561.000000	97.786487 
2560.000000	97.788157 
2559.000000	97.790295 
2558.000000	97.792612 
2557.000000	97.794380 
2556.000000	97.794946 
2555.000000	97.794361 
2554.000000	97.793190 
2553.000000	97.791855 
2552.000000	97.790485 
2551.000000	97.789401 
2550.000000	97.789165 
2549.000000	97.789828 
2548.000000	97.790500 
2547.000000	97.790197 
2546.000000	97.789009 
2545.000000	97.787973 
2544.000000	97.787695 
2543.000000	97.787633 
2542.000000	97.787003 
2541.000000	97.785921 
2540.000000	97.785256 
2539.000000	97.785451 
2538.000000	97.786063 
2537.000000	97.786366 
2536.000000	97.786152 
2535.000000	97.785771 
2534.000000	97.785611 
2533.000000	97.785705 
2532.000000	97.785815 
2531.000000	97.785738 
2530.000000	97.785467 
2529.000000	97.785125 
2528.000000	97.784810 
2527.000000	97.784557 
2526.000000	97.784395 
2525.000000	97.784386 
2524.000000	97.784548 
2523.000000	97.784807 
2522.000000	97.785070 
2521.000000	97.785287 
2520.000000	97.785436 
2519.000000	97.785494 
2518.000000	97.785459 
2517.000000	97.785367 
2516.000000	97.785276 
2515.000000	97.785231 
2514.000000	97.785239 
2513.000000	97.785287 
2512.000000	97.785353 
2511.000000	97.785423 
2510.000000	97.785497 
2509.000000	97.785576 
2508.000000	97.785659 
2507.000000	97.785732 
2506.000000	97.785785 
2505.000000	97.785823 
2504.000000	97.785862 
2503.000000	97.785906 
2502.000000	97.785943 
2501.000000	97.785954 
2500.000000	97.785941 
2499.000000	97.785923 
2498.000000	97.785920 
2497.000000	97.785931 
2496.000000	97.785945 
2495.000000	97.785943 
2494.000000	97.785909 
2493.000000	97.785841 
2492.000000	97.785754 
2491.000000	97.785672 
2490.000000	97.785611 
2489.000000	97.785566 
2488.000000	97.785512 
2487.000000	97.785433 
2486.000000	97.785346 
2485.000000	97.785290 
2484.000000	97.785286 
2483.000000	97.785316 
2482.000000	97.785331 
2481.000000	97.785312 
2480.000000	97.785302 
2479.000000	97.785372 
2478.000000	97.785537 
2477.000000	97.785738 
2476.000000	97.785891 
2475.000000	97.785945 
2474.000000	97.785909 
2473.000000	97.785881 
2472.000000	97.785980 
2471.000000	97.786221 
2470.000000	97.786492 
2469.000000	97.786755 
2468.000000	97.787176 
2467.000000	97.787914 
2466.000000	97.788855 
2465.000000	97.789662 
2464.000000	97.790121 
2463.000000	97.790367 
2462.000000	97.790792 
2461.000000	97.791703 
2460.000000	97.793082 
2459.000000	97.794598 
2458.000000	97.795886 
2457.000000	97.796813 
2456.000000	97.797473 
2455.000000	97.798019 
2454.000000	97.798553 
2453.000000	97.799109 
2452.000000	97.799688 
2451.000000	97.800309 
2450.000000	97.801132 
2449.000000	97.802449 
2448.000000	97.804354 
2447.000000	97.806417 
2446.000000	97.807977 
2445.000000	97.808835 
2444.000000	97.809448 
2443.000000	97.810412 
2442.000000	97.811827 
2441.000000	97.813343 
2440.000000	97.814613 
2439.000000	97.815550 
2438.000000	97.816343 
2437.000000	97.817424 
2436.000000	97.819191 
2435.000000	97.821539 
2434.000000	97.823740 
2433.000000	97.825114 
2432.000000	97.825705 
2431.000000	97.826099 
2430.000000	97.826775 
2429.000000	97.827807 
2428.000000	97.828992 
2427.000000	97.830000 
2426.000000	97.830507 
2425.000000	97.830367 
2424.000000	97.829652 
2423.000000	97.828556 
2422.000000	97.827470 
2421.000000	97.827164 
2420.000000	97.828354 
2419.000000	97.830795 
2418.000000	97.833123 
2417.000000	97.834486 
2416.000000	97.835505 
2415.000000	97.836981 
2414.000000	97.838550 
2413.000000	97.839602 
2412.000000	97.840601 
2411.000000	97.842073 
2410.000000	97.843196 
2409.000000	97.842976 
2408.000000	97.842095 
2407.000000	97.842014 
2406.000000	97.842699 
2405.000000	97.842718 
2404.000000	97.841278 
2403.000000	97.838823 
2402.000000	97.836026 
2401.000000	97.833588 
2400.000000	97.832694 
2399.000000	97.834220 
2398.000000	97.837505 
2397.000000	97.841003 
2396.000000	97.843904 
2395.000000	97.845950 
2394.000000	97.846275 
2393.000000	97.844208 
2392.000000	97.841103 
2391.000000	97.839485 
2390.000000	97.839876 
2389.000000	97.839947 
2388.000000	97.837330 
2387.000000	97.831977 
2386.000000	97.825318 
2385.000000	97.818499 
2384.000000	97.812341 
2383.000000	97.808053 
2382.000000	97.807144 
2381.000000	97.811104 
2380.000000	97.821341 
2379.000000	97.838152 
2378.000000	97.858443 
2377.000000	97.875403 
2376.000000	97.882790 
2375.000000	97.879484 
2374.000000	97.869363 
2373.000000	97.857184 
2372.000000	97.845542 
2371.000000	97.836063 
2370.000000	97.830579 
2369.000000	97.829035 
2368.000000	97.827872 
2367.000000	97.823334 
2366.000000	97.816534 
2365.000000	97.812933 
2364.000000	97.815385 
2363.000000	97.819742 
2362.000000	97.820979 
2361.000000	97.820208 
2360.000000	97.819924 
2359.000000	97.819171 
2358.000000	97.815291 
2357.000000	97.810321 
2356.000000	97.809295 
2355.000000	97.812471 
2354.000000	97.816993 
2353.000000	97.818640 
2352.000000	97.816173 
2351.000000	97.811268 
2350.000000	97.804676 
2349.000000	97.798412 
2348.000000	97.794040 
2347.000000	97.793310 
2346.000000	97.792070 
2345.000000	97.784976 
2344.000000	97.774907 
2343.000000	97.767279 
2342.000000	97.768600 
2341.000000	97.780013 
2340.000000	97.797322 
2339.000000	97.812537 
2338.000000	97.820849 
2337.000000	97.823745 
2336.000000	97.824893 
2335.000000	97.823659 
2334.000000	97.817235 
2333.000000	97.803166 
2332.000000	97.783668 
2331.000000	97.763767 
2330.000000	97.744854 
2329.000000	97.726745 
2328.000000	97.706170 
2327.000000	97.685821 
2326.000000	97.669594 
2325.000000	97.659478 
2324.000000	97.656552 
2323.000000	97.659010 
2322.000000	97.665320 
2321.000000	97.669599 
2320.000000	97.669921 
2319.000000	97.669974 
2318.000000	97.675045 
2317.000000	97.684399 
2316.000000	97.691834 
2315.000000	97.693357 
2314.000000	97.689621 
2313.000000	97.684308 
2312.000000	97.679354 
2311.000000	97.675386 
2310.000000	97.671362 
2309.000000	97.666017 
2308.000000	97.659908 
2307.000000	97.656964 
2306.000000	97.660804 
2305.000000	97.669203 
2304.000000	97.675798 
2303.000000	97.676822 
2302.000000	97.675072 
2301.000000	97.675270 
2300.000000	97.677928 
2299.000000	97.679484 
2298.000000	97.676698 
2297.000000	97.670540 
2296.000000	97.664413 
2295.000000	97.661828 
2294.000000	97.664024 
2293.000000	97.670025 
2292.000000	97.677214 
2291.000000	97.683277 
2290.000000	97.687743 
2289.000000	97.691527 
2288.000000	97.695280 
2287.000000	97.698637 
2286.000000	97.701605 
2285.000000	97.705264 
2284.000000	97.710665 
2283.000000	97.717074 
2282.000000	97.722590 
2281.000000	97.726024 
2280.000000	97.727592 
2279.000000	97.727707 
2278.000000	97.726742 
2277.000000	97.725999 
2276.000000	97.727561 
2275.000000	97.732487 
2274.000000	97.739781 
2273.000000	97.747760 
2272.000000	97.755493 
2271.000000	97.762372 
2270.000000	97.767329 
2269.000000	97.769867 
2268.000000	97.771359 
2267.000000	97.773946 
2266.000000	97.778032 
2265.000000	97.782058 
2264.000000	97.784555 
2263.000000	97.785471 
2262.000000	97.785507 
2261.000000	97.785247 
2260.000000	97.785307 
2259.000000	97.786268 
2258.000000	97.788238 
2257.000000	97.790924 
2256.000000	97.794270 
2255.000000	97.798379 
2254.000000	97.802756 
2253.000000	97.806287 
2252.000000	97.808290 
2251.000000	97.809063 
2250.000000	97.809299 
2249.000000	97.809500 
2248.000000	97.810080 
2247.000000	97.811483 
2246.000000	97.813758 
2245.000000	97.816281 
2244.000000	97.818201 
2243.000000	97.819232 
2242.000000	97.819734 
2241.000000	97.820322 
2240.000000	97.821393 
2239.000000	97.822958 
2238.000000	97.824753 
2237.000000	97.826413 
2236.000000	97.827714 
2235.000000	97.828667 
2234.000000	97.829420 
2233.000000	97.830115 
2232.000000	97.830808 
2231.000000	97.831465 
2230.000000	97.832003 
2229.000000	97.832360 
2228.000000	97.832562 
2227.000000	97.832684 
2226.000000	97.832764 
2225.000000	97.832784 
2224.000000	97.832720 
2223.000000	97.832577 
2222.000000	97.832397 
2221.000000	97.832218 
2220.000000	97.832034 
2219.000000	97.831817 
2218.000000	97.831537 
2217.000000	97.831189 
2216.000000	97.830788 
2215.000000	97.830346 
2214.000000	97.829859 
2213.000000	97.829320 
2212.000000	97.828741 
2211.000000	97.828155 
2210.000000	97.827591 
2209.000000	97.827051 
2208.000000	97.826505 
2207.000000	97.825908 
2206.000000	97.825207 
2205.000000	97.824381 
2204.000000	97.823538 
2203.000000	97.822938 
2202.000000	97.822712 
2201.000000	97.822641 
2200.000000	97.822242 
2199.000000	97.821063 
2198.000000	97.819031 
2197.000000	97.816848 
2196.000000	97.815726 
2195.000000	97.816202 
2194.000000	97.817324 
2193.000000	97.817647 
2192.000000	97.816943 
2191.000000	97.816006 
2190.000000	97.815001 
2189.000000	97.813295 
2188.000000	97.811002 
2187.000000	97.809173 
2186.000000	97.807957 
2185.000000	97.806174 
2184.000000	97.803937 
2183.000000	97.804222 
2182.000000	97.809710 
2181.000000	97.818580 
2180.000000	97.825210 
2179.000000	97.826008 
2178.000000	97.822871 
2177.000000	97.820576 
2176.000000	97.821591 
2175.000000	97.824341 
2174.000000	97.826099 
2173.000000	97.826414 
2172.000000	97.827351 
2171.000000	97.830814 
2170.000000	97.835963 
2169.000000	97.839404 
2168.000000	97.838356 
2167.000000	97.833611 
2166.000000	97.828663 
2165.000000	97.825545 
2164.000000	97.822738 
2163.000000	97.818649 
2162.000000	97.816487 
2161.000000	97.822952 
2160.000000	97.841281 
2159.000000	97.866875 
2158.000000	97.890324 
2157.000000	97.905325 
2156.000000	97.911817 
2155.000000	97.913029 
2154.000000	97.912287 
2153.000000	97.911767 
2152.000000	97.911480 
2151.000000	97.908952 
2150.000000	97.901973 
2149.000000	97.892478 
2148.000000	97.886092 
2147.000000	97.886599 
2146.000000	97.892159 
2145.000000	97.897978 
2144.000000	97.901856 
2143.000000	97.905387 
2142.000000	97.909917 
2141.000000	97.913690 
2140.000000	97.914196 
2139.000000	97.912149 
2138.000000	97.911423 
2137.000000	97.914712 
2136.000000	97.920126 
2135.000000	97.922747 
2134.000000	97.919558 
2133.000000	97.912574 
2132.000000	97.907276 
2131.000000	97.907716 
2130.000000	97.913198 
2129.000000	97.919172 
2128.000000	97.921179 
2127.000000	97.918263 
2126.000000	97.912923 
2125.000000	97.908394 
2124.000000	97.905779 
2123.000000	97.903686 
2122.000000	97.900296 
2121.000000	97.895292 
2120.000000	97.889840 
2119.000000	97.885349 
2118.000000	97.882727 
2117.000000	97.882250 
2116.000000	97.883100 
2115.000000	97.883089 
2114.000000	97.879944 
2113.000000	97.873753 
2112.000000	97.867585 
2111.000000	97.864781 
2110.000000	97.865844 
2109.000000	97.868487 
2108.000000	97.870291 
2107.000000	97.870688 
2106.000000	97.870236 
2105.000000	97.869449 
2104.000000	97.869018 
2103.000000	97.869944 
2102.000000	97.872318 
2101.000000	97.874408 
2100.000000	97.874162 
2099.000000	97.871690 
2098.000000	97.869393 
2097.000000	97.869415 
2096.000000	97.871587 
2095.000000	97.874027 
2094.000000	97.875145 
2093.000000	97.874707 
2092.000000	97.873324 
2091.000000	97.871844 
2090.000000	97.871152 
2089.000000	97.871801 
2088.000000	97.873357 
2087.000000	97.874406 
2086.000000	97.873793 
2085.000000	97.871772 
2084.000000	97.869899 
2083.000000	97.869617 
2082.000000	97.871186 
2081.000000	97.873967 
2080.000000	97.877326 
2079.000000	97.880929 
2078.000000	97.884218 
2077.000000	97.886351 
2076.000000	97.887134 
2075.000000	97.887655 
2074.000000	97.889311 
2073.000000	97.891990 
2072.000000	97.893865 
2071.000000	97.893345 
2070.000000	97.890903 
2069.000000	97.888701 
2068.000000	97.888583 
2067.000000	97.890582 
2066.000000	97.893293 
2065.000000	97.895098 
2064.000000	97.895201 
2063.000000	97.894342 
2062.000000	97.894827 
2061.000000	97.899007 
2060.000000	97.907054 
2059.000000	97.916663 
2058.000000	97.924710 
2057.000000	97.929413 
2056.000000	97.931000 
2055.000000	97.930738 
2054.000000	97.930173 
2053.000000	97.930659 
2052.000000	97.932674 
2051.000000	97.935475 
2050.000000	97.938138 
2049.000000	97.940869 
2048.000000	97.944578 
2047.000000	97.949173 
2046.000000	97.953343 
2045.000000	97.956487 
2044.000000	97.959753 
2043.000000	97.964383 
2042.000000	97.969827 
2041.000000	97.974527 
2040.000000	97.978262 
2039.000000	97.982596 
2038.000000	97.988723 
2037.000000	97.995618 
2036.000000	98.000822 
2035.000000	98.002924 
2034.000000	98.003110 
2033.000000	98.004433 
2032.000000	98.009064 
2031.000000	98.015824 
2030.000000	98.020639 
2029.000000	98.020277 
2028.000000	98.015513 
2027.000000	98.010324 
2026.000000	98.007833 
2025.000000	98.008060 
2024.000000	98.009783 
2023.000000	98.013058 
2022.000000	98.018804 
2021.000000	98.026134 
2020.000000	98.031364 
2019.000000	98.030708 
2018.000000	98.023485 
2017.000000	98.013030 
2016.000000	98.004733 
2015.000000	98.001788 
2014.000000	98.002950 
2013.000000	98.003787 
2012.000000	98.001148 
2011.000000	97.996823 
2010.000000	97.995575 
2009.000000	97.999263 
2008.000000	98.004281 
2007.000000	98.005730 
2006.000000	98.003100 
2005.000000	97.999733 
2004.000000	97.997974 
2003.000000	97.997275 
2002.000000	97.996677 
2001.000000	97.996102 
2000.000000	97.994571 
1999.000000	97.989660 
1998.000000	97.980171 
1997.000000	97.968222 
1996.000000	97.957714 
1995.000000	97.951112 
1994.000000	97.948542 
1993.000000	97.948814 
1992.000000	97.950011 
1991.000000	97.950308 
1990.000000	97.949554 
1989.000000	97.949301 
1988.000000	97.950457 
1987.000000	97.951625 
1986.000000	97.950574 
1985.000000	97.946847 
1984.000000	97.941885 
1983.000000	97.937161 
1982.000000	97.933381 
1981.000000	97.931284 
1980.000000	97.931745 
1979.000000	97.934533 
1978.000000	97.937830 
1977.000000	97.939640 
1976.000000	97.939335 
1975.000000	97.937627 
1974.000000	97.935796 
1973.000000	97.935098 
1972.000000	97.936086 
1971.000000	97.938029 
1970.000000	97.939305 
1969.000000	97.938639 
1968.000000	97.935983 
1967.000000	97.932309 
1966.000000	97.929058 
1965.000000	97.927278 
1964.000000	97.927071 
1963.000000	97.927772 
1962.000000	97.928478 
1961.000000	97.928513 
1960.000000	97.927636 
1959.000000	97.926048 
1958.000000	97.924323 
1957.000000	97.923094 
1956.000000	97.922495 
1955.000000	97.922155 
1954.000000	97.921620 
1953.000000	97.920795 
1952.000000	97.919831 
1951.000000	97.918845 
1950.000000	97.917862 
1949.000000	97.916903 
1948.000000	97.916000 
1947.000000	97.915139 
1946.000000	97.914237 
1945.000000	97.913210 
1944.000000	97.912049 
1943.000000	97.910803 
1942.000000	97.909501 
1941.000000	97.908137 
1940.000000	97.906732 
1939.000000	97.905328 
1938.000000	97.903930 
1937.000000	97.902518 
1936.000000	97.901106 
1935.000000	97.899738 
1934.000000	97.898382 
1933.000000	97.896988 
1932.000000	97.895668 
1931.000000	97.894615 
1930.000000	97.893755 
1929.000000	97.892692 
1928.000000	97.891200 
1927.000000	97.889455 
1926.000000	97.887624 
1925.000000	97.885671 
1924.000000	97.883793 
1923.000000	97.882543 
1922.000000	97.881966 
1921.000000	97.881076 
1920.000000	97.879076 
1919.000000	97.876402 
1918.000000	97.873856 
1917.000000	97.871192 
1916.000000	97.867609 
1915.000000	97.863483 
1914.000000	97.860294 
1913.000000	97.858889 
1912.000000	97.858590 
1911.000000	97.858322 
1910.000000	97.857790 
1909.000000	97.857260 
1908.000000	97.856817 
1907.000000	97.856085 
1906.000000	97.854257 
1905.000000	97.850425 
1904.000000	97.844542 
1903.000000	97.838250 
1902.000000	97.833972 
1901.000000	97.832508 
1900.000000	97.832482 
1899.000000	97.832297 
1898.000000	97.831874 
1897.000000	97.831949 
1896.000000	97.832064 
1895.000000	97.830325 
1894.000000	97.825473 
1893.000000	97.818387 
1892.000000	97.811427 
1891.000000	97.806547 
1890.000000	97.804094 
1889.000000	97.803071 
1888.000000	97.802695 
1887.000000	97.803518 
1886.000000	97.806106 
1885.000000	97.808968 
1884.000000	97.809111 
1883.000000	97.805328 
1882.000000	97.800131 
1881.000000	97.797429 
1880.000000	97.798535 
1879.000000	97.801086 
1878.000000	97.801790 
1877.000000	97.800174 
1876.000000	97.798901 
1875.000000	97.800578 
1874.000000	97.805142 
1873.000000	97.810179 
1872.000000	97.813195 
1871.000000	97.813314 
1870.000000	97.811443 
1869.000000	97.809643 
1868.000000	97.809424 
1867.000000	97.810574 
1866.000000	97.811570 
1865.000000	97.810640 
1864.000000	97.807636 
1863.000000	97.804836 
1862.000000	97.804904 
1861.000000	97.808439 
1860.000000	97.813966 
1859.000000	97.819952 
1858.000000	97.825777 
1857.000000	97.830835 
1856.000000	97.834639 
1855.000000	97.837923 
1854.000000	97.841491 
1853.000000	97.844376 
1852.000000	97.845538 
1851.000000	97.846522 
1850.000000	97.850077 
1849.000000	97.856563 
1848.000000	97.863345 
1847.000000	97.868109 
1846.000000	97.871148 
1845.000000	97.873980 
1844.000000	97.876993 
1843.000000	97.879783 
1842.000000	97.882414 
1841.000000	97.884968 
1840.000000	97.887858 
1839.000000	97.891665 
1838.000000	97.895478 
1837.000000	97.897010 
1836.000000	97.895502 
1835.000000	97.893457 
1834.000000	97.893525 
1833.000000	97.895198 
1832.000000	97.896457 
1831.000000	97.896392 
1830.000000	97.895325 
1829.000000	97.894227 
1828.000000	97.894455 
1827.000000	97.896831 
1826.000000	97.901181 
1825.000000	97.906444 
1824.000000	97.910963 
1823.000000	97.913583 
1822.000000	97.914175 
1821.000000	97.912970 
1820.000000	97.910569 
1819.000000	97.908420 
1818.000000	97.908371 
1817.000000	97.910529 
1816.000000	97.912157 
1815.000000	97.911105 
1814.000000	97.909152 
1813.000000	97.910157 
1812.000000	97.914949 
1811.000000	97.919307 
1810.000000	97.919463 
1809.000000	97.916694 
1808.000000	97.913874 
1807.000000	97.911543 
1806.000000	97.909519 
1805.000000	97.908804 
1804.000000	97.909921 
1803.000000	97.911107 
1802.000000	97.909939 
1801.000000	97.906628 
1800.000000	97.903336 
1799.000000	97.901321 
1798.000000	97.900980 
1797.000000	97.901881 
1796.000000	97.902316 
1795.000000	97.901286 
1794.000000	97.900351 
1793.000000	97.902271 
1792.000000	97.906545 
1791.000000	97.909209 
1790.000000	97.909070 
1789.000000	97.908941 
1788.000000	97.911247 
1787.000000	97.915939 
1786.000000	97.921597 
1785.000000	97.926727 
1784.000000	97.930175 
1783.000000	97.931879 
1782.000000	97.932815 
1781.000000	97.934109 
1780.000000	97.936057 
1779.000000	97.938307 
1778.000000	97.941174 
1777.000000	97.945060 
1776.000000	97.949208 
1775.000000	97.952280 
1774.000000	97.953621 
1773.000000	97.954254 
1772.000000	97.955976 
1771.000000	97.959158 
1770.000000	97.962649 
1769.000000	97.965348 
1768.000000	97.967080 
1767.000000	97.968045 
1766.000000	97.968639 
1765.000000	97.969699 
1764.000000	97.971975 
1763.000000	97.975237 
1762.000000	97.978175 
1761.000000	97.980160 
1760.000000	97.982058 
1759.000000	97.984508 
1758.000000	97.987051 
1757.000000	97.989031 
1756.000000	97.990669 
1755.000000	97.992243 
1754.000000	97.992841 
1753.000000	97.991383 
1752.000000	97.988812 
1751.000000	97.988345 
1750.000000	97.991645 
1749.000000	97.996585 
1748.000000	98.000180 
1747.000000	98.001835 
1746.000000	98.002432 
1745.000000	98.003150 
1744.000000	98.005216 
1743.000000	98.008665 
1742.000000	98.011636 
1741.000000	98.012651 
1740.000000	98.012491 
1739.000000	98.012810 
1738.000000	98.013464 
1737.000000	98.013313 
1736.000000	98.012101 
1735.000000	98.011151 
1734.000000	98.010729 
1733.000000	98.009792 
1732.000000	98.009950 
1731.000000	98.013350 
1730.000000	98.019358 
1729.000000	98.024337 
1728.000000	98.025563 
1727.000000	98.023588 
1726.000000	98.020348 
1725.000000	98.017180 
1724.000000	98.014984 
1723.000000	98.014375 
1722.000000	98.015093 
1721.000000	98.015771 
1720.000000	98.015362 
1719.000000	98.013845 
1718.000000	98.011362 
1717.000000	98.008520 
1716.000000	98.005088 
1715.000000	98.000220 
1714.000000	97.995418 
1713.000000	97.992082 
1712.000000	97.989035 
1711.000000	97.985036 
1710.000000	97.980242 
1709.000000	97.975456 
1708.000000	97.971654 
1707.000000	97.969895 
1706.000000	97.970558 
1705.000000	97.971580 
1704.000000	97.968659 
1703.000000	97.959525 
1702.000000	97.945171 
1701.000000	97.931586 
1700.000000	97.924244 
1699.000000	97.920530 
1698.000000	97.917370 
1697.000000	97.914255 
1696.000000	97.909767 
1695.000000	97.903045 
1694.000000	97.896366 
1693.000000	97.891464 
1692.000000	97.887224 
1691.000000	97.882206 
1690.000000	97.875926 
1689.000000	97.868769 
1688.000000	97.861373 
1687.000000	97.854294 
1686.000000	97.848471 
1685.000000	97.845442 
1684.000000	97.842909 
1683.000000	97.837861 
1682.000000	97.832072 
1681.000000	97.826663 
1680.000000	97.821887 
1679.000000	97.817725 
1678.000000	97.813613 
1677.000000	97.809025 
1676.000000	97.804197 
1675.000000	97.799379 
1674.000000	97.793669 
1673.000000	97.786561 
1672.000000	97.779004 
1671.000000	97.772962 
1670.000000	97.769467 
1669.000000	97.766404 
1668.000000	97.762073 
1667.000000	97.757464 
1666.000000	97.752940 
1665.000000	97.748296 
1664.000000	97.744601 
1663.000000	97.742707 
1662.000000	97.740276 
1661.000000	97.733937 
1660.000000	97.724250 
1659.000000	97.715088 
1658.000000	97.709664 
1657.000000	97.706299 
1656.000000	97.701811 
1655.000000	97.695600 
1654.000000	97.693615 
1653.000000	97.689868 
1652.000000	97.676997 
1651.000000	97.666681 
1650.000000	97.659294 
1649.000000	97.651697 
1648.000000	97.645724 
1647.000000	97.642211 
1646.000000	97.638795 
1645.000000	97.635831 
1644.000000	97.634353 
1643.000000	97.633475 
1642.000000	97.632421 
1641.000000	97.631515 
1640.000000	97.630771 
1639.000000	97.629439 
1638.000000	97.627100 
1637.000000	97.625397 
1636.000000	97.625242 
1635.000000	97.626027 
1634.000000	97.628689 
1633.000000	97.631188 
1632.000000	97.629749 
1631.000000	97.624924 
1630.000000	97.620102 
1629.000000	97.616755 
1628.000000	97.614254 
1627.000000	97.612606 
1626.000000	97.611705 
1625.000000	97.610029 
1624.000000	97.607615 
1623.000000	97.607513 
1622.000000	97.611574 
1621.000000	97.616688 
1620.000000	97.619441 
1619.000000	97.621287 
1618.000000	97.627366 
1617.000000	97.638341 
1616.000000	97.648698 
1615.000000	97.658109 
1614.000000	97.668399 
1613.000000	97.676492 
1612.000000	97.680150 
1611.000000	97.682256 
1610.000000	97.687693 
1609.000000	97.697756 
1608.000000	97.710328 
1607.000000	97.723292 
1606.000000	97.734032 
1605.000000	97.740446 
1604.000000	97.744410 
1603.000000	97.750650 
1602.000000	97.761008 
1601.000000	97.772139 
1600.000000	97.780568 
1599.000000	97.787019 
1598.000000	97.793982 
1597.000000	97.802308 
1596.000000	97.811211 
1595.000000	97.819990 
1594.000000	97.828393 
1593.000000	97.835842 
1592.000000	97.842156 
1591.000000	97.848377 
1590.000000	97.855410 
1589.000000	97.862853 
1588.000000	97.870660 
1587.000000	97.879994 
1586.000000	97.890049 
1585.000000	97.897193 
1584.000000	97.900231 
1583.000000	97.902720 
1582.000000	97.908200 
1581.000000	97.916088 
1580.000000	97.924313 
1579.000000	97.933212 
1578.000000	97.944751 
1577.000000	97.958253 
1576.000000	97.968021 
1575.000000	97.973181 
1574.000000	97.978669 
1573.000000	97.984828 
1572.000000	97.990465 
1571.000000	97.996689 
1570.000000	98.001885 
1569.000000	98.000437 
1568.000000	97.994627 
1567.000000	97.991682 
1566.000000	97.992369 
1565.000000	97.992725 
1564.000000	97.992773 
1563.000000	97.993379 
1562.000000	97.994775 
1561.000000	97.993640 
1560.000000	97.997198 
1559.000000	98.006649 
1558.000000	98.007852 
1557.000000	98.006998 
1556.000000	98.007935 
1555.000000	98.008251 
1554.000000	98.005145 
1553.000000	98.000478 
1552.000000	97.996045 
1551.000000	97.991287 
1550.000000	97.983970 
1549.000000	97.974916 
1548.000000	97.967479 
1547.000000	97.963297 
1546.000000	97.960423 
1545.000000	97.957148 
1544.000000	97.953506 
1543.000000	97.949764 
1542.000000	97.946908 
1541.000000	97.946446 
1540.000000	97.939245 
1539.000000	97.919918 
1538.000000	97.900062 
1537.000000	97.884513 
1536.000000	97.870199 
1535.000000	97.857133 
1534.000000	97.848169 
1533.000000	97.842871 
1532.000000	97.837040 
1531.000000	97.827345 
1530.000000	97.814633 
1529.000000	97.802112 
1528.000000	97.791446 
1527.000000	97.781728 
1526.000000	97.771375 
1525.000000	97.761087 
1524.000000	97.752760 
1523.000000	97.746515 
1522.000000	97.739465 
1521.000000	97.727031 
1520.000000	97.709343 
1519.000000	97.690791 
1518.000000	97.673762 
1517.000000	97.658601 
1516.000000	97.645039 
1515.000000	97.633396 
1514.000000	97.623486 
1513.000000	97.613935 
1512.000000	97.603229 
1511.000000	97.589835 
1510.000000	97.574061 
1509.000000	97.558306 
1508.000000	97.546746 
1507.000000	97.537414 
1506.000000	97.523120 
1505.000000	97.505771 
1504.000000	97.489804 
1503.000000	97.475188 
1502.000000	97.461013 
1501.000000	97.447549 
1500.000000	97.435332 
1499.000000	97.423787 
1498.000000	97.410472 
1497.000000	97.394424 
1496.000000	97.377706 
1495.000000	97.362359 
1494.000000	97.348405 
1493.000000	97.335644 
1492.000000	97.325086 
1491.000000	97.317732 
1490.000000	97.311567 
1489.000000	97.303078 
1488.000000	97.290686 
1487.000000	97.274870 
1486.000000	97.257763 
1485.000000	97.240211 
1484.000000	97.222452 
1483.000000	97.206313 
1482.000000	97.193300 
1481.000000	97.182627 
1480.000000	97.171545 
1479.000000	97.158375 
1478.000000	97.144103 
1477.000000	97.130871 
1476.000000	97.118424 
1475.000000	97.103531 
1474.000000	97.085651 
1473.000000	97.070336 
1472.000000	97.061789 
1471.000000	97.055597 
1470.000000	97.045911 
1469.000000	97.032194 
1468.000000	97.016719 
1467.000000	97.001153 
1466.000000	96.986985 
1465.000000	96.976187 
1464.000000	96.968351 
1463.000000	96.959244 
1462.000000	96.945668 
1461.000000	96.929938 
1460.000000	96.917792 
1459.000000	96.912954 
1458.000000	96.910828 
1457.000000	96.901930 
1456.000000	96.887371 
1455.000000	96.873422 
1454.000000	96.858839 
1453.000000	96.844324 
1452.000000	96.834248 
1451.000000	96.831074 
1450.000000	96.832521 
1449.000000	96.835927 
1448.000000	96.839573 
1447.000000	96.840696 
1446.000000	96.837524 
1445.000000	96.832797 
1444.000000	96.830749 
1443.000000	96.831379 
1442.000000	96.831196 
1441.000000	96.827805 
1440.000000	96.822342 
1439.000000	96.816979 
1438.000000	96.812564 
1437.000000	96.810546 
1436.000000	96.812221 
1435.000000	96.814420 
1434.000000	96.813474 
1433.000000	96.811574 
1432.000000	96.813364 
1431.000000	96.821019 
1430.000000	96.831389 
1429.000000	96.839975 
1428.000000	96.845760 
1427.000000	96.850734 
1426.000000	96.857756 
1425.000000	96.868722 
1424.000000	96.883389 
1423.000000	96.896867 
1422.000000	96.904402 
1421.000000	96.909270 
1420.000000	96.920743 
1419.000000	96.938764 
1418.000000	96.949523 
1417.000000	96.950136 
1416.000000	96.953062 
1415.000000	96.965115 
1414.000000	96.980642 
1413.000000	96.991733 
1412.000000	96.998803 
1411.000000	97.007459 
1410.000000	97.018728 
1409.000000	97.030447 
1408.000000	97.042871 
1407.000000	97.057645 
1406.000000	97.074523 
1405.000000	97.092280 
1404.000000	97.110950 
1403.000000	97.128537 
1402.000000	97.141896 
1401.000000	97.153649 
1400.000000	97.171223 
1399.000000	97.196440 
1398.000000	97.220516 
1397.000000	97.236392 
1396.000000	97.248457 
1395.000000	97.265208 
1394.000000	97.286876 
1393.000000	97.307629 
1392.000000	97.327045 
1391.000000	97.348136 
1390.000000	97.370942 
1389.000000	97.392814 
1388.000000	97.411565 
1387.000000	97.426867 
1386.000000	97.439467 
1385.000000	97.451429 
1384.000000	97.465625 
1383.000000	97.482675 
1382.000000	97.499813 
1381.000000	97.514446 
1380.000000	97.526849 
1379.000000	97.539504 
1378.000000	97.554416 
1377.000000	97.571425 
1376.000000	97.588950 
1375.000000	97.605444 
1374.000000	97.619885 
1373.000000	97.632430 
1372.000000	97.644501 
1371.000000	97.658178 
1370.000000	97.674813 
1369.000000	97.692522 
1368.000000	97.708295 
1367.000000	97.721094 
1366.000000	97.732606 
1365.000000	97.745891 
1364.000000	97.761725 
1363.000000	97.776684 
1362.000000	97.787097 
1361.000000	97.793998 
1360.000000	97.801654 
1359.000000	97.812794 
1358.000000	97.826666 
1357.000000	97.840622 
1356.000000	97.852825 
1355.000000	97.863097 
1354.000000	97.872237 
1353.000000	97.881994 
1352.000000	97.893403 
1351.000000	97.906393 
1350.000000	97.920592 
1349.000000	97.933450 
1348.000000	97.942313 
1347.000000	97.947570 
1346.000000	97.952414 
1345.000000	97.958900 
1344.000000	97.965995 
1343.000000	97.972015 
1342.000000	97.977178 
1341.000000	97.982353 
1340.000000	97.987068 
1339.000000	97.990578 
1338.000000	97.993249 
1337.000000	97.995695 
1336.000000	97.997594 
1335.000000	97.998322 
1334.000000	97.998662 
1333.000000	98.000601 
1332.000000	98.004914 
1331.000000	98.010408 
1330.000000	98.015385 
1329.000000	98.018859 
1328.000000	98.020748 
1327.000000	98.022097 
1326.000000	98.024182 
1325.000000	98.026043 
1324.000000	98.025617 
1323.000000	98.022369 
1322.000000	98.017939 
1321.000000	98.014480 
1320.000000	98.013145 
1319.000000	98.013873 
1318.000000	98.015854 
1317.000000	98.018084 
1316.000000	98.019357 
1315.000000	98.018283 
1314.000000	98.014334 
1313.000000	98.009558 
1312.000000	98.007679 
1311.000000	98.010220 
1310.000000	98.014438 
1309.000000	98.016647 
1308.000000	98.016641 
1307.000000	98.017431 
1306.000000	98.020932 
1305.000000	98.025268 
1304.000000	98.027823 
1303.000000	98.028080 
1302.000000	98.026885 
1301.000000	98.024794 
1300.000000	98.022620 
1299.000000	98.022016 
1298.000000	98.023671 
1297.000000	98.025595 
1296.000000	98.024799 
1295.000000	98.021063 
1294.000000	98.017547 
1293.000000	98.017368 
1292.000000	98.020343 
1291.000000	98.023461 
1290.000000	98.024257 
1289.000000	98.022985 
1288.000000	98.021239 
1287.000000	98.019281 
1286.000000	98.015921 
1285.000000	98.011298 
1284.000000	98.008272 
1283.000000	98.009392 
1282.000000	98.013275 
1281.000000	98.015718 
1280.000000	98.014399 
1279.000000	98.011152 
1278.000000	98.009383 
1277.000000	98.010758 
1276.000000	98.014547 
1275.000000	98.018894 
1274.000000	98.021785 
1273.000000	98.022055 
1272.000000	98.020604 
1271.000000	98.019894 
1270.000000	98.021296 
1269.000000	98.023467 
1268.000000	98.024147 
1267.000000	98.022641 
1266.000000	98.019871 
1265.000000	98.017440 
1264.000000	98.017057 
1263.000000	98.019267 
1262.000000	98.022103 
1261.000000	98.022532 
1260.000000	98.020465 
1259.000000	98.019878 
1258.000000	98.023852 
1257.000000	98.029933 
1256.000000	98.032515 
1255.000000	98.029599 
1254.000000	98.025254 
1253.000000	98.024407 
1252.000000	98.026338 
1251.000000	98.025391 
1250.000000	98.018293 
1249.000000	98.008916 
1248.000000	98.004301 
1247.000000	98.006423 
1246.000000	98.009797 
1245.000000	98.008104 
1244.000000	98.001003 
1243.000000	97.992945 
1242.000000	97.987237 
1241.000000	97.983634 
1240.000000	97.980394 
1239.000000	97.975702 
1238.000000	97.967532 
1237.000000	97.954930 
1236.000000	97.939725 
1235.000000	97.924870 
1234.000000	97.910852 
1233.000000	97.895645 
1232.000000	97.878073 
1231.000000	97.858871 
1230.000000	97.838420 
1229.000000	97.815842 
1228.000000	97.790338 
1227.000000	97.760956 
1226.000000	97.725024 
1225.000000	97.679595 
1224.000000	97.625121 
1223.000000	97.565128 
1222.000000	97.501342 
1221.000000	97.431670 
1220.000000	97.354329 
1219.000000	97.271519 
1218.000000	97.187014 
1217.000000	97.101658 
1216.000000	97.012782 
1215.000000	96.917017 
1214.000000	96.813290 
1213.000000	96.704807 
1212.000000	96.597796 
1211.000000	96.495222 
1210.000000	96.391929 
1209.000000	96.280030 
1208.000000	96.159476 
1207.000000	96.038942 
1206.000000	95.924946 
1205.000000	95.814443 
1204.000000	95.700320 
1203.000000	95.580065 
1202.000000	95.456760 
1201.000000	95.334844 
1200.000000	95.217190 
1199.000000	95.103775 
1198.000000	94.991184 
1197.000000	94.875670 
1196.000000	94.757337 
1195.000000	94.638680 
1194.000000	94.519289 
1193.000000	94.395795 
1192.000000	94.267236 
1191.000000	94.136121 
1190.000000	94.003577 
1189.000000	93.867811 
1188.000000	93.728130 
1187.000000	93.586030 
1186.000000	93.441542 
1185.000000	93.292976 
1184.000000	93.140753 
1183.000000	92.986849 
1182.000000	92.830291 
1181.000000	92.668275 
1180.000000	92.501708 
1179.000000	92.333864 
1178.000000	92.163305 
1177.000000	91.984616 
1176.000000	91.796733 
1175.000000	91.603889 
1174.000000	91.407753 
1173.000000	91.206044 
1172.000000	91.000200 
1171.000000	90.796244 
1170.000000	90.596002 
1169.000000	90.395714 
1168.000000	90.196150 
1167.000000	90.006522 
1166.000000	89.836587 
1165.000000	89.693827 
1164.000000	89.590465 
1163.000000	89.541971 
1162.000000	89.552311 
1161.000000	89.606390 
1160.000000	89.679144 
1159.000000	89.745654 
1158.000000	89.782952 
1157.000000	89.773743 
1156.000000	89.714174 
1155.000000	89.612838 
1154.000000	89.480378 
1153.000000	89.325527 
1152.000000	89.160582 
1151.000000	88.999914 
1150.000000	88.848570 
1149.000000	88.700460 
1148.000000	88.551028 
1147.000000	88.403207 
1146.000000	88.258348 
1145.000000	88.111540 
1144.000000	87.960587 
1143.000000	87.810620 
1142.000000	87.665039 
1141.000000	87.520191 
1140.000000	87.373346 
1139.000000	87.227629 
1138.000000	87.085100 
1137.000000	86.943157 
1136.000000	86.801191 
1135.000000	86.662000 
1134.000000	86.523305 
1133.000000	86.377218 
1132.000000	86.221908 
1131.000000	86.064816 
1130.000000	85.911160 
1129.000000	85.758562 
1128.000000	85.605729 
1127.000000	85.455626 
1126.000000	85.306407 
1125.000000	85.150315 
1124.000000	84.986016 
1123.000000	84.821635 
1122.000000	84.661451 
1121.000000	84.500543 
1120.000000	84.336891 
1119.000000	84.176827 
1118.000000	84.023276 
1117.000000	83.870886 
1116.000000	83.718128 
1115.000000	83.572002 
1114.000000	83.435263 
1113.000000	83.301341 
1112.000000	83.167277 
1111.000000	83.038789 
1110.000000	82.917298 
1109.000000	82.795074 
1108.000000	82.667710 
1107.000000	82.538527 
1106.000000	82.407740 
1105.000000	82.270946 
1104.000000	82.131072 
1103.000000	81.997516 
1102.000000	81.869941 
1101.000000	81.738554 
1100.000000	81.602913 
1099.000000	81.473830 
1098.000000	81.355615 
1097.000000	81.240805 
1096.000000	81.126505 
1095.000000	81.018176 
1094.000000	80.914395 
1093.000000	80.806177 
1092.000000	80.695846 
1091.000000	80.598301 
1090.000000	80.518543 
1089.000000	80.445433 
1088.000000	80.371944 
1087.000000	80.303371 
1086.000000	80.241269 
1085.000000	80.178308 
1084.000000	80.114276 
1083.000000	80.058531 
1082.000000	80.011217 
1081.000000	79.960245 
1080.000000	79.901947 
1079.000000	79.846201 
1078.000000	79.795846 
1077.000000	79.739243 
1076.000000	79.668262 
1075.000000	79.585289 
1074.000000	79.488262 
1073.000000	79.367764 
1072.000000	79.223035 
1071.000000	79.061389 
1070.000000	78.877410 
1069.000000	78.653166 
1068.000000	78.384917 
1067.000000	78.090831 
1066.000000	77.787480 
1065.000000	77.478285 
1064.000000	77.170030 
1063.000000	76.876756 
1062.000000	76.597858 
1061.000000	76.314468 
1060.000000	76.017811 
1059.000000	75.721352 
1058.000000	75.436663 
1057.000000	75.157884 
1056.000000	74.878785 
1055.000000	74.604025 
1054.000000	74.333771 
1053.000000	74.057150 
1052.000000	73.771152 
1051.000000	73.486314 
1050.000000	73.204394 
1049.000000	72.912869 
1048.000000	72.609864 
1047.000000	72.309434 
1046.000000	72.015462 
1045.000000	71.715964 
1044.000000	71.408302 
1043.000000	71.104805 
1042.000000	70.808034 
1041.000000	70.505645 
1040.000000	70.196869 
1039.000000	69.899354 
1038.000000	69.621927 
1037.000000	69.355263 
1036.000000	69.096968 
1035.000000	68.860410 
1034.000000	68.650301 
1033.000000	68.454574 
1032.000000	68.268369 
1031.000000	68.101326 
1030.000000	67.954156 
1029.000000	67.814081 
1028.000000	67.680637 
1027.000000	67.569285 
1026.000000	67.481752 
1025.000000	67.399304 
1024.000000	67.312762 
1023.000000	67.232306 
1022.000000	67.160185 
1021.000000	67.081811 
1020.000000	66.992193 
1019.000000	66.904110 
1018.000000	66.822031 
1017.000000	66.734848 
1016.000000	66.641961 
1015.000000	66.558939 
1014.000000	66.488969 
1013.000000	66.415997 
1012.000000	66.334555 
1011.000000	66.259629 
1010.000000	66.198958 
1009.000000	66.142971 
1008.000000	66.090102 
1007.000000	66.054418 
1006.000000	66.039297 
1005.000000	66.030455 
1004.000000	66.023418 
1003.000000	66.031052 
1002.000000	66.055754 
1001.000000	66.081951 
1000.000000	66.105296 
999.000000	 66.142110 
998.000000	 66.200049 
997.000000	 66.265491 
996.000000	 66.329430 
995.000000	 66.400833 
994.000000	 66.485120 
993.000000	 66.573919 
992.000000	 66.664458 
991.000000	 66.765235 
990.000000	 66.875426 
989.000000	 66.983007 
988.000000	 67.089664 
987.000000	 67.212709 
986.000000	 67.356578 
985.000000	 67.508125 
984.000000	 67.665359 
983.000000	 67.843455 
982.000000	 68.045276 
981.000000	 68.253342 
980.000000	 68.459277 
979.000000	 68.675240 
978.000000	 68.907972 
977.000000	 69.147815 
976.000000	 69.391919 
975.000000	 69.652539 
974.000000	 69.932783 
973.000000	 70.218483 
972.000000	 70.503268 
971.000000	 70.798331 
970.000000	 71.108325 
969.000000	 71.420400 
968.000000	 71.726122 
967.000000	 72.032834 
966.000000	 72.345022 
965.000000	 72.655467 
964.000000	 72.962657 
963.000000	 73.276415 
962.000000	 73.598395 
961.000000	 73.916123 
960.000000	 74.222966 
959.000000	 74.525232 
958.000000	 74.824383 
957.000000	 75.111994 
956.000000	 75.387907 
955.000000	 75.663838 
954.000000	 75.943081 
953.000000	 76.215204 
952.000000	 76.475648 
951.000000	 76.731356 
950.000000	 76.982593 
949.000000	 77.219018 
948.000000	 77.439098 
947.000000	 77.654073 
946.000000	 77.867085 
945.000000	 78.067138 
944.000000	 78.249758 
943.000000	 78.425594 
942.000000	 78.602677 
941.000000	 78.777219 
940.000000	 78.947651 
939.000000	 79.120619 
938.000000	 79.297624 
937.000000	 79.472163 
936.000000	 79.644857 
935.000000	 79.825107 
934.000000	 80.013805 
933.000000	 80.201053 
932.000000	 80.384643 
931.000000	 80.573618 
930.000000	 80.769726 
929.000000	 80.962380 
928.000000	 81.146069 
927.000000	 81.326103 
926.000000	 81.503478 
925.000000	 81.670523 
924.000000	 81.825347 
923.000000	 81.974816 
922.000000	 82.120265 
921.000000	 82.256179 
920.000000	 82.385115 
919.000000	 82.516797 
918.000000	 82.649698 
917.000000	 82.771049 
916.000000	 82.879153 
915.000000	 82.989511 
914.000000	 83.115514 
913.000000	 83.259089 
912.000000	 83.422480 
911.000000	 83.611481 
910.000000	 83.823424 
909.000000	 84.049045 
908.000000	 84.289459 
907.000000	 84.554662 
906.000000	 84.843558 
905.000000	 85.142859 
904.000000	 85.447047 
903.000000	 85.761006 
902.000000	 86.081396 
901.000000	 86.394761 
900.000000	 86.697302 
899.000000	 86.999053 
898.000000	 87.305560 
897.000000	 87.611285 
896.000000	 87.912300 
895.000000	 88.208548 
894.000000	 88.492406 
893.000000	 88.752521 
892.000000	 88.991230 
891.000000	 89.222193 
890.000000	 89.448615 
889.000000	 89.658906 
888.000000	 89.844992 
887.000000	 90.009420 
886.000000	 90.154289 
885.000000	 90.279581 
884.000000	 90.392992 
883.000000	 90.504415 
882.000000	 90.610470 
881.000000	 90.703237 
880.000000	 90.794467 
879.000000	 90.909454 
878.000000	 91.054292 
877.000000	 91.211753 
876.000000	 91.373270 
875.000000	 91.551248 
874.000000	 91.754619 
873.000000	 91.977103 
872.000000	 92.217009 
871.000000	 92.484382 
870.000000	 92.778197 
869.000000	 93.076335 
868.000000	 93.357869 
867.000000	 93.619401 
866.000000	 93.864007 
865.000000	 94.091903 
864.000000	 94.309257 
863.000000	 94.529391 
862.000000	 94.755298 
861.000000	 94.973480 
860.000000	 95.172880 
859.000000	 95.358405 
858.000000	 95.539858 
857.000000	 95.718999 
856.000000	 95.893275 
855.000000	 96.060943 
854.000000	 96.216759 
853.000000	 96.353150 
852.000000	 96.470923 
851.000000	 96.579901 
850.000000	 96.686416 
849.000000	 96.790022 
848.000000	 96.893059 
847.000000	 97.000212 
846.000000	 97.106547 
845.000000	 97.199770 
844.000000	 97.277316 
843.000000	 97.348052 
842.000000	 97.414700 
841.000000	 97.468482 
840.000000	 97.503977 
839.000000	 97.524745 
838.000000	 97.531427 
837.000000	 97.520268 
836.000000	 97.498592 
835.000000	 97.486151 
834.000000	 97.493279 
833.000000	 97.510628 
832.000000	 97.527232 
831.000000	 97.545025 
830.000000	 97.568442 
829.000000	 97.594602 
828.000000	 97.624471 
827.000000	 97.670781 
826.000000	 97.742247 
825.000000	 97.829419 
824.000000	 97.915644 
823.000000	 97.991078 
822.000000	 98.049058 
821.000000	 98.083356 
820.000000	 98.097148 
819.000000	 98.100945 
818.000000	 98.093641 
817.000000	 98.056331 
816.000000	 97.971500 
815.000000	 97.839292 
814.000000	 97.668573 
813.000000	 97.459272 
812.000000	 97.198542 
811.000000	 96.866069 
810.000000	 96.438121 
809.000000	 95.896190 
808.000000	 95.240767 
807.000000	 94.493128 
806.000000	 93.680809 
805.000000	 92.828831 
804.000000	 91.966926 
803.000000	 91.130679 
802.000000	 90.347879 
801.000000	 89.637589 
800.000000	 89.028432 
799.000000	 88.558606 
798.000000	 88.247285 
797.000000	 88.081669 
796.000000	 88.037395 
795.000000	 88.091438 
794.000000	 88.210429 
793.000000	 88.351589 
792.000000	 88.486448 
791.000000	 88.606452 
790.000000	 88.700807 
789.000000	 88.748971 
788.000000	 88.739419 
787.000000	 88.674177 
786.000000	 88.548527 
785.000000	 88.347282 
784.000000	 88.070044 
783.000000	 87.742512 
782.000000	 87.396619 
781.000000	 87.059072 
780.000000	 86.764625 
779.000000	 86.555268 
778.000000	 86.453272 
777.000000	 86.453354 
776.000000	 86.547774 
775.000000	 86.735713 
774.000000	 87.000203 
773.000000	 87.301719 
772.000000	 87.607108 
771.000000	 87.905396 
770.000000	 88.188546 
769.000000	 88.440597 
768.000000	 88.655497 
767.000000	 88.843611 
766.000000	 89.010557 
765.000000	 89.150510 
764.000000	 89.270025 
763.000000	 89.395993 
762.000000	 89.546685 
761.000000	 89.713551 
760.000000	 89.882877 
759.000000	 90.056273 
758.000000	 90.238343 
757.000000	 90.423918 
756.000000	 90.611084 
755.000000	 90.809270 
754.000000	 91.020144 
753.000000	 91.224960 
752.000000	 91.403658 
751.000000	 91.554589 
750.000000	 91.687209 
749.000000	 91.809612 
748.000000	 91.931336 
747.000000	 92.062561 
746.000000	 92.200697 
745.000000	 92.332178 
744.000000	 92.456718 
743.000000	 92.595049 
742.000000	 92.762898 
741.000000	 92.951623 
740.000000	 93.143976 
739.000000	 93.334289 
738.000000	 93.522960 
737.000000	 93.704312 
736.000000	 93.870721 
735.000000	 94.019007 
734.000000	 94.145866 
733.000000	 94.247302 
732.000000	 94.327448 
731.000000	 94.397093 
730.000000	 94.459238 
729.000000	 94.506848 
728.000000	 94.540552 
727.000000	 94.575557 
726.000000	 94.625091 
725.000000	 94.691796 
724.000000	 94.778270 
723.000000	 94.888981 
722.000000	 95.016420 
721.000000	 95.141591 
720.000000	 95.255264 
719.000000	 95.363639 
718.000000	 95.468695 
717.000000	 95.562576 
716.000000	 95.645426 
715.000000	 95.729490 
714.000000	 95.819468 
713.000000	 95.906407 
712.000000	 95.989299 
711.000000	 96.083117 
710.000000	 96.194301 
709.000000	 96.307291 
708.000000	 96.404072 
707.000000	 96.480436 
706.000000	 96.531872 
705.000000	 96.543949 
704.000000	 96.509760 
703.000000	 96.436009 
702.000000	 96.319203 
701.000000	 96.132143 
700.000000	 95.846679 
699.000000	 95.462079 
698.000000	 95.005058 
697.000000	 94.525062 
696.000000	 94.100696 
695.000000	 93.819458 
694.000000	 93.728742 
693.000000	 93.811136 
692.000000	 94.011959 
691.000000	 94.281038 
690.000000	 94.580404 
689.000000	 94.876545 
688.000000	 95.147461 
687.000000	 95.387404 
686.000000	 95.595656 
685.000000	 95.770551 
684.000000	 95.919851 
683.000000	 96.060814 
682.000000	 96.198884 
681.000000	 96.323253 
680.000000	 96.430893 
679.000000	 96.537152 
678.000000	 96.648697 
677.000000	 96.747332 
676.000000	 96.829317 
675.000000	 96.915971 
674.000000	 97.017067 
673.000000	 97.112773 
672.000000	 97.192228 
671.000000	 97.288843 
670.000000	 97.464671 
669.000000	 97.759468 
668.000000	 98.045906 
667.000000	 98.098906 
666.000000	 97.992337 
665.000000	 97.889578 
664.000000	 97.830722 
663.000000	 97.827988 
662.000000	 97.882614 
661.000000	 97.960791 
660.000000	 98.029807 
659.000000	 98.090009 
658.000000	 98.146367 
657.000000	 98.173495 
656.000000	 98.151942 
655.000000	 98.095992 
654.000000	 98.029501 
653.000000	 97.961578 
652.000000	 97.908533 
651.000000	 97.904037 
650.000000	 97.953199 

