4000.000000	97.361668 
3999.000000	97.361354 
3998.000000	97.358255 
3997.000000	97.353346 
3996.000000	97.348777 
3995.000000	97.346133 
3994.000000	97.345573 
3993.000000	97.346085 
3992.000000	97.346431 
3991.000000	97.346164 
3990.000000	97.345688 
3989.000000	97.345551 
3988.000000	97.345902 
3987.000000	97.346689 
3986.000000	97.348042 
3985.000000	97.350051 
3984.000000	97.352209 
3983.000000	97.353613 
3982.000000	97.353972 
3981.000000	97.353913 
3980.000000	97.353908 
3979.000000	97.353446 
3978.000000	97.351867 
3977.000000	97.349639 
3976.000000	97.348123 
3975.000000	97.348036 
3974.000000	97.348699 
3973.000000	97.348852 
3972.000000	97.347838 
3971.000000	97.345958 
3970.000000	97.343963 
3969.000000	97.342551 
3968.000000	97.342231 
3967.000000	97.343221 
3966.000000	97.345285 
3965.000000	97.347652 
3964.000000	97.349135 
3963.000000	97.348762 
3962.000000	97.346568 
3961.000000	97.343541 
3960.000000	97.340751 
3959.000000	97.338725 
3958.000000	97.337468 
3957.000000	97.336815 
3956.000000	97.336458 
3955.000000	97.335744 
3954.000000	97.334041 
3953.000000	97.331263 
3952.000000	97.327972 
3951.000000	97.324940 
3950.000000	97.322582 
3949.000000	97.320986 
3948.000000	97.320067 
3947.000000	97.319720 
3946.000000	97.320019 
3945.000000	97.321195 
3944.000000	97.323170 
3943.000000	97.325081 
3942.000000	97.325981 
3941.000000	97.325935 
3940.000000	97.325906 
3939.000000	97.326677 
3938.000000	97.327953 
3937.000000	97.328616 
3936.000000	97.327785 
3935.000000	97.325438 
3934.000000	97.322436 
3933.000000	97.319787 
3932.000000	97.317946 
3931.000000	97.316663 
3930.000000	97.315715 
3929.000000	97.315548 
3928.000000	97.316526 
3927.000000	97.318135 
3926.000000	97.319213 
3925.000000	97.318848 
3924.000000	97.317082 
3923.000000	97.314760 
3922.000000	97.312851 
3921.000000	97.312035 
3920.000000	97.312450 
3919.000000	97.313581 
3918.000000	97.314527 
3917.000000	97.314644 
3916.000000	97.314010 
3915.000000	97.313118 
3914.000000	97.312445 
3913.000000	97.312211 
3912.000000	97.312434 
3911.000000	97.313097 
3910.000000	97.313955 
3909.000000	97.314563 
3908.000000	97.314573 
3907.000000	97.313858 
3906.000000	97.312637 
3905.000000	97.311127 
3904.000000	97.309332 
3903.000000	97.307271 
3902.000000	97.305218 
3901.000000	97.303715 
3900.000000	97.303165 
3899.000000	97.303405 
3898.000000	97.303934 
3897.000000	97.304369 
3896.000000	97.304610 
3895.000000	97.304749 
3894.000000	97.304835 
3893.000000	97.304782 
3892.000000	97.304411 
3891.000000	97.303611 
3890.000000	97.302458 
3889.000000	97.301118 
3888.000000	97.299850 
3887.000000	97.298974 
3886.000000	97.298659 
3885.000000	97.298636 
3884.000000	97.298346 
3883.000000	97.297515 
3882.000000	97.296436 
3881.000000	97.295711 
3880.000000	97.295602 
3879.000000	97.295743 
3878.000000	97.295579 
3877.000000	97.294992 
3876.000000	97.294368 
3875.000000	97.294152 
3874.000000	97.294291 
3873.000000	97.294200 
3872.000000	97.293448 
3871.000000	97.292220 
3870.000000	97.291140 
3869.000000	97.290564 
3868.000000	97.290149 
3867.000000	97.289419 
3866.000000	97.288613 
3865.000000	97.288456 
3864.000000	97.289277 
3863.000000	97.290474 
3862.000000	97.291151 
3861.000000	97.291270 
3860.000000	97.291455 
3859.000000	97.291945 
3858.000000	97.292185 
3857.000000	97.291451 
3856.000000	97.289621 
3855.000000	97.287333 
3854.000000	97.285394 
3853.000000	97.284115 
3852.000000	97.283399 
3851.000000	97.283218 
3850.000000	97.283547 
3849.000000	97.284404 
3848.000000	97.285635 
3847.000000	97.286890 
3846.000000	97.287723 
3845.000000	97.287968 
3844.000000	97.287942 
3843.000000	97.287935 
3842.000000	97.287748 
3841.000000	97.287195 
3840.000000	97.286471 
3839.000000	97.286000 
3838.000000	97.285963 
3837.000000	97.286070 
3836.000000	97.286009 
3835.000000	97.285785 
3834.000000	97.285641 
3833.000000	97.285831 
3832.000000	97.286373 
3831.000000	97.287007 
3830.000000	97.287440 
3829.000000	97.287582 
3828.000000	97.287647 
3827.000000	97.287902 
3826.000000	97.288285 
3825.000000	97.288457 
3824.000000	97.288226 
3823.000000	97.287753 
3822.000000	97.287417 
3821.000000	97.287385 
3820.000000	97.287475 
3819.000000	97.287469 
3818.000000	97.287363 
3817.000000	97.287311 
3816.000000	97.287433 
3815.000000	97.287678 
3814.000000	97.287890 
3813.000000	97.287998 
3812.000000	97.288071 
3811.000000	97.288224 
3810.000000	97.288459 
3809.000000	97.288645 
3808.000000	97.288698 
3807.000000	97.288693 
3806.000000	97.288699 
3805.000000	97.288553 
3804.000000	97.287979 
3803.000000	97.287056 
3802.000000	97.286412 
3801.000000	97.286488 
3800.000000	97.286951 
3799.000000	97.287118 
3798.000000	97.286995 
3797.000000	97.287281 
3796.000000	97.288409 
3795.000000	97.289887 
3794.000000	97.290795 
3793.000000	97.290802 
3792.000000	97.290369 
3791.000000	97.290222 
3790.000000	97.290523 
3789.000000	97.290736 
3788.000000	97.290380 
3787.000000	97.289645 
3786.000000	97.289312 
3785.000000	97.290024 
3784.000000	97.291465 
3783.000000	97.292321 
3782.000000	97.291336 
3781.000000	97.288707 
3780.000000	97.286462 
3779.000000	97.286621 
3778.000000	97.288789 
3777.000000	97.290691 
3776.000000	97.290943 
3775.000000	97.290265 
3774.000000	97.289822 
3773.000000	97.289312 
3772.000000	97.287911 
3771.000000	97.286050 
3770.000000	97.284974 
3769.000000	97.284871 
3768.000000	97.284429 
3767.000000	97.282795 
3766.000000	97.281345 
3765.000000	97.281969 
3764.000000	97.284439 
3763.000000	97.286350 
3762.000000	97.286165 
3761.000000	97.284895 
3760.000000	97.283675 
3759.000000	97.282088 
3758.000000	97.278696 
3757.000000	97.272887 
3756.000000	97.265224 
3755.000000	97.256098 
3754.000000	97.246283 
3753.000000	97.237511 
3752.000000	97.231090 
3751.000000	97.226616 
3750.000000	97.223555 
3749.000000	97.223322 
3748.000000	97.225451 
3747.000000	97.226391 
3746.000000	97.225284 
3745.000000	97.225893 
3744.000000	97.231663 
3743.000000	97.237735 
3742.000000	97.236379 
3741.000000	97.227825 
3740.000000	97.219079 
3739.000000	97.216361 
3738.000000	97.219074 
3737.000000	97.221941 
3736.000000	97.223848 
3735.000000	97.227950 
3734.000000	97.234886 
3733.000000	97.241579 
3732.000000	97.246462 
3731.000000	97.250046 
3730.000000	97.250422 
3729.000000	97.244979 
3728.000000	97.236249 
3727.000000	97.230826 
3726.000000	97.231626 
3725.000000	97.234562 
3724.000000	97.235677 
3723.000000	97.236204 
3722.000000	97.239050 
3721.000000	97.243971 
3720.000000	97.246852 
3719.000000	97.245793 
3718.000000	97.243270 
3717.000000	97.241312 
3716.000000	97.238511 
3715.000000	97.230978 
3714.000000	97.216855 
3713.000000	97.198993 
3712.000000	97.182304 
3711.000000	97.169521 
3710.000000	97.159705 
3709.000000	97.151239 
3708.000000	97.143733 
3707.000000	97.136461 
3706.000000	97.128126 
3705.000000	97.117950 
3704.000000	97.106470 
3703.000000	97.094477 
3702.000000	97.080656 
3701.000000	97.062597 
3700.000000	97.039890 
3699.000000	97.016069 
3698.000000	96.997450 
3697.000000	96.987927 
3696.000000	96.985147 
3695.000000	96.982676 
3694.000000	96.976757 
3693.000000	96.969995 
3692.000000	96.967326 
3691.000000	96.969341 
3690.000000	96.970089 
3689.000000	96.964692 
3688.000000	96.956200 
3687.000000	96.949396 
3686.000000	96.944026 
3685.000000	96.937923 
3684.000000	96.930769 
3683.000000	96.923403 
3682.000000	96.915128 
3681.000000	96.903782 
3680.000000	96.887876 
3679.000000	96.865230 
3678.000000	96.834416 
3677.000000	96.799235 
3676.000000	96.768642 
3675.000000	96.747916 
3674.000000	96.730974 
3673.000000	96.708582 
3672.000000	96.680313 
3671.000000	96.656155 
3670.000000	96.642835 
3669.000000	96.633276 
3668.000000	96.617561 
3667.000000	96.594972 
3666.000000	96.571553 
3665.000000	96.551875 
3664.000000	96.534570 
3663.000000	96.516044 
3662.000000	96.494480 
3661.000000	96.469801 
3660.000000	96.442209 
3659.000000	96.411441 
3658.000000	96.378648 
3657.000000	96.346077 
3656.000000	96.314470 
3655.000000	96.282194 
3654.000000	96.246785 
3653.000000	96.208114 
3652.000000	96.168993 
3651.000000	96.131712 
3650.000000	96.094318 
3649.000000	96.054773 
3648.000000	96.018977 
3647.000000	95.994755 
3646.000000	95.982110 
3645.000000	95.975223 
3644.000000	95.969035 
3643.000000	95.961663 
3642.000000	95.951643 
3641.000000	95.936270 
3640.000000	95.914356 
3639.000000	95.888055 
3638.000000	95.860400 
3637.000000	95.831614 
3636.000000	95.800549 
3635.000000	95.768341 
3634.000000	95.737679 
3633.000000	95.708710 
3632.000000	95.678697 
3631.000000	95.647347 
3630.000000	95.619764 
3629.000000	95.599325 
3628.000000	95.580271 
3627.000000	95.557515 
3626.000000	95.534581 
3625.000000	95.519104 
3624.000000	95.515231 
3623.000000	95.520086 
3622.000000	95.527299 
3621.000000	95.532883 
3620.000000	95.535638 
3619.000000	95.534641 
3618.000000	95.530320 
3617.000000	95.526879 
3616.000000	95.531336 
3615.000000	95.548898 
3614.000000	95.577905 
3613.000000	95.609333 
3612.000000	95.633136 
3611.000000	95.645561 
3610.000000	95.651129 
3609.000000	95.658104 
3608.000000	95.670812 
3607.000000	95.687716 
3606.000000	95.706033 
3605.000000	95.725840 
3604.000000	95.748609 
3603.000000	95.773048 
3602.000000	95.794586 
3601.000000	95.808932 
3600.000000	95.815174 
3599.000000	95.816794 
3598.000000	95.820165 
3597.000000	95.830147 
3596.000000	95.847017 
3595.000000	95.865681 
3594.000000	95.879256 
3593.000000	95.885006 
3592.000000	95.885301 
3591.000000	95.884079 
3590.000000	95.884689 
3589.000000	95.889429 
3588.000000	95.898179 
3587.000000	95.907766 
3586.000000	95.915242 
3585.000000	95.921033 
3584.000000	95.927898 
3583.000000	95.937390 
3582.000000	95.948557 
3581.000000	95.958506 
3580.000000	95.964430 
3579.000000	95.965328 
3578.000000	95.962562 
3577.000000	95.958914 
3576.000000	95.956509 
3575.000000	95.955872 
3574.000000	95.956039 
3573.000000	95.955709 
3572.000000	95.953779 
3571.000000	95.949245 
3570.000000	95.941855 
3569.000000	95.933783 
3568.000000	95.929318 
3567.000000	95.931059 
3566.000000	95.937132 
3565.000000	95.943569 
3564.000000	95.948208 
3563.000000	95.951592 
3562.000000	95.955003 
3561.000000	95.958373 
3560.000000	95.959855 
3559.000000	95.957474 
3558.000000	95.951510 
3557.000000	95.945069 
3556.000000	95.941769 
3555.000000	95.943065 
3554.000000	95.947748 
3553.000000	95.953079 
3552.000000	95.956372 
3551.000000	95.956247 
3550.000000	95.953323 
3549.000000	95.949960 
3548.000000	95.948469 
3547.000000	95.948882 
3546.000000	95.949213 
3545.000000	95.948179 
3544.000000	95.946898 
3543.000000	95.947243 
3542.000000	95.949558 
3541.000000	95.952718 
3540.000000	95.955536 
3539.000000	95.957475 
3538.000000	95.958428 
3537.000000	95.958415 
3536.000000	95.957650 
3535.000000	95.956500 
3534.000000	95.955356 
3533.000000	95.954573 
3532.000000	95.954404 
3531.000000	95.954919 
3530.000000	95.955918 
3529.000000	95.956965 
3528.000000	95.957640 
3527.000000	95.957801 
3526.000000	95.957641 
3525.000000	95.957577 
3524.000000	95.957967 
3523.000000	95.958845 
3522.000000	95.959926 
3521.000000	95.960902 
3520.000000	95.961756 
3519.000000	95.962669 
3518.000000	95.963649 
3517.000000	95.964355 
3516.000000	95.964459 
3515.000000	95.964111 
3514.000000	95.963891 
3513.000000	95.964244 
3512.000000	95.965011 
3511.000000	95.965522 
3510.000000	95.965185 
3509.000000	95.964059 
3508.000000	95.962927 
3507.000000	95.962687 
3506.000000	95.963646 
3505.000000	95.965301 
3504.000000	95.966691 
3503.000000	95.967138 
3502.000000	95.966736 
3501.000000	95.966212 
3500.000000	95.966343 
3499.000000	95.967458 
3498.000000	95.969275 
3497.000000	95.971026 
3496.000000	95.971850 
3495.000000	95.971389 
3494.000000	95.970072 
3493.000000	95.968623 
3492.000000	95.967178 
3491.000000	95.965177 
3490.000000	95.962417 
3489.000000	95.959873 
3488.000000	95.958806 
3487.000000	95.959191 
3486.000000	95.959849 
3485.000000	95.960124 
3484.000000	95.960612 
3483.000000	95.961896 
3482.000000	95.963227 
3481.000000	95.963159 
3480.000000	95.961084 
3479.000000	95.957565 
3478.000000	95.953539 
3477.000000	95.949726 
3476.000000	95.946495 
3475.000000	95.943797 
3474.000000	95.941355 
3473.000000	95.939239 
3472.000000	95.938115 
3471.000000	95.938523 
3470.000000	95.939926 
3469.000000	95.940918 
3468.000000	95.940395 
3467.000000	95.938321 
3466.000000	95.935473 
3465.000000	95.932524 
3464.000000	95.929434 
3463.000000	95.925612 
3462.000000	95.920662 
3461.000000	95.915088 
3460.000000	95.910051 
3459.000000	95.906182 
3458.000000	95.902850 
3457.000000	95.898852 
3456.000000	95.893846 
3455.000000	95.888756 
3454.000000	95.884856 
3453.000000	95.882683 
3452.000000	95.881852 
3451.000000	95.881716 
3450.000000	95.881877 
3449.000000	95.882040 
3448.000000	95.881478 
3447.000000	95.879077 
3446.000000	95.874265 
3445.000000	95.867962 
3444.000000	95.862238 
3443.000000	95.858559 
3442.000000	95.856466 
3441.000000	95.854120 
3440.000000	95.850226 
3439.000000	95.845174 
3438.000000	95.840299 
3437.000000	95.836418 
3436.000000	95.833432 
3435.000000	95.830960 
3434.000000	95.828842 
3433.000000	95.826944 
3432.000000	95.824961 
3431.000000	95.822772 
3430.000000	95.820656 
3429.000000	95.818854 
3428.000000	95.817038 
3427.000000	95.814670 
3426.000000	95.811992 
3425.000000	95.810112 
3424.000000	95.809725 
3423.000000	95.809914 
3422.000000	95.808745 
3421.000000	95.805293 
3420.000000	95.800694 
3419.000000	95.796982 
3418.000000	95.795055 
3417.000000	95.794258 
3416.000000	95.793570 
3415.000000	95.792555 
3414.000000	95.791160 
3413.000000	95.789242 
3412.000000	95.786811 
3411.000000	95.784489 
3410.000000	95.783210 
3409.000000	95.783390 
3408.000000	95.784472 
3407.000000	95.785297 
3406.000000	95.784957 
3405.000000	95.783402 
3404.000000	95.781407 
3403.000000	95.779911 
3402.000000	95.779327 
3401.000000	95.779455 
3400.000000	95.779829 
3399.000000	95.779949 
3398.000000	95.779374 
3397.000000	95.778007 
3396.000000	95.776471 
3395.000000	95.775830 
3394.000000	95.776610 
3393.000000	95.778172 
3392.000000	95.779249 
3391.000000	95.779202 
3390.000000	95.778584 
3389.000000	95.778492 
3388.000000	95.779619 
3387.000000	95.781960 
3386.000000	95.785006 
3385.000000	95.787837 
3384.000000	95.789377 
3383.000000	95.789120 
3382.000000	95.787850 
3381.000000	95.787226 
3380.000000	95.788183 
3379.000000	95.790046 
3378.000000	95.791548 
3377.000000	95.792538 
3376.000000	95.793975 
3375.000000	95.796275 
3374.000000	95.798525 
3373.000000	95.799679 
3372.000000	95.800025 
3371.000000	95.800939 
3370.000000	95.803352 
3369.000000	95.806917 
3368.000000	95.810527 
3367.000000	95.813299 
3366.000000	95.815006 
3365.000000	95.815948 
3364.000000	95.816636 
3363.000000	95.817457 
3362.000000	95.818459 
3361.000000	95.819475 
3360.000000	95.820577 
3359.000000	95.822252 
3358.000000	95.824952 
3357.000000	95.828529 
3356.000000	95.832234 
3355.000000	95.835374 
3354.000000	95.837886 
3353.000000	95.840189 
3352.000000	95.842629 
3351.000000	95.845138 
3350.000000	95.847417 
3349.000000	95.849330 
3348.000000	95.851117 
3347.000000	95.853222 
3346.000000	95.855901 
3345.000000	95.858949 
3344.000000	95.861785 
3343.000000	95.863943 
3342.000000	95.865512 
3341.000000	95.867092 
3340.000000	95.869200 
3339.000000	95.871734 
3338.000000	95.874161 
3337.000000	95.876098 
3336.000000	95.877639 
3335.000000	95.879172 
3334.000000	95.881007 
3333.000000	95.883164 
3332.000000	95.885457 
3331.000000	95.887693 
3330.000000	95.889823 
3329.000000	95.891942 
3328.000000	95.894215 
3327.000000	95.896760 
3326.000000	95.899546 
3325.000000	95.902350 
3324.000000	95.904827 
3323.000000	95.906755 
3322.000000	95.908236 
3321.000000	95.909704 
3320.000000	95.911611 
3319.000000	95.914097 
3318.000000	95.916986 
3317.000000	95.920002 
3316.000000	95.922951 
3315.000000	95.925725 
3314.000000	95.928278 
3313.000000	95.930663 
3312.000000	95.933027 
3311.000000	95.935502 
3310.000000	95.938129 
3309.000000	95.940861 
3308.000000	95.943577 
3307.000000	95.946080 
3306.000000	95.948205 
3305.000000	95.949999 
3304.000000	95.951772 
3303.000000	95.953913 
3302.000000	95.956582 
3301.000000	95.959601 
3300.000000	95.962554 
3299.000000	95.965056 
3298.000000	95.967019 
3297.000000	95.968747 
3296.000000	95.970785 
3295.000000	95.973511 
3294.000000	95.976912 
3293.000000	95.980679 
3292.000000	95.984469 
3291.000000	95.988067 
3290.000000	95.991356 
3289.000000	95.994270 
3288.000000	95.996826 
3287.000000	95.999172 
3286.000000	96.001511 
3285.000000	96.003964 
3284.000000	96.006533 
3283.000000	96.009222 
3282.000000	96.012116 
3281.000000	96.015240 
3280.000000	96.018393 
3279.000000	96.021291 
3278.000000	96.023955 
3277.000000	96.026761 
3276.000000	96.029988 
3275.000000	96.033474 
3274.000000	96.036830 
3273.000000	96.039922 
3272.000000	96.042969 
3271.000000	96.046200 
3270.000000	96.049585 
3269.000000	96.052905 
3268.000000	96.055988 
3267.000000	96.058837 
3266.000000	96.061614 
3265.000000	96.064541 
3264.000000	96.067734 
3263.000000	96.071102 
3262.000000	96.074406 
3261.000000	96.077493 
3260.000000	96.080441 
3259.000000	96.083452 
3258.000000	96.086616 
3257.000000	96.089875 
3256.000000	96.093160 
3255.000000	96.096431 
3254.000000	96.099601 
3253.000000	96.102573 
3252.000000	96.105397 
3251.000000	96.108289 
3250.000000	96.111407 
3249.000000	96.114653 
3248.000000	96.117791 
3247.000000	96.120765 
3246.000000	96.123794 
3245.000000	96.127111 
3244.000000	96.130699 
3243.000000	96.134302 
3242.000000	96.137661 
3241.000000	96.140697 
3240.000000	96.143526 
3239.000000	96.146396 
3238.000000	96.149592 
3237.000000	96.153294 
3236.000000	96.157479 
3235.000000	96.161865 
3234.000000	96.166023 
3233.000000	96.169614 
3232.000000	96.172568 
3231.000000	96.175111 
3230.000000	96.177612 
3229.000000	96.180306 
3228.000000	96.183241 
3227.000000	96.186441 
3226.000000	96.190042 
3225.000000	96.194162 
3224.000000	96.198670 
3223.000000	96.203209 
3222.000000	96.207484 
3221.000000	96.211451 
3220.000000	96.215229 
3219.000000	96.218863 
3218.000000	96.222263 
3217.000000	96.225349 
3216.000000	96.228211 
3215.000000	96.231164 
3214.000000	96.234569 
3213.000000	96.238550 
3212.000000	96.242834 
3211.000000	96.246937 
3210.000000	96.250582 
3209.000000	96.253892 
3208.000000	96.257172 
3207.000000	96.260587 
3206.000000	96.264085 
3205.000000	96.267589 
3204.000000	96.271141 
3203.000000	96.274866 
3202.000000	96.278826 
3201.000000	96.282911 
3200.000000	96.286881 
3199.000000	96.290576 
3198.000000	96.294103 
3197.000000	96.297720 
3196.000000	96.301535 
3195.000000	96.305417 
3194.000000	96.309254 
3193.000000	96.313161 
3192.000000	96.317319 
3191.000000	96.321645 
3190.000000	96.325750 
3189.000000	96.329274 
3188.000000	96.332208 
3187.000000	96.334963 
3186.000000	96.338109 
3185.000000	96.341938 
3184.000000	96.346295 
3183.000000	96.350784 
3182.000000	96.355192 
3181.000000	96.359556 
3180.000000	96.363830 
3179.000000	96.367774 
3178.000000	96.371295 
3177.000000	96.374651 
3176.000000	96.378138 
3175.000000	96.381784 
3174.000000	96.385502 
3173.000000	96.389331 
3172.000000	96.393283 
3171.000000	96.397164 
3170.000000	96.400869 
3169.000000	96.404680 
3168.000000	96.408889 
3167.000000	96.413248 
3166.000000	96.417181 
3165.000000	96.420505 
3164.000000	96.423560 
3163.000000	96.426659 
3162.000000	96.429742 
3161.000000	96.432635 
3160.000000	96.435337 
3159.000000	96.438000 
3158.000000	96.440883 
3157.000000	96.444346 
3156.000000	96.448592 
3155.000000	96.453359 
3154.000000	96.458102 
3153.000000	96.462556 
3152.000000	96.466841 
3151.000000	96.470925 
3150.000000	96.474366 
3149.000000	96.476796 
3148.000000	96.478414 
3147.000000	96.479956 
3146.000000	96.482226 
3145.000000	96.485655 
3144.000000	96.490108 
3143.000000	96.494855 
3142.000000	96.499007 
3141.000000	96.502247 
3140.000000	96.505008 
3139.000000	96.507922 
3138.000000	96.511148 
3137.000000	96.514313 
3136.000000	96.516927 
3135.000000	96.518783 
3134.000000	96.520186 
3133.000000	96.521917 
3132.000000	96.524720 
3131.000000	96.528709 
3130.000000	96.533383 
3129.000000	96.538233 
3128.000000	96.543079 
3127.000000	96.547752 
3126.000000	96.551886 
3125.000000	96.555273 
3124.000000	96.558159 
3123.000000	96.560883 
3122.000000	96.563461 
3121.000000	96.565788 
3120.000000	96.567994 
3119.000000	96.570351 
3118.000000	96.572984 
3117.000000	96.575886 
3116.000000	96.579003 
3115.000000	96.582136 
3114.000000	96.584985 
3113.000000	96.587580 
3112.000000	96.590469 
3111.000000	96.594176 
3110.000000	96.598534 
3109.000000	96.602764 
3108.000000	96.606231 
3107.000000	96.608918 
3106.000000	96.611194 
3105.000000	96.613294 
3104.000000	96.615085 
3103.000000	96.616324 
3102.000000	96.617100 
3101.000000	96.617918 
3100.000000	96.619278 
3099.000000	96.621327 
3098.000000	96.624017 
3097.000000	96.627398 
3096.000000	96.631406 
3095.000000	96.635486 
3094.000000	96.638902 
3093.000000	96.641480 
3092.000000	96.643731 
3091.000000	96.646106 
3090.000000	96.648449 
3089.000000	96.650370 
3088.000000	96.651906 
3087.000000	96.653600 
3086.000000	96.655999 
3085.000000	96.659150 
3084.000000	96.662485 
3083.000000	96.665228 
3082.000000	96.667065 
3081.000000	96.668367 
3080.000000	96.669816 
3079.000000	96.671713 
3078.000000	96.673852 
3077.000000	96.676008 
3076.000000	96.678247 
3075.000000	96.680616 
3074.000000	96.682828 
3073.000000	96.684571 
3072.000000	96.685979 
3071.000000	96.687509 
3070.000000	96.689391 
3069.000000	96.691468 
3068.000000	96.693484 
3067.000000	96.695314 
3066.000000	96.696898 
3065.000000	96.698201 
3064.000000	96.699281 
3063.000000	96.700250 
3062.000000	96.701153 
3061.000000	96.702029 
3060.000000	96.703074 
3059.000000	96.704590 
3058.000000	96.706722 
3057.000000	96.709344 
3056.000000	96.712116 
3055.000000	96.714516 
3054.000000	96.716033 
3053.000000	96.716554 
3052.000000	96.716674 
3051.000000	96.717351 
3050.000000	96.719006 
3049.000000	96.721206 
3048.000000	96.723207 
3047.000000	96.724672 
3046.000000	96.725676 
3045.000000	96.726312 
3044.000000	96.726681 
3043.000000	96.727200 
3042.000000	96.728436 
3041.000000	96.730390 
3040.000000	96.732165 
3039.000000	96.732792 
3038.000000	96.732307 
3037.000000	96.731723 
3036.000000	96.731905 
3035.000000	96.732642 
3034.000000	96.733063 
3033.000000	96.732736 
3032.000000	96.732072 
3031.000000	96.731764 
3030.000000	96.732140 
3029.000000	96.733083 
3028.000000	96.734165 
3027.000000	96.734683 
3026.000000	96.733954 
3025.000000	96.731971 
3024.000000	96.729671 
3023.000000	96.728132 
3022.000000	96.727587 
3021.000000	96.727641 
3020.000000	96.728206 
3019.000000	96.729571 
3018.000000	96.731433 
3017.000000	96.732497 
3016.000000	96.731579 
3015.000000	96.728892 
3014.000000	96.726070 
3013.000000	96.724846 
3012.000000	96.725583 
3011.000000	96.726873 
3010.000000	96.726630 
3009.000000	96.723907 
3008.000000	96.719657 
3007.000000	96.715675 
3006.000000	96.712842 
3005.000000	96.710873 
3004.000000	96.709541 
3003.000000	96.709368 
3002.000000	96.710880 
3001.000000	96.713678 
3000.000000	96.716537 
2999.000000	96.718110 
2998.000000	96.717434 
2997.000000	96.714266 
2996.000000	96.709406 
2995.000000	96.704471 
2994.000000	96.700900 
2993.000000	96.699079 
2992.000000	96.698288 
2991.000000	96.697351 
2990.000000	96.695508 
2989.000000	96.693140 
2988.000000	96.691655 
2987.000000	96.692262 
2986.000000	96.694905 
2985.000000	96.698659 
2984.000000	96.702937 
2983.000000	96.707694 
2982.000000	96.712559 
2981.000000	96.716560 
2980.000000	96.718856 
2979.000000	96.719211 
2978.000000	96.717755 
2977.000000	96.715065 
2976.000000	96.712640 
2975.000000	96.712351 
2974.000000	96.714848 
2973.000000	96.719022 
2972.000000	96.723380 
2971.000000	96.727459 
2970.000000	96.731309 
2969.000000	96.734349 
2968.000000	96.735709 
2967.000000	96.735496 
2966.000000	96.734969 
2965.000000	96.735464 
2964.000000	96.737593 
2963.000000	96.741300 
2962.000000	96.746092 
2961.000000	96.751176 
2960.000000	96.755857 
2959.000000	96.759982 
2958.000000	96.763807 
2957.000000	96.767428 
2956.000000	96.770502 
2955.000000	96.772517 
2954.000000	96.773374 
2953.000000	96.773835 
2952.000000	96.775357 
2951.000000	96.778967 
2950.000000	96.784056 
2949.000000	96.788693 
2948.000000	96.791561 
2947.000000	96.793171 
2946.000000	96.794896 
2945.000000	96.797121 
2944.000000	96.798991 
2943.000000	96.799801 
2942.000000	96.799825 
2941.000000	96.799703 
2940.000000	96.799762 
2939.000000	96.800256 
2938.000000	96.801647 
2937.000000	96.804099 
2936.000000	96.806969 
2935.000000	96.809257 
2934.000000	96.810451 
2933.000000	96.810696 
2932.000000	96.810415 
2931.000000	96.810180 
2930.000000	96.810720 
2929.000000	96.812431 
2928.000000	96.814727 
2927.000000	96.816265 
2926.000000	96.816142 
2925.000000	96.814783 
2924.000000	96.813630 
2923.000000	96.813918 
2922.000000	96.815836 
2921.000000	96.818638 
2920.000000	96.821434 
2919.000000	96.823955 
2918.000000	96.826500 
2917.000000	96.829055 
2916.000000	96.830768 
2915.000000	96.830732 
2914.000000	96.829272 
2913.000000	96.827971 
2912.000000	96.828029 
2911.000000	96.828941 
2910.000000	96.829320 
2909.000000	96.828819 
2908.000000	96.828636 
2907.000000	96.829945 
2906.000000	96.832403 
2905.000000	96.834430 
2904.000000	96.834773 
2903.000000	96.833530 
2902.000000	96.832185 
2901.000000	96.832407 
2900.000000	96.834943 
2899.000000	96.839283 
2898.000000	96.844148 
2897.000000	96.848492 
2896.000000	96.851872 
2895.000000	96.854081 
2894.000000	96.855067 
2893.000000	96.855486 
2892.000000	96.856693 
2891.000000	96.859514 
2890.000000	96.863280 
2889.000000	96.866600 
2888.000000	96.869007 
2887.000000	96.871102 
2886.000000	96.873150 
2885.000000	96.874532 
2884.000000	96.875051 
2883.000000	96.875918 
2882.000000	96.878465 
2881.000000	96.882371 
2880.000000	96.886077 
2879.000000	96.888941 
2878.000000	96.891983 
2877.000000	96.896179 
2876.000000	96.900946 
2875.000000	96.904875 
2874.000000	96.907418 
2873.000000	96.909138 
2872.000000	96.910723 
2871.000000	96.912398 
2870.000000	96.914243 
2869.000000	96.916379 
2868.000000	96.918668 
2867.000000	96.920684 
2866.000000	96.922231 
2865.000000	96.923592 
2864.000000	96.925179 
2863.000000	96.927237 
2862.000000	96.929950 
2861.000000	96.933443 
2860.000000	96.937431 
2859.000000	96.941227 
2858.000000	96.944355 
2857.000000	96.947013 
2856.000000	96.949752 
2855.000000	96.952760 
2854.000000	96.955640 
2853.000000	96.957928 
2852.000000	96.959571 
2851.000000	96.960874 
2850.000000	96.962221 
2849.000000	96.963942 
2848.000000	96.966273 
2847.000000	96.969236 
2846.000000	96.972500 
2845.000000	96.975485 
2844.000000	96.977762 
2843.000000	96.979387 
2842.000000	96.980849 
2841.000000	96.982560 
2840.000000	96.984375 
2839.000000	96.985823 
2838.000000	96.986792 
2837.000000	96.987827 
2836.000000	96.989608 
2835.000000	96.992247 
2834.000000	96.995282 
2833.000000	96.998217 
2832.000000	97.000916 
2831.000000	97.003415 
2830.000000	97.005608 
2829.000000	97.007301 
2828.000000	97.008526 
2827.000000	97.009699 
2826.000000	97.011368 
2825.000000	97.013765 
2824.000000	97.016617 
2823.000000	97.019333 
2822.000000	97.021488 
2821.000000	97.023083 
2820.000000	97.024372 
2819.000000	97.025533 
2818.000000	97.026590 
2817.000000	97.027570 
2816.000000	97.028603 
2815.000000	97.029845 
2814.000000	97.031343 
2813.000000	97.032966 
2812.000000	97.034470 
2811.000000	97.035700 
2810.000000	97.036747 
2809.000000	97.037892 
2808.000000	97.039331 
2807.000000	97.041015 
2806.000000	97.042747 
2805.000000	97.044376 
2804.000000	97.045854 
2803.000000	97.047183 
2802.000000	97.048399 
2801.000000	97.049612 
2800.000000	97.050935 
2799.000000	97.052364 
2798.000000	97.053769 
2797.000000	97.055034 
2796.000000	97.056170 
2795.000000	97.057280 
2794.000000	97.058446 
2793.000000	97.059671 
2792.000000	97.060920 
2791.000000	97.062166 
2790.000000	97.063392 
2789.000000	97.064594 
2788.000000	97.065779 
2787.000000	97.066970 
2786.000000	97.068188 
2785.000000	97.069422 
2784.000000	97.070635 
2783.000000	97.071796 
2782.000000	97.072911 
2781.000000	97.074017 
2780.000000	97.075145 
2779.000000	97.076312 
2778.000000	97.077522 
2777.000000	97.078770 
2776.000000	97.080028 
2775.000000	97.081248 
2774.000000	97.082399 
2773.000000	97.083484 
2772.000000	97.084501 
2771.000000	97.085428 
2770.000000	97.086302 
2769.000000	97.087286 
2768.000000	97.088527 
2767.000000	97.089987 
2766.000000	97.091488 
2765.000000	97.092916 
2764.000000	97.094279 
2763.000000	97.095586 
2762.000000	97.096761 
2761.000000	97.097742 
2760.000000	97.098593 
2759.000000	97.099458 
2758.000000	97.100435 
2757.000000	97.101485 
2756.000000	97.102453 
2755.000000	97.103274 
2754.000000	97.104143 
2753.000000	97.105355 
2752.000000	97.106892 
2751.000000	97.108340 
2750.000000	97.109398 
2749.000000	97.110279 
2748.000000	97.111319 
2747.000000	97.112337 
2746.000000	97.112836 
2745.000000	97.112749 
2744.000000	97.112597 
2743.000000	97.112925 
2742.000000	97.113782 
2741.000000	97.114880 
2740.000000	97.115959 
2739.000000	97.116913 
2738.000000	97.117680 
2737.000000	97.118209 
2736.000000	97.118565 
2735.000000	97.118929 
2734.000000	97.119453 
2733.000000	97.120169 
2732.000000	97.121006 
2731.000000	97.121887 
2730.000000	97.122798 
2729.000000	97.123787 
2728.000000	97.124842 
2727.000000	97.125802 
2726.000000	97.126469 
2725.000000	97.126838 
2724.000000	97.127121 
2723.000000	97.127529 
2722.000000	97.128069 
2721.000000	97.128636 
2720.000000	97.129177 
2719.000000	97.129727 
2718.000000	97.130310 
2717.000000	97.130901 
2716.000000	97.131472 
2715.000000	97.132031 
2714.000000	97.132611 
2713.000000	97.133220 
2712.000000	97.133823 
2711.000000	97.134376 
2710.000000	97.134871 
2709.000000	97.135354 
2708.000000	97.135877 
2707.000000	97.136464 
2706.000000	97.137103 
2705.000000	97.137757 
2704.000000	97.138389 
2703.000000	97.138965 
2702.000000	97.139470 
2701.000000	97.139920 
2700.000000	97.140371 
2699.000000	97.140894 
2698.000000	97.141514 
2697.000000	97.142159 
2696.000000	97.142693 
2695.000000	97.143062 
2694.000000	97.143399 
2693.000000	97.143913 
2692.000000	97.144631 
2691.000000	97.145322 
2690.000000	97.145768 
2689.000000	97.146001 
2688.000000	97.146197 
2687.000000	97.146390 
2686.000000	97.146473 
2685.000000	97.146456 
2684.000000	97.146517 
2683.000000	97.146793 
2682.000000	97.147248 
2681.000000	97.147726 
2680.000000	97.148092 
2679.000000	97.148281 
2678.000000	97.148316 
2677.000000	97.148357 
2676.000000	97.148618 
2675.000000	97.149057 
2674.000000	97.149295 
2673.000000	97.149032 
2672.000000	97.148410 
2671.000000	97.147779 
2670.000000	97.147256 
2669.000000	97.146763 
2668.000000	97.146383 
2667.000000	97.146315 
2666.000000	97.146481 
2665.000000	97.146485 
2664.000000	97.146083 
2663.000000	97.145499 
2662.000000	97.145134 
2661.000000	97.145056 
2660.000000	97.144959 
2659.000000	97.144562 
2658.000000	97.143893 
2657.000000	97.143194 
2656.000000	97.142667 
2655.000000	97.142306 
2654.000000	97.141882 
2653.000000	97.141101 
2652.000000	97.139907 
2651.000000	97.138671 
2650.000000	97.137955 
2649.000000	97.137988 
2648.000000	97.138412 
2647.000000	97.138517 
2646.000000	97.137810 
2645.000000	97.136269 
2644.000000	97.134293 
2643.000000	97.132499 
2642.000000	97.131378 
2641.000000	97.131037 
2640.000000	97.131176 
2639.000000	97.131424 
2638.000000	97.131711 
2637.000000	97.132132 
2636.000000	97.132617 
2635.000000	97.132967 
2634.000000	97.133127 
2633.000000	97.133150 
2632.000000	97.132868 
2631.000000	97.131939 
2630.000000	97.130381 
2629.000000	97.128824 
2628.000000	97.127961 
2627.000000	97.127871 
2626.000000	97.128111 
2625.000000	97.128312 
2624.000000	97.128454 
2623.000000	97.128572 
2622.000000	97.128502 
2621.000000	97.128023 
2620.000000	97.127026 
2619.000000	97.125509 
2618.000000	97.123691 
2617.000000	97.122154 
2616.000000	97.121533 
2615.000000	97.121956 
2614.000000	97.122901 
2613.000000	97.123679 
2612.000000	97.124008 
2611.000000	97.124030 
2610.000000	97.124041 
2609.000000	97.124250 
2608.000000	97.124560 
2607.000000	97.124558 
2606.000000	97.124006 
2605.000000	97.123289 
2604.000000	97.123023 
2603.000000	97.123264 
2602.000000	97.123587 
2601.000000	97.123924 
2600.000000	97.124586 
2599.000000	97.125291 
2598.000000	97.125023 
2597.000000	97.123332 
2596.000000	97.121137 
2595.000000	97.119715 
2594.000000	97.119195 
2593.000000	97.118842 
2592.000000	97.118472 
2591.000000	97.118624 
2590.000000	97.119386 
2589.000000	97.120102 
2588.000000	97.120491 
2587.000000	97.121096 
2586.000000	97.122257 
2585.000000	97.123467 
2584.000000	97.124126 
2583.000000	97.124338 
2582.000000	97.124596 
2581.000000	97.125198 
2580.000000	97.126243 
2579.000000	97.127750 
2578.000000	97.129427 
2577.000000	97.130597 
2576.000000	97.130691 
2575.000000	97.129665 
2574.000000	97.127964 
2573.000000	97.126221 
2572.000000	97.124900 
2571.000000	97.123983 
2570.000000	97.123108 
2569.000000	97.122231 
2568.000000	97.121958 
2567.000000	97.122809 
2566.000000	97.124314 
2565.000000	97.125382 
2564.000000	97.125511 
2563.000000	97.125089 
2562.000000	97.124531 
2561.000000	97.123869 
2560.000000	97.123448 
2559.000000	97.124222 
2558.000000	97.126727 
2557.000000	97.130121 
2556.000000	97.132792 
2555.000000	97.133960 
2554.000000	97.134096 
2553.000000	97.133981 
2552.000000	97.133917 
2551.000000	97.134059 
2550.000000	97.134756 
2549.000000	97.135925 
2548.000000	97.136548 
2547.000000	97.135642 
2546.000000	97.133645 
2545.000000	97.132214 
2544.000000	97.132327 
2543.000000	97.133238 
2542.000000	97.133579 
2541.000000	97.133066 
2540.000000	97.132524 
2539.000000	97.132476 
2538.000000	97.132466 
2537.000000	97.132020 
2536.000000	97.131581 
2535.000000	97.131942 
2534.000000	97.133080 
2533.000000	97.134078 
2532.000000	97.134196 
2531.000000	97.133601 
2530.000000	97.132905 
2529.000000	97.132309 
2528.000000	97.131520 
2527.000000	97.130459 
2526.000000	97.129723 
2525.000000	97.130099 
2524.000000	97.131738 
2523.000000	97.133941 
2522.000000	97.135751 
2521.000000	97.136699 
2520.000000	97.136918 
2519.000000	97.136781 
2518.000000	97.136587 
2517.000000	97.136414 
2516.000000	97.136060 
2515.000000	97.135210 
2514.000000	97.133926 
2513.000000	97.132952 
2512.000000	97.133172 
2511.000000	97.134792 
2510.000000	97.137238 
2509.000000	97.139672 
2508.000000	97.141448 
2507.000000	97.142247 
2506.000000	97.142260 
2505.000000	97.142358 
2504.000000	97.143505 
2503.000000	97.145660 
2502.000000	97.147562 
2501.000000	97.148083 
2500.000000	97.147432 
2499.000000	97.146656 
2498.000000	97.146321 
2497.000000	97.146123 
2496.000000	97.145719 
2495.000000	97.145284 
2494.000000	97.145117 
2493.000000	97.145194 
2492.000000	97.145425 
2491.000000	97.146043 
2490.000000	97.147378 
2489.000000	97.149297 
2488.000000	97.151080 
2487.000000	97.152032 
2486.000000	97.152062 
2485.000000	97.151587 
2484.000000	97.151055 
2483.000000	97.150651 
2482.000000	97.150432 
2481.000000	97.150495 
2480.000000	97.150875 
2479.000000	97.151424 
2478.000000	97.151965 
2477.000000	97.152482 
2476.000000	97.152979 
2475.000000	97.153270 
2474.000000	97.153114 
2473.000000	97.152565 
2472.000000	97.152028 
2471.000000	97.151927 
2470.000000	97.152430 
2469.000000	97.153418 
2468.000000	97.154495 
2467.000000	97.155122 
2466.000000	97.154987 
2465.000000	97.154289 
2464.000000	97.153550 
2463.000000	97.153121 
2462.000000	97.153099 
2461.000000	97.153658 
2460.000000	97.155101 
2459.000000	97.157432 
2458.000000	97.159980 
2457.000000	97.161654 
2456.000000	97.161668 
2455.000000	97.160077 
2454.000000	97.157878 
2453.000000	97.156273 
2452.000000	97.155557 
2451.000000	97.155047 
2450.000000	97.154256 
2449.000000	97.153773 
2448.000000	97.154395 
2447.000000	97.155736 
2446.000000	97.156520 
2445.000000	97.156279 
2444.000000	97.155898 
2443.000000	97.156263 
2442.000000	97.157154 
2441.000000	97.157815 
2440.000000	97.158064 
2439.000000	97.158458 
2438.000000	97.159717 
2437.000000	97.162231 
2436.000000	97.165734 
2435.000000	97.169142 
2434.000000	97.171149 
2433.000000	97.171307 
2432.000000	97.170365 
2431.000000	97.169588 
2430.000000	97.169808 
2429.000000	97.171083 
2428.000000	97.172812 
2427.000000	97.174045 
2426.000000	97.174128 
2425.000000	97.173220 
2424.000000	97.172054 
2423.000000	97.171155 
2422.000000	97.170614 
2421.000000	97.170662 
2420.000000	97.171785 
2419.000000	97.174027 
2418.000000	97.176576 
2417.000000	97.178576 
2416.000000	97.179877 
2415.000000	97.180608 
2414.000000	97.180743 
2413.000000	97.180705 
2412.000000	97.181510 
2411.000000	97.183335 
2410.000000	97.184895 
2409.000000	97.185106 
2408.000000	97.184614 
2407.000000	97.184713 
2406.000000	97.185484 
2405.000000	97.185958 
2404.000000	97.185572 
2403.000000	97.184572 
2402.000000	97.183456 
2401.000000	97.182926 
2400.000000	97.183966 
2399.000000	97.187030 
2398.000000	97.191322 
2397.000000	97.195528 
2396.000000	97.198921 
2395.000000	97.201154 
2394.000000	97.201719 
2393.000000	97.200657 
2392.000000	97.199355 
2391.000000	97.199447 
2390.000000	97.200928 
2389.000000	97.202227 
2388.000000	97.201973 
2387.000000	97.199898 
2386.000000	97.196383 
2385.000000	97.192289 
2384.000000	97.189189 
2383.000000	97.188633 
2382.000000	97.191146 
2381.000000	97.196750 
2380.000000	97.206093 
2379.000000	97.219622 
2378.000000	97.235047 
2377.000000	97.247052 
2376.000000	97.251223 
2375.000000	97.247341 
2374.000000	97.238348 
2373.000000	97.227200 
2372.000000	97.215974 
2371.000000	97.207442 
2370.000000	97.204684 
2369.000000	97.208166 
2368.000000	97.214278 
2367.000000	97.218056 
2366.000000	97.217770 
2365.000000	97.215751 
2364.000000	97.214703 
2363.000000	97.214452 
2362.000000	97.213638 
2361.000000	97.212780 
2360.000000	97.212788 
2359.000000	97.212963 
2358.000000	97.211940 
2357.000000	97.210502 
2356.000000	97.210721 
2355.000000	97.212871 
2354.000000	97.215790 
2353.000000	97.217187 
2352.000000	97.215407 
2351.000000	97.210301 
2350.000000	97.202690 
2349.000000	97.194959 
2348.000000	97.189933 
2347.000000	97.189463 
2346.000000	97.190693 
2345.000000	97.188725 
2344.000000	97.182941 
2343.000000	97.176585 
2342.000000	97.174257 
2341.000000	97.177647 
2340.000000	97.184745 
2339.000000	97.190510 
2338.000000	97.191144 
2337.000000	97.186954 
2336.000000	97.181408 
2335.000000	97.177143 
2334.000000	97.174436 
2333.000000	97.171207 
2332.000000	97.165732 
2331.000000	97.157815 
2330.000000	97.147685 
2329.000000	97.136033 
2328.000000	97.122692 
2327.000000	97.109382 
2326.000000	97.097955 
2325.000000	97.090118 
2324.000000	97.088203 
2323.000000	97.092982 
2322.000000	97.102110 
2321.000000	97.109039 
2320.000000	97.110288 
2319.000000	97.108027 
2318.000000	97.106391 
2317.000000	97.106284 
2316.000000	97.106218 
2315.000000	97.105673 
2314.000000	97.104640 
2313.000000	97.102377 
2312.000000	97.098148 
2311.000000	97.093814 
2310.000000	97.091603 
2309.000000	97.090796 
2308.000000	97.088706 
2307.000000	97.085384 
2306.000000	97.084099 
2305.000000	97.086407 
2304.000000	97.089744 
2303.000000	97.090645 
2302.000000	97.089159 
2301.000000	97.087995 
2300.000000	97.088629 
2299.000000	97.089712 
2298.000000	97.088910 
2297.000000	97.085872 
2296.000000	97.082135 
2295.000000	97.079690 
2294.000000	97.079194 
2293.000000	97.080289 
2292.000000	97.082366 
2291.000000	97.085173 
2290.000000	97.088553 
2289.000000	97.092077 
2288.000000	97.095040 
2287.000000	97.096853 
2286.000000	97.097564 
2285.000000	97.097984 
2284.000000	97.099185 
2283.000000	97.101294 
2282.000000	97.103253 
2281.000000	97.103812 
2280.000000	97.102682 
2279.000000	97.100398 
2278.000000	97.097776 
2277.000000	97.095766 
2276.000000	97.095271 
2275.000000	97.096482 
2274.000000	97.098648 
2273.000000	97.101169 
2272.000000	97.104386 
2271.000000	97.108577 
2270.000000	97.112714 
2269.000000	97.115346 
2268.000000	97.116439 
2267.000000	97.117155 
2266.000000	97.117876 
2265.000000	97.117786 
2264.000000	97.116482 
2263.000000	97.114800 
2262.000000	97.113647 
2261.000000	97.113061 
2260.000000	97.112865 
2259.000000	97.113217 
2258.000000	97.114131 
2257.000000	97.115194 
2256.000000	97.116269 
2255.000000	97.117766 
2254.000000	97.119769 
2253.000000	97.121439 
2252.000000	97.121856 
2251.000000	97.120960 
2250.000000	97.119263 
2249.000000	97.117294 
2248.000000	97.115599 
2247.000000	97.114861 
2246.000000	97.115296 
2245.000000	97.116360 
2244.000000	97.117214 
2243.000000	97.117519 
2242.000000	97.117526 
2241.000000	97.117559 
2240.000000	97.117726 
2239.000000	97.117958 
2238.000000	97.118148 
2237.000000	97.118236 
2236.000000	97.118232 
2235.000000	97.118182 
2234.000000	97.118132 
2233.000000	97.118093 
2232.000000	97.118052 
2231.000000	97.117987 
2230.000000	97.117876 
2229.000000	97.117713 
2228.000000	97.117503 
2227.000000	97.117256 
2226.000000	97.116973 
2225.000000	97.116647 
2224.000000	97.116273 
2223.000000	97.115867 
2222.000000	97.115462 
2221.000000	97.115087 
2220.000000	97.114737 
2219.000000	97.114387 
2218.000000	97.114011 
2217.000000	97.113602 
2216.000000	97.113167 
2215.000000	97.112714 
2214.000000	97.112240 
2213.000000	97.111750 
2212.000000	97.111259 
2211.000000	97.110795 
2210.000000	97.110373 
2209.000000	97.109984 
2208.000000	97.109602 
2207.000000	97.109206 
2206.000000	97.108789 
2205.000000	97.108348 
2204.000000	97.107861 
2203.000000	97.107378 
2202.000000	97.106991 
2201.000000	97.106711 
2200.000000	97.106422 
2199.000000	97.105905 
2198.000000	97.104977 
2197.000000	97.103700 
2196.000000	97.102386 
2195.000000	97.101256 
2194.000000	97.100303 
2193.000000	97.099670 
2192.000000	97.099773 
2191.000000	97.100656 
2190.000000	97.101553 
2189.000000	97.101733 
2188.000000	97.101516 
2187.000000	97.101645 
2186.000000	97.101791 
2185.000000	97.100731 
2184.000000	97.098447 
2183.000000	97.097119 
2182.000000	97.098975 
2181.000000	97.103744 
2180.000000	97.108515 
2179.000000	97.110507 
2178.000000	97.109268 
2177.000000	97.106408 
2176.000000	97.104067 
2175.000000	97.103423 
2174.000000	97.104413 
2173.000000	97.106540 
2172.000000	97.109781 
2171.000000	97.114377 
2170.000000	97.119508 
2169.000000	97.122887 
2168.000000	97.122691 
2167.000000	97.119745 
2166.000000	97.116855 
2165.000000	97.115537 
2164.000000	97.114430 
2163.000000	97.111898 
2162.000000	97.109756 
2161.000000	97.112653 
2160.000000	97.123407 
2159.000000	97.139951 
2158.000000	97.156708 
2157.000000	97.169265 
2156.000000	97.176609 
2155.000000	97.179428 
2154.000000	97.178651 
2153.000000	97.175992 
2152.000000	97.173891 
2151.000000	97.173315 
2150.000000	97.172711 
2149.000000	97.170706 
2148.000000	97.169167 
2147.000000	97.171542 
2146.000000	97.178074 
2145.000000	97.184737 
2144.000000	97.187931 
2143.000000	97.188420 
2142.000000	97.189177 
2141.000000	97.190978 
2140.000000	97.192412 
2139.000000	97.193572 
2138.000000	97.197132 
2137.000000	97.205026 
2136.000000	97.215364 
2135.000000	97.223496 
2134.000000	97.225879 
2133.000000	97.222508 
2132.000000	97.216657 
2131.000000	97.212315 
2130.000000	97.211081 
2129.000000	97.211487 
2128.000000	97.211298 
2127.000000	97.210181 
2126.000000	97.209703 
2125.000000	97.210971 
2124.000000	97.213122 
2123.000000	97.214404 
2122.000000	97.214005 
2121.000000	97.212346 
2120.000000	97.210090 
2119.000000	97.207576 
2118.000000	97.205219 
2117.000000	97.203781 
2116.000000	97.203613 
2115.000000	97.203844 
2114.000000	97.202945 
2113.000000	97.200426 
2112.000000	97.197573 
2111.000000	97.196103 
2110.000000	97.196344 
2109.000000	97.197247 
2108.000000	97.197922 
2107.000000	97.198388 
2106.000000	97.198920 
2105.000000	97.199610 
2104.000000	97.200769 
2103.000000	97.202697 
2102.000000	97.204707 
2101.000000	97.205253 
2100.000000	97.203672 
2099.000000	97.201226 
2098.000000	97.200051 
2097.000000	97.200913 
2096.000000	97.202880 
2095.000000	97.204582 
2094.000000	97.205453 
2093.000000	97.205707 
2092.000000	97.205610 
2091.000000	97.205299 
2090.000000	97.204974 
2089.000000	97.204854 
2088.000000	97.204946 
2087.000000	97.205001 
2086.000000	97.204787 
2085.000000	97.204327 
2084.000000	97.203853 
2083.000000	97.203585 
2082.000000	97.203589 
2081.000000	97.203834 
2080.000000	97.204267 
2079.000000	97.204817 
2078.000000	97.205372 
2077.000000	97.205808 
2076.000000	97.206095 
2075.000000	97.206315 
2074.000000	97.206563 
2073.000000	97.206842 
2072.000000	97.207110 
2071.000000	97.207389 
2070.000000	97.207751 
2069.000000	97.208245 
2068.000000	97.208844 
2067.000000	97.209485 
2066.000000	97.210113 
2065.000000	97.210707 
2064.000000	97.211282 
2063.000000	97.211879 
2062.000000	97.212544 
2061.000000	97.213313 
2060.000000	97.214198 
2059.000000	97.215188 
2058.000000	97.216232 
2057.000000	97.217257 
2056.000000	97.218213 
2055.000000	97.219074 
2054.000000	97.219845 
2053.000000	97.220596 
2052.000000	97.221432 
2051.000000	97.222409 
2050.000000	97.223470 
2049.000000	97.224519 
2048.000000	97.225552 
2047.000000	97.226654 
2046.000000	97.227892 
2045.000000	97.229268 
2044.000000	97.230766 
2043.000000	97.232358 
2042.000000	97.233973 
2041.000000	97.235516 
2040.000000	97.236988 
2039.000000	97.238538 
2038.000000	97.240314 
2037.000000	97.242267 
2036.000000	97.244111 
2035.000000	97.245528 
2034.000000	97.246445 
2033.000000	97.247196 
2032.000000	97.248310 
2031.000000	97.250000 
2030.000000	97.251803 
2029.000000	97.252893 
2028.000000	97.252945 
2027.000000	97.252455 
2026.000000	97.252144 
2025.000000	97.252245 
2024.000000	97.252706 
2023.000000	97.253775 
2022.000000	97.255917 
2021.000000	97.258934 
2020.000000	97.261416 
2019.000000	97.261766 
2018.000000	97.259503 
2017.000000	97.255673 
2016.000000	97.252202 
2015.000000	97.250363 
2014.000000	97.250060 
2013.000000	97.250125 
2012.000000	97.249517 
2011.000000	97.248526 
2010.000000	97.248341 
2009.000000	97.249455 
2008.000000	97.251003 
2007.000000	97.251889 
2006.000000	97.252033 
2005.000000	97.251953 
2004.000000	97.251775 
2003.000000	97.251460 
2002.000000	97.251553 
2001.000000	97.252599 
2000.000000	97.253726 
1999.000000	97.252867 
1998.000000	97.248911 
1997.000000	97.243004 
1996.000000	97.237705 
1995.000000	97.234781 
1994.000000	97.234154 
1993.000000	97.234500 
1992.000000	97.234372 
1991.000000	97.233337 
1990.000000	97.232291 
1989.000000	97.232518 
1988.000000	97.234235 
1987.000000	97.236187 
1986.000000	97.236806 
1985.000000	97.235664 
1984.000000	97.233600 
1983.000000	97.231771 
1982.000000	97.230905 
1981.000000	97.231292 
1980.000000	97.232924 
1979.000000	97.235323 
1978.000000	97.237536 
1977.000000	97.238778 
1976.000000	97.239020 
1975.000000	97.238886 
1974.000000	97.239094 
1973.000000	97.240005 
1972.000000	97.241464 
1971.000000	97.242895 
1970.000000	97.243621 
1969.000000	97.243253 
1968.000000	97.241902 
1967.000000	97.240173 
1966.000000	97.238992 
1965.000000	97.239045 
1964.000000	97.240369 
1963.000000	97.242414 
1962.000000	97.244431 
1961.000000	97.245855 
1960.000000	97.246367 
1959.000000	97.245924 
1958.000000	97.245001 
1957.000000	97.244510 
1956.000000	97.244987 
1955.000000	97.246031 
1954.000000	97.246676 
1953.000000	97.246452 
1952.000000	97.245682 
1951.000000	97.244861 
1950.000000	97.244174 
1949.000000	97.243788 
1948.000000	97.244031 
1947.000000	97.244965 
1946.000000	97.245995 
1945.000000	97.246278 
1944.000000	97.245487 
1943.000000	97.243908 
1942.000000	97.242039 
1941.000000	97.240242 
1940.000000	97.238686 
1939.000000	97.237325 
1938.000000	97.236018 
1937.000000	97.234997 
1936.000000	97.234854 
1935.000000	97.235607 
1934.000000	97.236245 
1933.000000	97.235931 
1932.000000	97.235221 
1931.000000	97.235280 
1930.000000	97.236239 
1929.000000	97.237017 
1928.000000	97.236784 
1927.000000	97.235722 
1926.000000	97.234367 
1925.000000	97.233031 
1924.000000	97.231955 
1923.000000	97.231282 
1922.000000	97.230548 
1921.000000	97.228974 
1920.000000	97.226555 
1919.000000	97.224117 
1918.000000	97.222227 
1917.000000	97.220651 
1916.000000	97.219233 
1915.000000	97.218524 
1914.000000	97.218759 
1913.000000	97.218931 
1912.000000	97.217865 
1911.000000	97.215728 
1910.000000	97.213862 
1909.000000	97.213245 
1908.000000	97.213588 
1907.000000	97.213808 
1906.000000	97.212875 
1905.000000	97.210376 
1904.000000	97.206847 
1903.000000	97.203607 
1902.000000	97.201719 
1901.000000	97.201061 
1900.000000	97.200716 
1899.000000	97.200045 
1898.000000	97.199055 
1897.000000	97.197982 
1896.000000	97.196811 
1895.000000	97.195234 
1894.000000	97.192902 
1893.000000	97.189840 
1892.000000	97.186852 
1891.000000	97.185172 
1890.000000	97.185245 
1889.000000	97.186050 
1888.000000	97.186452 
1887.000000	97.186757 
1886.000000	97.187757 
1885.000000	97.188855 
1884.000000	97.188369 
1883.000000	97.185714 
1882.000000	97.182419 
1881.000000	97.180586 
1880.000000	97.180646 
1879.000000	97.181031 
1878.000000	97.179903 
1877.000000	97.177387 
1876.000000	97.175666 
1875.000000	97.176615 
1874.000000	97.179941 
1873.000000	97.183653 
1872.000000	97.186324 
1871.000000	97.188192 
1870.000000	97.189819 
1869.000000	97.190708 
1868.000000	97.190180 
1867.000000	97.189079 
1866.000000	97.188671 
1865.000000	97.188532 
1864.000000	97.187566 
1863.000000	97.186222 
1862.000000	97.186049 
1861.000000	97.187468 
1860.000000	97.189554 
1859.000000	97.192003 
1858.000000	97.195580 
1857.000000	97.200242 
1856.000000	97.204610 
1855.000000	97.207691 
1854.000000	97.209540 
1853.000000	97.210433 
1852.000000	97.211030 
1851.000000	97.212561 
1850.000000	97.215541 
1849.000000	97.218921 
1848.000000	97.221304 
1847.000000	97.222773 
1846.000000	97.224526 
1845.000000	97.227091 
1844.000000	97.229691 
1843.000000	97.231580 
1842.000000	97.232869 
1841.000000	97.233871 
1840.000000	97.235207 
1839.000000	97.237644 
1838.000000	97.240809 
1837.000000	97.242892 
1836.000000	97.242876 
1835.000000	97.242306 
1834.000000	97.243402 
1833.000000	97.246274 
1832.000000	97.249289 
1831.000000	97.250926 
1830.000000	97.250834 
1829.000000	97.249916 
1828.000000	97.249632 
1827.000000	97.250888 
1826.000000	97.253617 
1825.000000	97.256683 
1824.000000	97.258470 
1823.000000	97.258462 
1822.000000	97.257684 
1821.000000	97.257169 
1820.000000	97.256868 
1819.000000	97.256394 
1818.000000	97.256254 
1817.000000	97.257069 
1816.000000	97.258070 
1815.000000	97.258411 
1814.000000	97.258880 
1813.000000	97.260779 
1812.000000	97.263343 
1811.000000	97.263928 
1810.000000	97.262083 
1809.000000	97.260431 
1808.000000	97.260463 
1807.000000	97.260924 
1806.000000	97.260655 
1805.000000	97.259991 
1804.000000	97.259276 
1803.000000	97.258122 
1802.000000	97.256708 
1801.000000	97.256571 
1800.000000	97.258002 
1799.000000	97.259031 
1798.000000	97.258634 
1797.000000	97.257265 
1796.000000	97.255181 
1795.000000	97.252908 
1794.000000	97.252008 
1793.000000	97.253938 
1792.000000	97.257179 
1791.000000	97.258654 
1790.000000	97.258801 
1789.000000	97.260440 
1788.000000	97.264553 
1787.000000	97.269644 
1786.000000	97.273886 
1785.000000	97.276487 
1784.000000	97.277352 
1783.000000	97.277051 
1782.000000	97.276580 
1781.000000	97.277181 
1780.000000	97.279591 
1779.000000	97.283521 
1778.000000	97.288584 
1777.000000	97.294215 
1776.000000	97.299274 
1775.000000	97.302643 
1774.000000	97.303852 
1773.000000	97.304050 
1772.000000	97.304981 
1771.000000	97.306700 
1770.000000	97.308424 
1769.000000	97.310126 
1768.000000	97.312369 
1767.000000	97.315209 
1766.000000	97.318066 
1765.000000	97.320742 
1764.000000	97.323370 
1763.000000	97.325547 
1762.000000	97.326641 
1761.000000	97.327111 
1760.000000	97.328090 
1759.000000	97.329808 
1758.000000	97.331727 
1757.000000	97.333736 
1756.000000	97.336606 
1755.000000	97.340128 
1754.000000	97.342423 
1753.000000	97.341987 
1752.000000	97.339668 
1751.000000	97.338592 
1750.000000	97.340313 
1749.000000	97.342949 
1748.000000	97.344475 
1747.000000	97.345139 
1746.000000	97.345984 
1745.000000	97.347850 
1744.000000	97.351209 
1743.000000	97.355150 
1742.000000	97.357681 
1741.000000	97.358191 
1740.000000	97.358245 
1739.000000	97.359315 
1738.000000	97.360583 
1737.000000	97.360792 
1736.000000	97.359530 
1735.000000	97.357415 
1734.000000	97.355059 
1733.000000	97.352430 
1732.000000	97.351299 
1731.000000	97.353961 
1730.000000	97.359857 
1729.000000	97.364871 
1728.000000	97.365944 
1727.000000	97.363656 
1726.000000	97.360360 
1725.000000	97.357750 
1724.000000	97.356446 
1723.000000	97.356536 
1722.000000	97.357930 
1721.000000	97.360038 
1720.000000	97.362218 
1719.000000	97.363704 
1718.000000	97.363116 
1717.000000	97.359394 
1716.000000	97.352482 
1715.000000	97.344202 
1714.000000	97.337604 
1713.000000	97.333287 
1712.000000	97.329820 
1711.000000	97.327470 
1710.000000	97.327309 
1709.000000	97.328029 
1708.000000	97.327060 
1707.000000	97.324070 
1706.000000	97.321004 
1705.000000	97.318122 
1704.000000	97.312470 
1703.000000	97.302859 
1702.000000	97.290998 
1701.000000	97.282427 
1700.000000	97.279702 
1699.000000	97.277489 
1698.000000	97.274586 
1697.000000	97.273062 
1696.000000	97.271420 
1695.000000	97.267184 
1694.000000	97.260870 
1693.000000	97.254338 
1692.000000	97.247918 
1691.000000	97.241495 
1690.000000	97.235581 
1689.000000	97.230671 
1688.000000	97.226469 
1687.000000	97.222208 
1686.000000	97.217523 
1685.000000	97.213166 
1684.000000	97.207873 
1683.000000	97.200319 
1682.000000	97.192496 
1681.000000	97.185474 
1680.000000	97.179874 
1679.000000	97.175654 
1678.000000	97.171837 
1677.000000	97.167352 
1676.000000	97.162715 
1675.000000	97.158566 
1674.000000	97.152932 
1673.000000	97.144411 
1672.000000	97.134526 
1671.000000	97.125859 
1670.000000	97.119307 
1669.000000	97.113085 
1668.000000	97.107470 
1667.000000	97.104029 
1666.000000	97.101133 
1665.000000	97.097097 
1664.000000	97.093798 
1663.000000	97.093903 
1662.000000	97.094099 
1661.000000	97.088060 
1660.000000	97.076238 
1659.000000	97.064157 
1658.000000	97.056158 
1657.000000	97.051370 
1656.000000	97.048268 
1655.000000	97.045511 
1654.000000	97.044668 
1653.000000	97.038572 
1652.000000	97.020859 
1651.000000	97.003755 
1650.000000	96.991972 
1649.000000	96.985214 
1648.000000	96.982557 
1647.000000	96.981349 
1646.000000	96.977387 
1645.000000	96.970415 
1644.000000	96.962173 
1643.000000	96.955279 
1642.000000	96.951672 
1641.000000	96.951458 
1640.000000	96.952536 
1639.000000	96.952322 
1638.000000	96.949761 
1637.000000	96.946187 
1636.000000	96.943906 
1635.000000	96.944510 
1634.000000	96.947940 
1633.000000	96.951133 
1632.000000	96.951518 
1631.000000	96.950564 
1630.000000	96.951613 
1629.000000	96.955557 
1628.000000	96.961152 
1627.000000	96.967891 
1626.000000	96.975595 
1625.000000	96.983261 
1624.000000	96.991043 
1623.000000	97.000452 
1622.000000	97.011202 
1621.000000	97.020833 
1620.000000	97.028926 
1619.000000	97.037550 
1618.000000	97.048215 
1617.000000	97.057846 
1616.000000	97.062359 
1615.000000	97.065432 
1614.000000	97.071360 
1613.000000	97.077950 
1612.000000	97.082060 
1611.000000	97.084391 
1610.000000	97.087935 
1609.000000	97.094535 
1608.000000	97.104553 
1607.000000	97.116885 
1606.000000	97.127748 
1605.000000	97.134449 
1604.000000	97.139318 
1603.000000	97.146066 
1602.000000	97.154867 
1601.000000	97.163465 
1600.000000	97.171640 
1599.000000	97.181049 
1598.000000	97.191495 
1597.000000	97.201104 
1596.000000	97.209259 
1595.000000	97.217206 
1594.000000	97.225742 
1593.000000	97.233817 
1592.000000	97.240234 
1591.000000	97.245067 
1590.000000	97.248888 
1589.000000	97.252323 
1588.000000	97.256959 
1587.000000	97.264485 
1586.000000	97.273649 
1585.000000	97.280854 
1584.000000	97.285391 
1583.000000	97.289649 
1582.000000	97.294377 
1581.000000	97.298537 
1580.000000	97.302990 
1579.000000	97.310582 
1578.000000	97.322654 
1577.000000	97.337257 
1576.000000	97.349001 
1575.000000	97.354407 
1574.000000	97.354872 
1573.000000	97.353277 
1572.000000	97.353105 
1571.000000	97.357528 
1570.000000	97.364239 
1569.000000	97.365055 
1568.000000	97.360017 
1567.000000	97.355634 
1566.000000	97.353847 
1565.000000	97.352633 
1564.000000	97.353131 
1563.000000	97.355277 
1562.000000	97.357576 
1561.000000	97.355313 
1560.000000	97.356346 
1559.000000	97.364980 
1558.000000	97.365588 
1557.000000	97.360564 
1556.000000	97.356826 
1555.000000	97.355864 
1554.000000	97.353261 
1553.000000	97.348436 
1552.000000	97.342134 
1551.000000	97.334710 
1550.000000	97.325241 
1549.000000	97.315467 
1548.000000	97.308282 
1547.000000	97.304023 
1546.000000	97.299674 
1545.000000	97.293596 
1544.000000	97.287722 
1543.000000	97.283836 
1542.000000	97.281335 
1541.000000	97.277246 
1540.000000	97.263156 
1539.000000	97.239691 
1538.000000	97.218571 
1537.000000	97.202780 
1536.000000	97.190305 
1535.000000	97.180810 
1534.000000	97.174720 
1533.000000	97.169729 
1532.000000	97.162469 
1531.000000	97.151844 
1530.000000	97.139591 
1529.000000	97.127868 
1528.000000	97.117313 
1527.000000	97.107323 
1526.000000	97.096926 
1525.000000	97.086317 
1524.000000	97.077020 
1523.000000	97.070161 
1522.000000	97.064247 
1521.000000	97.054422 
1520.000000	97.038319 
1519.000000	97.019016 
1518.000000	97.000355 
1517.000000	96.984531 
1516.000000	96.972003 
1515.000000	96.962162 
1514.000000	96.953505 
1513.000000	96.944288 
1512.000000	96.933215 
1511.000000	96.919788 
1510.000000	96.905099 
1509.000000	96.890907 
1508.000000	96.878921 
1507.000000	96.868114 
1506.000000	96.855775 
1505.000000	96.842116 
1504.000000	96.828415 
1503.000000	96.815251 
1502.000000	96.802472 
1501.000000	96.790013 
1500.000000	96.777838 
1499.000000	96.765758 
1498.000000	96.753181 
1497.000000	96.739884 
1496.000000	96.726271 
1495.000000	96.712913 
1494.000000	96.700124 
1493.000000	96.688025 
1492.000000	96.676785 
1491.000000	96.666523 
1490.000000	96.656633 
1489.000000	96.645983 
1488.000000	96.633657 
1487.000000	96.619684 
1486.000000	96.605206 
1485.000000	96.590109 
1484.000000	96.574000 
1483.000000	96.558294 
1482.000000	96.544869 
1481.000000	96.533809 
1480.000000	96.522946 
1479.000000	96.510838 
1478.000000	96.498535 
1477.000000	96.487801 
1476.000000	96.477722 
1475.000000	96.464972 
1474.000000	96.448431 
1473.000000	96.432134 
1472.000000	96.420554 
1471.000000	96.412119 
1470.000000	96.403053 
1469.000000	96.392180 
1468.000000	96.379509 
1467.000000	96.364998 
1466.000000	96.350133 
1465.000000	96.337998 
1464.000000	96.329290 
1463.000000	96.319706 
1462.000000	96.305927 
1461.000000	96.290362 
1460.000000	96.278191 
1459.000000	96.271473 
1458.000000	96.264304 
1457.000000	96.250066 
1456.000000	96.232397 
1455.000000	96.215228 
1454.000000	96.196372 
1453.000000	96.178092 
1452.000000	96.164932 
1451.000000	96.158663 
1450.000000	96.156757 
1449.000000	96.157147 
1448.000000	96.158469 
1447.000000	96.157885 
1446.000000	96.152824 
1445.000000	96.145399 
1444.000000	96.140303 
1443.000000	96.137884 
1442.000000	96.134411 
1441.000000	96.127016 
1440.000000	96.116331 
1439.000000	96.103770 
1438.000000	96.089873 
1437.000000	96.078121 
1436.000000	96.073137 
1435.000000	96.071836 
1434.000000	96.068329 
1433.000000	96.063648 
1432.000000	96.061939 
1431.000000	96.064962 
1430.000000	96.069915 
1429.000000	96.073487 
1428.000000	96.075212 
1427.000000	96.076724 
1426.000000	96.080056 
1425.000000	96.086994 
1424.000000	96.098116 
1423.000000	96.108365 
1422.000000	96.111811 
1421.000000	96.110636 
1420.000000	96.114003 
1419.000000	96.123818 
1418.000000	96.129502 
1417.000000	96.128840 
1416.000000	96.132096 
1415.000000	96.144364 
1414.000000	96.159712 
1413.000000	96.171157 
1412.000000	96.179741 
1411.000000	96.190162 
1410.000000	96.202427 
1409.000000	96.214530 
1408.000000	96.227067 
1407.000000	96.241685 
1406.000000	96.257976 
1405.000000	96.274907 
1404.000000	96.292777 
1403.000000	96.308947 
1402.000000	96.319772 
1401.000000	96.328295 
1400.000000	96.342857 
1399.000000	96.366442 
1398.000000	96.391636 
1397.000000	96.412058 
1396.000000	96.430810 
1395.000000	96.453163 
1394.000000	96.476527 
1393.000000	96.495757 
1392.000000	96.513190 
1391.000000	96.533354 
1390.000000	96.556123 
1389.000000	96.577947 
1388.000000	96.595906 
1387.000000	96.609846 
1386.000000	96.621918 
1385.000000	96.635867 
1384.000000	96.654888 
1383.000000	96.677842 
1382.000000	96.699706 
1381.000000	96.717402 
1380.000000	96.732427 
1379.000000	96.748122 
1378.000000	96.765759 
1377.000000	96.784053 
1376.000000	96.801411 
1375.000000	96.817274 
1374.000000	96.831734 
1373.000000	96.845654 
1372.000000	96.860186 
1371.000000	96.876216 
1370.000000	96.893979 
1369.000000	96.912308 
1368.000000	96.930648 
1367.000000	96.948727 
1366.000000	96.965520 
1365.000000	96.980255 
1364.000000	96.992584 
1363.000000	97.002433 
1362.000000	97.011281 
1361.000000	97.022043 
1360.000000	97.036585 
1359.000000	97.054339 
1358.000000	97.072648 
1357.000000	97.088556 
1356.000000	97.101148 
1355.000000	97.111712 
1354.000000	97.122130 
1353.000000	97.133983 
1352.000000	97.147362 
1351.000000	97.161918 
1350.000000	97.177697 
1349.000000	97.192812 
1348.000000	97.204907 
1347.000000	97.213756 
1346.000000	97.221606 
1345.000000	97.230250 
1344.000000	97.239501 
1343.000000	97.248758 
1342.000000	97.258369 
1341.000000	97.267950 
1340.000000	97.275236 
1339.000000	97.278763 
1338.000000	97.280187 
1337.000000	97.282334 
1336.000000	97.286047 
1335.000000	97.290222 
1334.000000	97.294374 
1333.000000	97.299370 
1332.000000	97.305325 
1331.000000	97.310875 
1330.000000	97.314921 
1329.000000	97.317877 
1328.000000	97.320968 
1327.000000	97.325333 
1326.000000	97.331199 
1325.000000	97.336754 
1324.000000	97.339691 
1323.000000	97.338961 
1322.000000	97.335380 
1321.000000	97.330980 
1320.000000	97.328069 
1319.000000	97.328220 
1318.000000	97.331491 
1317.000000	97.336452 
1316.000000	97.340849 
1315.000000	97.342800 
1314.000000	97.342220 
1313.000000	97.341482 
1312.000000	97.343394 
1311.000000	97.348116 
1310.000000	97.352952 
1309.000000	97.355664 
1308.000000	97.356826 
1307.000000	97.358639 
1306.000000	97.362175 
1305.000000	97.366187 
1304.000000	97.368902 
1303.000000	97.369049 
1302.000000	97.366085 
1301.000000	97.360801 
1300.000000	97.355950 
1299.000000	97.354687 
1298.000000	97.357643 
1297.000000	97.362090 
1296.000000	97.364487 
1295.000000	97.363807 
1294.000000	97.361821 
1293.000000	97.360684 
1292.000000	97.360832 
1291.000000	97.361219 
1290.000000	97.361153 
1289.000000	97.361192 
1288.000000	97.361949 
1287.000000	97.362673 
1286.000000	97.361805 
1285.000000	97.359094 
1284.000000	97.356338 
1283.000000	97.355325 
1282.000000	97.355623 
1281.000000	97.355035 
1280.000000	97.352251 
1279.000000	97.348658 
1278.000000	97.347257 
1277.000000	97.349837 
1276.000000	97.355089 
1275.000000	97.359935 
1274.000000	97.362668 
1273.000000	97.364329 
1272.000000	97.366596 
1271.000000	97.368893 
1270.000000	97.368672 
1269.000000	97.364486 
1268.000000	97.357777 
1267.000000	97.351245 
1266.000000	97.346487 
1265.000000	97.344142 
1264.000000	97.344910 
1263.000000	97.348664 
1262.000000	97.353363 
1261.000000	97.356611 
1260.000000	97.358579 
1259.000000	97.361965 
1258.000000	97.368037 
1257.000000	97.373883 
1256.000000	97.374628 
1255.000000	97.368824 
1254.000000	97.361123 
1253.000000	97.358316 
1252.000000	97.362043 
1251.000000	97.366916 
1250.000000	97.366987 
1249.000000	97.362696 
1248.000000	97.359383 
1247.000000	97.359870 
1246.000000	97.361574 
1245.000000	97.361609 
1244.000000	97.361111 
1243.000000	97.362509 
1242.000000	97.365241 
1241.000000	97.366880 
1240.000000	97.366674 
1239.000000	97.365377 
1238.000000	97.363019 
1237.000000	97.359450 
1236.000000	97.356170 
1235.000000	97.354960 
1234.000000	97.354956 
1233.000000	97.353194 
1232.000000	97.347806 
1231.000000	97.338994 
1230.000000	97.327716 
1229.000000	97.315384 
1228.000000	97.303769 
1227.000000	97.292584 
1226.000000	97.277603 
1225.000000	97.253784 
1224.000000	97.220514 
1223.000000	97.182028 
1222.000000	97.142657 
1221.000000	97.103400 
1220.000000	97.063051 
1219.000000	97.020414 
1218.000000	96.974777 
1217.000000	96.925911 
1216.000000	96.873879 
1215.000000	96.817799 
1214.000000	96.755868 
1213.000000	96.688811 
1212.000000	96.621912 
1211.000000	96.559694 
1210.000000	96.498886 
1209.000000	96.431079 
1208.000000	96.352994 
1207.000000	96.270173 
1206.000000	96.189421 
1205.000000	96.111219 
1204.000000	96.031498 
1203.000000	95.947650 
1202.000000	95.860477 
1201.000000	95.772469 
1200.000000	95.686198 
1199.000000	95.602859 
1198.000000	95.520771 
1197.000000	95.436768 
1196.000000	95.349729 
1195.000000	95.261110 
1194.000000	95.171895 
1193.000000	95.081130 
1192.000000	94.987798 
1191.000000	94.891743 
1190.000000	94.792367 
1189.000000	94.688795 
1188.000000	94.581709 
1187.000000	94.472919 
1186.000000	94.363071 
1185.000000	94.251767 
1184.000000	94.139112 
1183.000000	94.024615 
1182.000000	93.905957 
1181.000000	93.782227 
1180.000000	93.656887 
1179.000000	93.533358 
1178.000000	93.408858 
1177.000000	93.277485 
1176.000000	93.138309 
1175.000000	92.995098 
1174.000000	92.849173 
1173.000000	92.698880 
1172.000000	92.545960 
1171.000000	92.395259 
1170.000000	92.247431 
1169.000000	92.099284 
1168.000000	91.953028 
1167.000000	91.818380 
1166.000000	91.704229 
1165.000000	91.615706 
1164.000000	91.560619 
1163.000000	91.549058 
1162.000000	91.581592 
1161.000000	91.643253 
1160.000000	91.712004 
1159.000000	91.768491 
1158.000000	91.797382 
1157.000000	91.788064 
1156.000000	91.739021 
1155.000000	91.657708 
1154.000000	91.553616 
1153.000000	91.434441 
1152.000000	91.308874 
1151.000000	91.186158 
1150.000000	91.069781 
1149.000000	90.956855 
1148.000000	90.845780 
1147.000000	90.738803 
1146.000000	90.635360 
1145.000000	90.529754 
1144.000000	90.418416 
1143.000000	90.303731 
1142.000000	90.188411 
1141.000000	90.072162 
1140.000000	89.956161 
1139.000000	89.844254 
1138.000000	89.736792 
1137.000000	89.629138 
1136.000000	89.518606 
1135.000000	89.407004 
1134.000000	89.294695 
1133.000000	89.178799 
1132.000000	89.059113 
1131.000000	88.938944 
1130.000000	88.818090 
1129.000000	88.692002 
1128.000000	88.559958 
1127.000000	88.427044 
1126.000000	88.296059 
1125.000000	88.164521 
1124.000000	88.031406 
1123.000000	87.899175 
1122.000000	87.767243 
1121.000000	87.631671 
1120.000000	87.493865 
1119.000000	87.361314 
1118.000000	87.237210 
1117.000000	87.117807 
1116.000000	87.001660 
1115.000000	86.892187 
1114.000000	86.789227 
1113.000000	86.688001 
1112.000000	86.588336 
1111.000000	86.494368 
1110.000000	86.403532 
1109.000000	86.307215 
1108.000000	86.204011 
1107.000000	86.100535 
1106.000000	85.997791 
1105.000000	85.888968 
1104.000000	85.772742 
1103.000000	85.656586 
1102.000000	85.543930 
1101.000000	85.430628 
1100.000000	85.316220 
1099.000000	85.205733 
1098.000000	85.099767 
1097.000000	84.992997 
1096.000000	84.885165 
1095.000000	84.780619 
1094.000000	84.676347 
1093.000000	84.564272 
1092.000000	84.447088 
1091.000000	84.337694 
1090.000000	84.240882 
1089.000000	84.149264 
1088.000000	84.058212 
1087.000000	83.969558 
1086.000000	83.879623 
1085.000000	83.780543 
1084.000000	83.675984 
1083.000000	83.579036 
1082.000000	83.491334 
1081.000000	83.400427 
1080.000000	83.300625 
1079.000000	83.199080 
1078.000000	83.097653 
1077.000000	82.986352 
1076.000000	82.859813 
1075.000000	82.723497 
1074.000000	82.578573 
1073.000000	82.416808 
1072.000000	82.235023 
1071.000000	82.038289 
1070.000000	81.824426 
1069.000000	81.582183 
1068.000000	81.310427 
1067.000000	81.023575 
1066.000000	80.733158 
1065.000000	80.439579 
1064.000000	80.146061 
1063.000000	79.861914 
1062.000000	79.585390 
1061.000000	79.301404 
1060.000000	79.003606 
1059.000000	78.702360 
1058.000000	78.405146 
1057.000000	78.105993 
1056.000000	77.799897 
1055.000000	77.489961 
1054.000000	77.174532 
1053.000000	76.845613 
1052.000000	76.506776 
1051.000000	76.173223 
1050.000000	75.846334 
1049.000000	75.509613 
1048.000000	75.157125 
1047.000000	74.802552 
1046.000000	74.454418 
1045.000000	74.106137 
1044.000000	73.755252 
1043.000000	73.409517 
1042.000000	73.068810 
1041.000000	72.722969 
1040.000000	72.373362 
1039.000000	72.035357 
1038.000000	71.714169 
1037.000000	71.400255 
1036.000000	71.093152 
1035.000000	70.806374 
1034.000000	70.543469 
1033.000000	70.293367 
1032.000000	70.054633 
1031.000000	69.839431 
1030.000000	69.647883 
1029.000000	69.464268 
1028.000000	69.285177 
1027.000000	69.125825 
1026.000000	68.991429 
1025.000000	68.867570 
1024.000000	68.745381 
1023.000000	68.631103 
1022.000000	68.524079 
1021.000000	68.411059 
1020.000000	68.289481 
1019.000000	68.172017 
1018.000000	68.062180 
1017.000000	67.949787 
1016.000000	67.834882 
1015.000000	67.730088 
1014.000000	67.634457 
1013.000000	67.531736 
1012.000000	67.419832 
1011.000000	67.315253 
1010.000000	67.223465 
1009.000000	67.132617 
1008.000000	67.041981 
1007.000000	66.968173 
1006.000000	66.916693 
1005.000000	66.874857 
1004.000000	66.838734 
1003.000000	66.818926 
1002.000000	66.813618 
1001.000000	66.805300 
1000.000000	66.791848 
999.000000	 66.792201 
998.000000	 66.813285 
997.000000	 66.839578 
996.000000	 66.863380 
995.000000	 66.897327 
994.000000	 66.947882 
993.000000	 67.003737 
992.000000	 67.059367 
991.000000	 67.123737 
990.000000	 67.197294 
989.000000	 67.266790 
988.000000	 67.331252 
987.000000	 67.407184 
986.000000	 67.500429 
985.000000	 67.599338 
984.000000	 67.702800 
983.000000	 67.827306 
982.000000	 67.977244 
981.000000	 68.135045 
980.000000	 68.290266 
979.000000	 68.453131 
978.000000	 68.630220 
977.000000	 68.812731 
976.000000	 68.998339 
975.000000	 69.199674 
974.000000	 69.420953 
973.000000	 69.649532 
972.000000	 69.879750 
971.000000	 70.122472 
970.000000	 70.382229 
969.000000	 70.646913 
968.000000	 70.908135 
967.000000	 71.170574 
966.000000	 71.434523 
965.000000	 71.691349 
964.000000	 71.943011 
963.000000	 72.203992 
962.000000	 72.476658 
961.000000	 72.745629 
960.000000	 73.002902 
959.000000	 73.257518 
958.000000	 73.514549 
957.000000	 73.765986 
956.000000	 74.008921 
955.000000	 74.251723 
954.000000	 74.495516 
953.000000	 74.729329 
952.000000	 74.949359 
951.000000	 75.163548 
950.000000	 75.372823 
949.000000	 75.568239 
948.000000	 75.750877 
947.000000	 75.932946 
946.000000	 76.113907 
945.000000	 76.277086 
944.000000	 76.416213 
943.000000	 76.544879 
942.000000	 76.674066 
941.000000	 76.800300 
940.000000	 76.922085 
939.000000	 77.046937 
938.000000	 77.175057 
937.000000	 77.296314 
936.000000	 77.410792 
935.000000	 77.532822 
934.000000	 77.667588 
933.000000	 77.802949 
932.000000	 77.931334 
931.000000	 78.060535 
930.000000	 78.196010 
929.000000	 78.331502 
928.000000	 78.464404 
927.000000	 78.601882 
926.000000	 78.744221 
925.000000	 78.879149 
924.000000	 78.999214 
923.000000	 79.108702 
922.000000	 79.209225 
921.000000	 79.296255 
920.000000	 79.374203 
919.000000	 79.455967 
918.000000	 79.542056 
917.000000	 79.618790 
916.000000	 79.683027 
915.000000	 79.750637 
914.000000	 79.834888 
913.000000	 79.934863 
912.000000	 80.050602 
911.000000	 80.190605 
910.000000	 80.357767 
909.000000	 80.545803 
908.000000	 80.755278 
907.000000	 80.995484 
906.000000	 81.265741 
905.000000	 81.552669 
904.000000	 81.849803 
903.000000	 82.162026 
902.000000	 82.487906 
901.000000	 82.816596 
900.000000	 83.145123 
899.000000	 83.479969 
898.000000	 83.818925 
897.000000	 84.149841 
896.000000	 84.469259 
895.000000	 84.783769 
894.000000	 85.091726 
893.000000	 85.382867 
892.000000	 85.657468 
891.000000	 85.926244 
890.000000	 86.189049 
889.000000	 86.432999 
888.000000	 86.654371 
887.000000	 86.863216 
886.000000	 87.063236 
885.000000	 87.245871 
884.000000	 87.407687 
883.000000	 87.555180 
882.000000	 87.690060 
881.000000	 87.809848 
880.000000	 87.925973 
879.000000	 88.058994 
878.000000	 88.210310 
877.000000	 88.360732 
876.000000	 88.503289 
875.000000	 88.655488 
874.000000	 88.833038 
873.000000	 89.034239 
872.000000	 89.256628 
871.000000	 89.505373 
870.000000	 89.776586 
869.000000	 90.053340 
868.000000	 90.326650 
867.000000	 90.602143 
866.000000	 90.879846 
865.000000	 91.146619 
864.000000	 91.396625 
863.000000	 91.642303 
862.000000	 91.896088 
861.000000	 92.154955 
860.000000	 92.410576 
859.000000	 92.661458 
858.000000	 92.907565 
857.000000	 93.143983 
856.000000	 93.366042 
855.000000	 93.571696 
854.000000	 93.756326 
853.000000	 93.915870 
852.000000	 94.057348 
851.000000	 94.195550 
850.000000	 94.337480 
849.000000	 94.480064 
848.000000	 94.621579 
847.000000	 94.761193 
846.000000	 94.888130 
845.000000	 94.988038 
844.000000	 95.062287 
843.000000	 95.126165 
842.000000	 95.185980 
841.000000	 95.232472 
840.000000	 95.257760 
839.000000	 95.262328 
838.000000	 95.244351 
837.000000	 95.201203 
836.000000	 95.146232 
835.000000	 95.105762 
834.000000	 95.091193 
833.000000	 95.088764 
832.000000	 95.083417 
831.000000	 95.077373 
830.000000	 95.079013 
829.000000	 95.090960 
828.000000	 95.119147 
827.000000	 95.177006 
826.000000	 95.267391 
825.000000	 95.373001 
824.000000	 95.474938 
823.000000	 95.567885 
822.000000	 95.651395 
821.000000	 95.723936 
820.000000	 95.791606 
819.000000	 95.864438 
818.000000	 95.936780 
817.000000	 95.985683 
816.000000	 95.993861 
815.000000	 95.961606 
814.000000	 95.892638 
813.000000	 95.782501 
812.000000	 95.626174 
811.000000	 95.421794 
810.000000	 95.158443 
809.000000	 94.814271 
808.000000	 94.377945 
807.000000	 93.863354 
806.000000	 93.296245 
805.000000	 92.697149 
804.000000	 92.085153 
803.000000	 91.484830 
802.000000	 90.918320 
801.000000	 90.402161 
800.000000	 89.959743 
799.000000	 89.620855 
798.000000	 89.397779 
797.000000	 89.275097 
796.000000	 89.230148 
795.000000	 89.247712 
794.000000	 89.309196 
793.000000	 89.387962 
792.000000	 89.466295 
791.000000	 89.542414 
790.000000	 89.613635 
789.000000	 89.666657 
788.000000	 89.688981 
787.000000	 89.674994 
786.000000	 89.617429 
785.000000	 89.508788 
784.000000	 89.355016 
783.000000	 89.172222 
782.000000	 88.968216 
781.000000	 88.746210 
780.000000	 88.529231 
779.000000	 88.358420 
778.000000	 88.259730 
777.000000	 88.230953 
776.000000	 88.264810 
775.000000	 88.360931 
774.000000	 88.508203 
773.000000	 88.679638 
772.000000	 88.855444 
771.000000	 89.032451 
770.000000	 89.205050 
769.000000	 89.358645 
768.000000	 89.488543 
767.000000	 89.602964 
766.000000	 89.699940 
765.000000	 89.764493 
764.000000	 89.798686 
763.000000	 89.831713 
762.000000	 89.887356 
761.000000	 89.960626 
760.000000	 90.037493 
759.000000	 90.117377 
758.000000	 90.203917 
757.000000	 90.293900 
756.000000	 90.389884 
755.000000	 90.505941 
754.000000	 90.645460 
753.000000	 90.787424 
752.000000	 90.908226 
751.000000	 91.005530 
750.000000	 91.091572 
749.000000	 91.176849 
748.000000	 91.269860 
747.000000	 91.378396 
746.000000	 91.500071 
745.000000	 91.623262 
744.000000	 91.745935 
743.000000	 91.881545 
742.000000	 92.039288 
741.000000	 92.212243 
740.000000	 92.391954 
739.000000	 92.580157 
738.000000	 92.777897 
737.000000	 92.975713 
736.000000	 93.162552 
735.000000	 93.334579 
734.000000	 93.490799 
733.000000	 93.630761 
732.000000	 93.759068 
731.000000	 93.879824 
730.000000	 93.984685 
729.000000	 94.059738 
728.000000	 94.108595 
727.000000	 94.154152 
726.000000	 94.213106 
725.000000	 94.285099 
724.000000	 94.368101 
723.000000	 94.464993 
722.000000	 94.571256 
721.000000	 94.675416 
720.000000	 94.777375 
719.000000	 94.886849 
718.000000	 94.999193 
717.000000	 95.095564 
716.000000	 95.170826 
715.000000	 95.240687 
714.000000	 95.316366 
713.000000	 95.392039 
712.000000	 95.465649 
711.000000	 95.549270 
710.000000	 95.646318 
709.000000	 95.739393 
708.000000	 95.811828 
707.000000	 95.864565 
706.000000	 95.899706 
705.000000	 95.907990 
704.000000	 95.884945 
703.000000	 95.836933 
702.000000	 95.757872 
701.000000	 95.618153 
700.000000	 95.391080 
699.000000	 95.081706 
698.000000	 94.721276 
697.000000	 94.352800 
696.000000	 94.032105 
695.000000	 93.815910 
694.000000	 93.731396 
693.000000	 93.764917 
692.000000	 93.885556 
691.000000	 94.068533 
690.000000	 94.288300 
689.000000	 94.512159 
688.000000	 94.717044 
687.000000	 94.898171 
686.000000	 95.054526 
685.000000	 95.181515 
684.000000	 95.283616 
683.000000	 95.375985 
682.000000	 95.464948 
681.000000	 95.545201 
680.000000	 95.619986 
679.000000	 95.704500 
678.000000	 95.801406 
677.000000	 95.896428 
676.000000	 95.994923 
675.000000	 96.114874 
674.000000	 96.244735 
673.000000	 96.346073 
672.000000	 96.410741 
671.000000	 96.483928 
670.000000	 96.628364 
669.000000	 96.874130 
668.000000	 97.114749 
667.000000	 97.186590 
666.000000	 97.158664 
665.000000	 97.134250 
664.000000	 97.120794 
663.000000	 97.123484 
662.000000	 97.155010 
661.000000	 97.205072 
660.000000	 97.260704 
659.000000	 97.326712 
658.000000	 97.399337 
657.000000	 97.447373 
656.000000	 97.457840 
655.000000	 97.449949 
654.000000	 97.430409 
653.000000	 97.379260 
652.000000	 97.305284 
651.000000	 97.267836 
650.000000	 97.302816 

