4000.000000	97.071102 
3999.000000	97.068441 
3998.000000	97.063975 
3997.000000	97.059164 
3996.000000	97.055924 
3995.000000	97.055281 
3994.000000	97.056903 
3993.000000	97.058951 
3992.000000	97.059286 
3991.000000	97.057227 
3990.000000	97.053919 
3989.000000	97.051276 
3988.000000	97.050313 
3987.000000	97.050816 
3986.000000	97.052113 
3985.000000	97.053683 
3984.000000	97.055097 
3983.000000	97.056033 
3982.000000	97.056749 
3981.000000	97.057975 
3980.000000	97.059822 
3979.000000	97.061153 
3978.000000	97.060664 
3977.000000	97.058322 
3976.000000	97.055396 
3975.000000	97.052982 
3974.000000	97.051053 
3973.000000	97.049070 
3972.000000	97.046755 
3971.000000	97.044222 
3970.000000	97.041877 
3969.000000	97.040378 
3968.000000	97.040140 
3967.000000	97.040826 
3966.000000	97.041521 
3965.000000	97.041404 
3964.000000	97.040240 
3963.000000	97.038358 
3962.000000	97.036441 
3961.000000	97.035107 
3960.000000	97.034409 
3959.000000	97.033885 
3958.000000	97.033108 
3957.000000	97.032146 
3956.000000	97.031276 
3955.000000	97.030620 
3954.000000	97.030181 
3953.000000	97.029924 
3952.000000	97.029717 
3951.000000	97.029241 
3950.000000	97.028226 
3949.000000	97.026732 
3948.000000	97.025187 
3947.000000	97.024052 
3946.000000	97.023443 
3945.000000	97.023048 
3944.000000	97.022448 
3943.000000	97.021622 
3942.000000	97.021030 
3941.000000	97.021039 
3940.000000	97.021426 
3939.000000	97.021599 
3938.000000	97.021280 
3937.000000	97.020837 
3936.000000	97.020566 
3935.000000	97.019936 
3934.000000	97.018122 
3933.000000	97.015120 
3932.000000	97.012134 
3931.000000	97.010326 
3930.000000	97.009878 
3929.000000	97.010514 
3928.000000	97.011885 
3927.000000	97.013194 
3926.000000	97.013164 
3925.000000	97.011484 
3924.000000	97.009468 
3923.000000	97.008280 
3922.000000	97.007520 
3921.000000	97.006495 
3920.000000	97.005620 
3919.000000	97.005640 
3918.000000	97.006032 
3917.000000	97.005700 
3916.000000	97.004685 
3915.000000	97.003939 
3914.000000	97.003730 
3913.000000	97.003580 
3912.000000	97.003216 
3911.000000	97.002873 
3910.000000	97.002461 
3909.000000	97.001594 
3908.000000	97.000096 
3907.000000	96.998192 
3906.000000	96.996043 
3905.000000	96.993690 
3904.000000	96.991507 
3903.000000	96.989966 
3902.000000	96.989142 
3901.000000	96.988760 
3900.000000	96.988607 
3899.000000	96.988621 
3898.000000	96.988613 
3897.000000	96.988324 
3896.000000	96.987740 
3895.000000	96.987046 
3894.000000	96.986359 
3893.000000	96.985684 
3892.000000	96.985017 
3891.000000	96.984373 
3890.000000	96.983745 
3889.000000	96.983138 
3888.000000	96.982548 
3887.000000	96.981960 
3886.000000	96.981364 
3885.000000	96.980763 
3884.000000	96.980158 
3883.000000	96.979539 
3882.000000	96.978897 
3881.000000	96.978242 
3880.000000	96.977605 
3879.000000	96.977015 
3878.000000	96.976476 
3877.000000	96.975976 
3876.000000	96.975496 
3875.000000	96.975028 
3874.000000	96.974577 
3873.000000	96.974148 
3872.000000	96.973738 
3871.000000	96.973340 
3870.000000	96.972967 
3869.000000	96.972644 
3868.000000	96.972378 
3867.000000	96.972148 
3866.000000	96.971931 
3865.000000	96.971724 
3864.000000	96.971534 
3863.000000	96.971355 
3862.000000	96.971168 
3861.000000	96.970966 
3860.000000	96.970755 
3859.000000	96.970544 
3858.000000	96.970336 
3857.000000	96.970141 
3856.000000	96.969974 
3855.000000	96.969844 
3854.000000	96.969758 
3853.000000	96.969725 
3852.000000	96.969742 
3851.000000	96.969800 
3850.000000	96.969884 
3849.000000	96.969983 
3848.000000	96.970084 
3847.000000	96.970179 
3846.000000	96.970252 
3845.000000	96.970282 
3844.000000	96.970248 
3843.000000	96.970151 
3842.000000	96.970055 
3841.000000	96.970071 
3840.000000	96.970264 
3839.000000	96.970628 
3838.000000	96.971075 
3837.000000	96.971493 
3836.000000	96.971841 
3835.000000	96.972145 
3834.000000	96.972436 
3833.000000	96.972734 
3832.000000	96.973041 
3831.000000	96.973353 
3830.000000	96.973660 
3829.000000	96.973959 
3828.000000	96.974245 
3827.000000	96.974511 
3826.000000	96.974750 
3825.000000	96.974971 
3824.000000	96.975183 
3823.000000	96.975388 
3822.000000	96.975578 
3821.000000	96.975759 
3820.000000	96.975953 
3819.000000	96.976171 
3818.000000	96.976403 
3817.000000	96.976626 
3816.000000	96.976830 
3815.000000	96.977017 
3814.000000	96.977175 
3813.000000	96.977289 
3812.000000	96.977350 
3811.000000	96.977370 
3810.000000	96.977361 
3809.000000	96.977329 
3808.000000	96.977265 
3807.000000	96.977171 
3806.000000	96.977069 
3805.000000	96.976988 
3804.000000	96.976942 
3803.000000	96.976929 
3802.000000	96.976946 
3801.000000	96.976992 
3800.000000	96.977051 
3799.000000	96.977089 
3798.000000	96.977068 
3797.000000	96.976972 
3796.000000	96.976800 
3795.000000	96.976549 
3794.000000	96.976209 
3793.000000	96.975778 
3792.000000	96.975265 
3791.000000	96.974682 
3790.000000	96.974037 
3789.000000	96.973342 
3788.000000	96.972616 
3787.000000	96.971871 
3786.000000	96.971155 
3785.000000	96.970470 
3784.000000	96.969734 
3783.000000	96.968913 
3782.000000	96.968011 
3781.000000	96.966966 
3780.000000	96.965834 
3779.000000	96.965021 
3778.000000	96.964843 
3777.000000	96.964878 
3776.000000	96.964201 
3775.000000	96.962473 
3774.000000	96.960374 
3773.000000	96.958952 
3772.000000	96.958328 
3771.000000	96.957685 
3770.000000	96.956727 
3769.000000	96.956221 
3768.000000	96.956472 
3767.000000	96.956379 
3766.000000	96.954655 
3765.000000	96.951753 
3764.000000	96.949794 
3763.000000	96.949916 
3762.000000	96.950783 
3761.000000	96.950579 
3760.000000	96.949447 
3759.000000	96.948277 
3758.000000	96.945820 
3757.000000	96.940909 
3756.000000	96.934802 
3755.000000	96.928808 
3754.000000	96.921956 
3753.000000	96.913789 
3752.000000	96.908629 
3751.000000	96.910097 
3750.000000	96.913445 
3749.000000	96.913171 
3748.000000	96.912766 
3747.000000	96.917430 
3746.000000	96.922873 
3745.000000	96.922100 
3744.000000	96.920390 
3743.000000	96.922971 
3742.000000	96.923679 
3741.000000	96.916981 
3740.000000	96.906508 
3739.000000	96.901312 
3738.000000	96.902311 
3737.000000	96.900195 
3736.000000	96.891934 
3735.000000	96.888389 
3734.000000	96.897420 
3733.000000	96.911210 
3732.000000	96.918715 
3731.000000	96.918290 
3730.000000	96.913816 
3729.000000	96.906632 
3728.000000	96.894758 
3727.000000	96.879648 
3726.000000	96.868673 
3725.000000	96.865988 
3724.000000	96.867832 
3723.000000	96.869628 
3722.000000	96.871619 
3721.000000	96.875215 
3720.000000	96.878669 
3719.000000	96.878493 
3718.000000	96.871818 
3717.000000	96.859714 
3716.000000	96.845939 
3715.000000	96.831500 
3714.000000	96.814219 
3713.000000	96.794466 
3712.000000	96.778575 
3711.000000	96.771755 
3710.000000	96.770930 
3709.000000	96.769425 
3708.000000	96.762833 
3707.000000	96.750821 
3706.000000	96.736422 
3705.000000	96.722713 
3704.000000	96.709979 
3703.000000	96.695902 
3702.000000	96.678112 
3701.000000	96.656358 
3700.000000	96.632989 
3699.000000	96.611045 
3698.000000	96.591018 
3697.000000	96.572482 
3696.000000	96.557220 
3695.000000	96.544967 
3694.000000	96.531822 
3693.000000	96.517814 
3692.000000	96.511151 
3691.000000	96.519774 
3690.000000	96.539000 
3689.000000	96.555217 
3688.000000	96.560753 
3687.000000	96.558474 
3686.000000	96.552133 
3685.000000	96.540030 
3684.000000	96.521439 
3683.000000	96.501826 
3682.000000	96.484533 
3681.000000	96.462988 
3680.000000	96.432463 
3679.000000	96.402213 
3678.000000	96.384064 
3677.000000	96.369454 
3676.000000	96.343201 
3675.000000	96.310679 
3674.000000	96.284058 
3673.000000	96.264464 
3672.000000	96.243064 
3671.000000	96.213511 
3670.000000	96.186274 
3669.000000	96.171287 
3668.000000	96.158717 
3667.000000	96.137097 
3666.000000	96.107757 
3665.000000	96.078174 
3664.000000	96.052780 
3663.000000	96.029421 
3662.000000	96.001685 
3661.000000	95.966165 
3660.000000	95.927065 
3659.000000	95.890900 
3658.000000	95.858206 
3657.000000	95.822196 
3656.000000	95.780289 
3655.000000	95.737790 
3654.000000	95.700223 
3653.000000	95.666834 
3652.000000	95.630890 
3651.000000	95.589341 
3650.000000	95.549807 
3649.000000	95.518181 
3648.000000	95.490080 
3647.000000	95.462399 
3646.000000	95.437504 
3645.000000	95.416231 
3644.000000	95.395767 
3643.000000	95.374177 
3642.000000	95.352611 
3641.000000	95.332484 
3640.000000	95.310724 
3639.000000	95.282655 
3638.000000	95.249013 
3637.000000	95.213925 
3636.000000	95.177090 
3635.000000	95.133843 
3634.000000	95.087053 
3633.000000	95.049143 
3632.000000	95.027488 
3631.000000	95.011031 
3630.000000	94.980910 
3629.000000	94.942576 
3628.000000	94.916233 
3627.000000	94.901531 
3626.000000	94.886363 
3625.000000	94.868118 
3624.000000	94.854167 
3623.000000	94.852081 
3622.000000	94.859546 
3621.000000	94.865354 
3620.000000	94.861778 
3619.000000	94.852185 
3618.000000	94.844356 
3617.000000	94.844582 
3616.000000	94.856602 
3615.000000	94.877818 
3614.000000	94.901051 
3613.000000	94.920915 
3612.000000	94.935699 
3611.000000	94.944791 
3610.000000	94.948917 
3609.000000	94.953560 
3608.000000	94.966975 
3607.000000	94.991615 
3606.000000	95.021670 
3605.000000	95.051106 
3604.000000	95.078017 
3603.000000	95.101448 
3602.000000	95.118479 
3601.000000	95.126694 
3600.000000	95.128924 
3599.000000	95.130494 
3598.000000	95.134725 
3597.000000	95.142629 
3596.000000	95.153653 
3595.000000	95.163899 
3594.000000	95.169333 
3593.000000	95.169755 
3592.000000	95.169887 
3591.000000	95.174845 
3590.000000	95.183172 
3589.000000	95.187934 
3588.000000	95.187297 
3587.000000	95.188521 
3586.000000	95.197167 
3585.000000	95.210675 
3584.000000	95.223854 
3583.000000	95.234201 
3582.000000	95.242431 
3581.000000	95.249273 
3580.000000	95.253732 
3579.000000	95.254255 
3578.000000	95.251576 
3577.000000	95.249014 
3576.000000	95.249195 
3575.000000	95.251291 
3574.000000	95.252377 
3573.000000	95.251223 
3572.000000	95.248863 
3571.000000	95.246109 
3570.000000	95.240752 
3569.000000	95.229543 
3568.000000	95.215214 
3567.000000	95.207495 
3566.000000	95.211594 
3565.000000	95.222341 
3564.000000	95.231766 
3563.000000	95.236277 
3562.000000	95.236372 
3561.000000	95.233551 
3560.000000	95.228868 
3559.000000	95.223594 
3558.000000	95.219539 
3557.000000	95.218240 
3556.000000	95.219771 
3555.000000	95.222624 
3554.000000	95.224695 
3553.000000	95.224841 
3552.000000	95.223373 
3551.000000	95.221017 
3550.000000	95.218086 
3549.000000	95.214701 
3548.000000	95.211161 
3547.000000	95.207623 
3546.000000	95.203897 
3545.000000	95.200303 
3544.000000	95.198262 
3543.000000	95.198913 
3542.000000	95.201442 
3541.000000	95.203805 
3540.000000	95.204705 
3539.000000	95.204247 
3538.000000	95.203001 
3537.000000	95.201355 
3536.000000	95.199591 
3535.000000	95.197879 
3534.000000	95.196216 
3533.000000	95.194536 
3532.000000	95.192918 
3531.000000	95.191516 
3530.000000	95.190343 
3529.000000	95.189220 
3528.000000	95.187916 
3527.000000	95.186315 
3526.000000	95.184484 
3525.000000	95.182660 
3524.000000	95.181119 
3523.000000	95.179942 
3522.000000	95.178918 
3521.000000	95.177737 
3520.000000	95.176232 
3519.000000	95.174457 
3518.000000	95.172585 
3517.000000	95.170762 
3516.000000	95.169033 
3515.000000	95.167386 
3514.000000	95.165794 
3513.000000	95.164185 
3512.000000	95.162434 
3511.000000	95.160444 
3510.000000	95.158222 
3509.000000	95.155858 
3508.000000	95.153495 
3507.000000	95.151282 
3506.000000	95.149290 
3505.000000	95.147468 
3504.000000	95.145644 
3503.000000	95.143648 
3502.000000	95.141441 
3501.000000	95.139088 
3500.000000	95.136661 
3499.000000	95.134188 
3498.000000	95.131717 
3497.000000	95.129346 
3496.000000	95.127088 
3495.000000	95.124744 
3494.000000	95.122062 
3493.000000	95.119050 
3492.000000	95.116029 
3491.000000	95.113308 
3490.000000	95.110870 
3489.000000	95.108402 
3488.000000	95.105583 
3487.000000	95.102309 
3486.000000	95.098703 
3485.000000	95.095032 
3484.000000	95.091623 
3483.000000	95.088735 
3482.000000	95.086462 
3481.000000	95.084658 
3480.000000	95.082918 
3479.000000	95.080687 
3478.000000	95.077503 
3477.000000	95.073263 
3476.000000	95.068318 
3475.000000	95.063255 
3474.000000	95.058643 
3473.000000	95.054925 
3472.000000	95.052256 
3471.000000	95.050228 
3470.000000	95.047898 
3469.000000	95.044444 
3468.000000	95.039831 
3467.000000	95.034814 
3466.000000	95.030208 
3465.000000	95.026221 
3464.000000	95.022541 
3463.000000	95.018797 
3462.000000	95.014773 
3461.000000	95.010274 
3460.000000	95.005122 
3459.000000	94.999400 
3458.000000	94.993541 
3457.000000	94.988067 
3456.000000	94.983276 
3455.000000	94.979205 
3454.000000	94.975738 
3453.000000	94.972593 
3452.000000	94.969381 
3451.000000	94.965785 
3450.000000	94.961716 
3449.000000	94.957223 
3448.000000	94.952333 
3447.000000	94.947033 
3446.000000	94.941362 
3445.000000	94.935589 
3444.000000	94.930268 
3443.000000	94.925953 
3442.000000	94.922750 
3441.000000	94.920107 
3440.000000	94.917104 
3439.000000	94.913051 
3438.000000	94.907821 
3437.000000	94.901818 
3436.000000	94.895865 
3435.000000	94.890885 
3434.000000	94.887344 
3433.000000	94.884867 
3432.000000	94.882531 
3431.000000	94.879719 
3430.000000	94.876557 
3429.000000	94.873478 
3428.000000	94.870477 
3427.000000	94.866999 
3426.000000	94.862621 
3425.000000	94.857718 
3424.000000	94.853242 
3423.000000	94.849789 
3422.000000	94.846962 
3421.000000	94.843833 
3420.000000	94.840048 
3419.000000	94.836239 
3418.000000	94.833232 
3417.000000	94.831111 
3416.000000	94.829223 
3415.000000	94.826927 
3414.000000	94.824020 
3413.000000	94.820506 
3412.000000	94.816438 
3411.000000	94.812205 
3410.000000	94.808654 
3409.000000	94.806484 
3408.000000	94.805540 
3407.000000	94.804880 
3406.000000	94.803653 
3405.000000	94.801831 
3404.000000	94.799968 
3403.000000	94.798378 
3402.000000	94.796727 
3401.000000	94.794404 
3400.000000	94.791150 
3399.000000	94.787342 
3398.000000	94.783840 
3397.000000	94.781493 
3396.000000	94.780565 
3395.000000	94.780543 
3394.000000	94.780578 
3393.000000	94.780107 
3392.000000	94.778974 
3391.000000	94.777212 
3390.000000	94.775125 
3389.000000	94.773553 
3388.000000	94.773529 
3387.000000	94.775310 
3386.000000	94.777789 
3385.000000	94.779128 
3384.000000	94.778213 
3383.000000	94.775368 
3382.000000	94.771984 
3381.000000	94.769460 
3380.000000	94.768356 
3379.000000	94.768424 
3378.000000	94.769218 
3377.000000	94.770533 
3376.000000	94.772217 
3375.000000	94.773743 
3374.000000	94.774355 
3373.000000	94.773862 
3372.000000	94.773154 
3371.000000	94.773612 
3370.000000	94.775836 
3369.000000	94.778976 
3368.000000	94.781384 
3367.000000	94.782101 
3366.000000	94.781562 
3365.000000	94.780901 
3364.000000	94.780697 
3363.000000	94.780713 
3362.000000	94.780774 
3361.000000	94.781358 
3360.000000	94.782982 
3359.000000	94.785331 
3358.000000	94.787477 
3357.000000	94.788992 
3356.000000	94.790435 
3355.000000	94.792565 
3354.000000	94.795411 
3353.000000	94.798305 
3352.000000	94.800645 
3351.000000	94.802388 
3350.000000	94.803852 
3349.000000	94.805304 
3348.000000	94.806863 
3347.000000	94.808707 
3346.000000	94.811070 
3345.000000	94.813789 
3344.000000	94.816044 
3343.000000	94.816922 
3342.000000	94.816364 
3341.000000	94.815454 
3340.000000	94.815297 
3339.000000	94.815955 
3338.000000	94.816928 
3337.000000	94.818182 
3336.000000	94.820170 
3335.000000	94.822980 
3334.000000	94.825962 
3333.000000	94.828351 
3332.000000	94.830031 
3331.000000	94.831408 
3330.000000	94.832795 
3329.000000	94.834208 
3328.000000	94.835689 
3327.000000	94.837456 
3326.000000	94.839598 
3325.000000	94.841782 
3324.000000	94.843469 
3323.000000	94.844468 
3322.000000	94.845099 
3321.000000	94.845893 
3320.000000	94.847121 
3319.000000	94.848735 
3318.000000	94.850623 
3317.000000	94.852743 
3316.000000	94.854985 
3315.000000	94.857122 
3314.000000	94.859013 
3313.000000	94.860760 
3312.000000	94.862530 
3311.000000	94.864314 
3310.000000	94.865973 
3309.000000	94.867489 
3308.000000	94.869003 
3307.000000	94.870597 
3306.000000	94.872188 
3305.000000	94.873694 
3304.000000	94.875189 
3303.000000	94.876821 
3302.000000	94.878625 
3301.000000	94.880481 
3300.000000	94.882209 
3299.000000	94.883751 
3298.000000	94.885164 
3297.000000	94.886574 
3296.000000	94.888081 
3295.000000	94.889726 
3294.000000	94.891512 
3293.000000	94.893392 
3292.000000	94.895237 
3291.000000	94.896905 
3290.000000	94.898341 
3289.000000	94.899635 
3288.000000	94.900937 
3287.000000	94.902323 
3286.000000	94.903791 
3285.000000	94.905326 
3284.000000	94.906939 
3283.000000	94.908624 
3282.000000	94.910333 
3281.000000	94.912027 
3280.000000	94.913714 
3279.000000	94.915433 
3278.000000	94.917205 
3277.000000	94.919018 
3276.000000	94.920851 
3275.000000	94.922685 
3274.000000	94.924500 
3273.000000	94.926281 
3272.000000	94.928028 
3271.000000	94.929767 
3270.000000	94.931530 
3269.000000	94.933323 
3268.000000	94.935128 
3267.000000	94.936935 
3266.000000	94.938764 
3265.000000	94.940651 
3264.000000	94.942602 
3263.000000	94.944592 
3262.000000	94.946590 
3261.000000	94.948589 
3260.000000	94.950590 
3259.000000	94.952591 
3258.000000	94.954593 
3257.000000	94.956613 
3256.000000	94.958673 
3255.000000	94.960786 
3254.000000	94.962947 
3253.000000	94.965152 
3252.000000	94.967398 
3251.000000	94.969691 
3250.000000	94.972033 
3249.000000	94.974419 
3248.000000	94.976839 
3247.000000	94.979286 
3246.000000	94.981764 
3245.000000	94.984280 
3244.000000	94.986842 
3243.000000	94.989447 
3242.000000	94.992088 
3241.000000	94.994757 
3240.000000	94.997452 
3239.000000	95.000177 
3238.000000	95.002942 
3237.000000	95.005755 
3236.000000	95.008614 
3235.000000	95.011510 
3234.000000	95.014427 
3233.000000	95.017352 
3232.000000	95.020287 
3231.000000	95.023243 
3230.000000	95.026238 
3229.000000	95.029290 
3228.000000	95.032408 
3227.000000	95.035591 
3226.000000	95.038832 
3225.000000	95.042115 
3224.000000	95.045425 
3223.000000	95.048749 
3222.000000	95.052088 
3221.000000	95.055457 
3220.000000	95.058873 
3219.000000	95.062351 
3218.000000	95.065894 
3217.000000	95.069501 
3216.000000	95.073163 
3215.000000	95.076877 
3214.000000	95.080637 
3213.000000	95.084439 
3212.000000	95.088277 
3211.000000	95.092146 
3210.000000	95.096040 
3209.000000	95.099955 
3208.000000	95.103894 
3207.000000	95.107868 
3206.000000	95.111890 
3205.000000	95.115971 
3204.000000	95.120113 
3203.000000	95.124312 
3202.000000	95.128555 
3201.000000	95.132826 
3200.000000	95.137111 
3199.000000	95.141409 
3198.000000	95.145731 
3197.000000	95.150094 
3196.000000	95.154502 
3195.000000	95.158949 
3194.000000	95.163428 
3193.000000	95.167939 
3192.000000	95.172488 
3191.000000	95.177079 
3190.000000	95.181713 
3189.000000	95.186392 
3188.000000	95.191115 
3187.000000	95.195875 
3186.000000	95.200666 
3185.000000	95.205478 
3184.000000	95.210310 
3183.000000	95.215162 
3182.000000	95.220042 
3181.000000	95.224961 
3180.000000	95.229933 
3179.000000	95.234961 
3178.000000	95.240041 
3177.000000	95.245158 
3176.000000	95.250295 
3175.000000	95.255437 
3174.000000	95.260578 
3173.000000	95.265722 
3172.000000	95.270875 
3171.000000	95.276040 
3170.000000	95.281220 
3169.000000	95.286414 
3168.000000	95.291626 
3167.000000	95.296856 
3166.000000	95.302103 
3165.000000	95.307368 
3164.000000	95.312651 
3163.000000	95.317952 
3162.000000	95.323265 
3161.000000	95.328583 
3160.000000	95.333904 
3159.000000	95.339231 
3158.000000	95.344576 
3157.000000	95.349948 
3156.000000	95.355350 
3155.000000	95.360773 
3154.000000	95.366207 
3153.000000	95.371647 
3152.000000	95.377095 
3151.000000	95.382553 
3150.000000	95.388022 
3149.000000	95.393501 
3148.000000	95.398995 
3147.000000	95.404508 
3146.000000	95.410042 
3145.000000	95.415596 
3144.000000	95.421162 
3143.000000	95.426729 
3142.000000	95.432291 
3141.000000	95.437845 
3140.000000	95.443395 
3139.000000	95.448949 
3138.000000	95.454506 
3137.000000	95.460063 
3136.000000	95.465611 
3135.000000	95.471143 
3134.000000	95.476663 
3133.000000	95.482182 
3132.000000	95.487701 
3131.000000	95.493220 
3130.000000	95.498731 
3129.000000	95.504223 
3128.000000	95.509740 
3127.000000	95.515366 
3126.000000	95.521129 
3125.000000	95.526947 
3124.000000	95.532706 
3123.000000	95.538359 
3122.000000	95.543920 
3121.000000	95.549399 
3120.000000	95.554804 
3119.000000	95.560189 
3118.000000	95.565633 
3117.000000	95.571146 
3116.000000	95.576629 
3115.000000	95.581980 
3114.000000	95.587248 
3113.000000	95.592647 
3112.000000	95.598401 
3111.000000	95.604572 
3110.000000	95.610951 
3109.000000	95.617105 
3108.000000	95.622659 
3107.000000	95.627602 
3106.000000	95.632333 
3105.000000	95.637287 
3104.000000	95.642524 
3103.000000	95.647759 
3102.000000	95.652704 
3101.000000	95.657290 
3100.000000	95.661586 
3099.000000	95.665757 
3098.000000	95.670152 
3097.000000	95.675235 
3096.000000	95.681198 
3095.000000	95.687636 
3094.000000	95.693812 
3093.000000	95.699339 
3092.000000	95.704367 
3091.000000	95.709154 
3090.000000	95.713698 
3089.000000	95.717896 
3088.000000	95.721845 
3087.000000	95.725877 
3086.000000	95.730337 
3085.000000	95.735310 
3084.000000	95.740511 
3083.000000	95.745486 
3082.000000	95.750022 
3081.000000	95.754317 
3080.000000	95.758708 
3079.000000	95.763306 
3078.000000	95.767990 
3077.000000	95.772684 
3076.000000	95.777424 
3075.000000	95.782153 
3074.000000	95.786651 
3073.000000	95.790782 
3072.000000	95.794720 
3071.000000	95.798805 
3070.000000	95.803179 
3069.000000	95.807717 
3068.000000	95.812252 
3067.000000	95.816730 
3066.000000	95.821106 
3065.000000	95.825275 
3064.000000	95.829193 
3063.000000	95.833003 
3062.000000	95.836976 
3061.000000	95.841310 
3060.000000	95.845997 
3059.000000	95.850830 
3058.000000	95.855584 
3057.000000	95.860219 
3056.000000	95.864804 
3055.000000	95.869214 
3054.000000	95.873120 
3053.000000	95.876450 
3052.000000	95.879731 
3051.000000	95.883657 
3050.000000	95.888348 
3049.000000	95.893190 
3048.000000	95.897419 
3047.000000	95.900756 
3046.000000	95.903434 
3045.000000	95.905960 
3044.000000	95.908902 
3043.000000	95.912701 
3042.000000	95.917414 
3041.000000	95.922525 
3040.000000	95.927204 
3039.000000	95.930955 
3038.000000	95.933926 
3037.000000	95.936664 
3036.000000	95.939636 
3035.000000	95.942969 
3034.000000	95.946496 
3033.000000	95.949904 
3032.000000	95.952886 
3031.000000	95.955322 
3030.000000	95.957400 
3029.000000	95.959493 
3028.000000	95.961790 
3027.000000	95.964086 
3026.000000	95.966065 
3025.000000	95.967805 
3024.000000	95.969879 
3023.000000	95.972783 
3022.000000	95.976399 
3021.000000	95.980130 
3020.000000	95.983518 
3019.000000	95.986513 
3018.000000	95.989168 
3017.000000	95.991388 
3016.000000	95.993117 
3015.000000	95.994623 
3014.000000	95.996453 
3013.000000	95.999023 
3012.000000	96.002280 
3011.000000	96.005659 
3010.000000	96.008462 
3009.000000	96.010449 
3008.000000	96.012058 
3007.000000	96.014014 
3006.000000	96.016572 
3005.000000	96.019376 
3004.000000	96.021962 
3003.000000	96.024281 
3002.000000	96.026640 
3001.000000	96.029323 
3000.000000	96.032385 
2999.000000	96.035648 
2998.000000	96.038749 
2997.000000	96.041275 
2996.000000	96.043077 
2995.000000	96.044477 
2994.000000	96.046042 
2993.000000	96.048114 
2992.000000	96.050590 
2991.000000	96.053126 
2990.000000	96.055494 
2989.000000	96.057720 
2988.000000	96.059987 
2987.000000	96.062472 
2986.000000	96.065258 
2985.000000	96.068395 
2984.000000	96.072014 
2983.000000	96.076303 
2982.000000	96.081191 
2981.000000	96.086069 
2980.000000	96.090061 
2979.000000	96.092721 
2978.000000	96.094363 
2977.000000	96.095785 
2976.000000	96.097630 
2975.000000	96.100095 
2974.000000	96.103191 
2973.000000	96.107001 
2972.000000	96.111534 
2971.000000	96.116354 
2970.000000	96.120619 
2969.000000	96.123753 
2968.000000	96.126016 
2967.000000	96.128274 
2966.000000	96.131106 
2965.000000	96.134214 
2964.000000	96.136870 
2963.000000	96.138824 
2962.000000	96.140562 
2961.000000	96.142711 
2960.000000	96.145450 
2959.000000	96.148650 
2958.000000	96.152374 
2957.000000	96.156898 
2956.000000	96.162137 
2955.000000	96.167268 
2954.000000	96.171269 
2953.000000	96.173920 
2952.000000	96.176058 
2951.000000	96.178736 
2950.000000	96.182173 
2949.000000	96.185742 
2948.000000	96.188944 
2947.000000	96.192059 
2946.000000	96.195693 
2945.000000	96.199873 
2944.000000	96.203841 
2943.000000	96.206735 
2942.000000	96.208255 
2941.000000	96.208789 
2940.000000	96.209237 
2939.000000	96.210597 
2938.000000	96.213291 
2937.000000	96.216645 
2936.000000	96.219287 
2935.000000	96.220491 
2934.000000	96.220973 
2933.000000	96.222181 
2932.000000	96.224766 
2931.000000	96.228093 
2930.000000	96.231135 
2929.000000	96.233478 
2928.000000	96.235273 
2927.000000	96.236642 
2926.000000	96.237646 
2925.000000	96.238735 
2924.000000	96.240722 
2923.000000	96.244082 
2922.000000	96.248465 
2921.000000	96.252992 
2920.000000	96.256984 
2919.000000	96.260307 
2918.000000	96.263064 
2917.000000	96.265148 
2916.000000	96.266232 
2915.000000	96.266224 
2914.000000	96.265696 
2913.000000	96.265723 
2912.000000	96.267037 
2911.000000	96.269369 
2910.000000	96.271746 
2909.000000	96.273541 
2908.000000	96.275080 
2907.000000	96.277079 
2906.000000	96.279638 
2905.000000	96.282080 
2904.000000	96.283664 
2903.000000	96.284445 
2902.000000	96.285221 
2901.000000	96.286723 
2900.000000	96.289119 
2899.000000	96.292034 
2898.000000	96.295099 
2897.000000	96.298241 
2896.000000	96.301440 
2895.000000	96.304432 
2894.000000	96.306957 
2893.000000	96.309213 
2892.000000	96.311723 
2891.000000	96.314646 
2890.000000	96.317542 
2889.000000	96.319995 
2888.000000	96.322224 
2887.000000	96.324706 
2886.000000	96.327439 
2885.000000	96.329987 
2884.000000	96.332178 
2883.000000	96.334316 
2882.000000	96.336627 
2881.000000	96.338913 
2880.000000	96.340996 
2879.000000	96.343152 
2878.000000	96.345782 
2877.000000	96.348873 
2876.000000	96.352053 
2875.000000	96.354981 
2874.000000	96.357603 
2873.000000	96.360024 
2872.000000	96.362366 
2871.000000	96.364730 
2870.000000	96.367179 
2869.000000	96.369709 
2868.000000	96.372272 
2867.000000	96.374836 
2866.000000	96.377402 
2865.000000	96.379957 
2864.000000	96.382477 
2863.000000	96.384963 
2862.000000	96.387461 
2861.000000	96.390018 
2860.000000	96.392623 
2859.000000	96.395214 
2858.000000	96.397744 
2857.000000	96.400215 
2856.000000	96.402652 
2855.000000	96.405084 
2854.000000	96.407511 
2853.000000	96.409917 
2852.000000	96.412285 
2851.000000	96.414603 
2850.000000	96.416868 
2849.000000	96.419088 
2848.000000	96.421277 
2847.000000	96.423448 
2846.000000	96.425626 
2845.000000	96.427851 
2844.000000	96.430144 
2843.000000	96.432477 
2842.000000	96.434771 
2841.000000	96.436944 
2840.000000	96.438966 
2839.000000	96.440886 
2838.000000	96.442831 
2837.000000	96.444927 
2836.000000	96.447186 
2835.000000	96.449500 
2834.000000	96.451724 
2833.000000	96.453830 
2832.000000	96.455895 
2831.000000	96.457990 
2830.000000	96.460110 
2829.000000	96.462212 
2828.000000	96.464290 
2827.000000	96.466392 
2826.000000	96.468568 
2825.000000	96.470799 
2824.000000	96.472983 
2823.000000	96.475003 
2822.000000	96.476831 
2821.000000	96.478533 
2820.000000	96.480197 
2819.000000	96.481891 
2818.000000	96.483672 
2817.000000	96.485570 
2816.000000	96.487554 
2815.000000	96.489540 
2814.000000	96.491457 
2813.000000	96.493305 
2812.000000	96.495118 
2811.000000	96.496926 
2810.000000	96.498749 
2809.000000	96.500617 
2808.000000	96.502562 
2807.000000	96.504579 
2806.000000	96.506630 
2805.000000	96.508668 
2804.000000	96.510671 
2803.000000	96.512636 
2802.000000	96.514571 
2801.000000	96.516495 
2800.000000	96.518429 
2799.000000	96.520376 
2798.000000	96.522324 
2797.000000	96.524251 
2796.000000	96.526142 
2795.000000	96.527999 
2794.000000	96.529839 
2793.000000	96.531681 
2792.000000	96.533540 
2791.000000	96.535418 
2790.000000	96.537303 
2789.000000	96.539163 
2788.000000	96.540976 
2787.000000	96.542735 
2786.000000	96.544453 
2785.000000	96.546148 
2784.000000	96.547852 
2783.000000	96.549599 
2782.000000	96.551405 
2781.000000	96.553250 
2780.000000	96.555097 
2779.000000	96.556918 
2778.000000	96.558690 
2777.000000	96.560392 
2776.000000	96.562012 
2775.000000	96.563578 
2774.000000	96.565150 
2773.000000	96.566766 
2772.000000	96.568403 
2771.000000	96.570037 
2770.000000	96.571714 
2769.000000	96.573492 
2768.000000	96.575306 
2767.000000	96.576977 
2766.000000	96.578411 
2765.000000	96.579764 
2764.000000	96.581331 
2763.000000	96.583191 
2762.000000	96.585001 
2761.000000	96.586284 
2760.000000	96.586905 
2759.000000	96.587241 
2758.000000	96.587876 
2757.000000	96.589073 
2756.000000	96.590641 
2755.000000	96.592214 
2754.000000	96.593669 
2753.000000	96.595125 
2752.000000	96.596604 
2751.000000	96.597905 
2750.000000	96.598892 
2749.000000	96.599735 
2748.000000	96.600686 
2747.000000	96.601686 
2746.000000	96.602434 
2745.000000	96.602836 
2744.000000	96.603193 
2743.000000	96.603897 
2742.000000	96.605051 
2741.000000	96.606447 
2740.000000	96.607791 
2739.000000	96.608931 
2738.000000	96.609880 
2737.000000	96.610756 
2736.000000	96.611703 
2735.000000	96.612811 
2734.000000	96.614062 
2733.000000	96.615366 
2732.000000	96.616639 
2731.000000	96.617852 
2730.000000	96.619041 
2729.000000	96.620254 
2728.000000	96.621486 
2727.000000	96.622641 
2726.000000	96.623625 
2725.000000	96.624469 
2724.000000	96.625291 
2723.000000	96.626192 
2722.000000	96.627168 
2721.000000	96.628175 
2720.000000	96.629185 
2719.000000	96.630200 
2718.000000	96.631226 
2717.000000	96.632263 
2716.000000	96.633305 
2715.000000	96.634350 
2714.000000	96.635401 
2713.000000	96.636463 
2712.000000	96.637535 
2711.000000	96.638612 
2710.000000	96.639688 
2709.000000	96.640762 
2708.000000	96.641835 
2707.000000	96.642905 
2706.000000	96.643982 
2705.000000	96.645084 
2704.000000	96.646218 
2703.000000	96.647341 
2702.000000	96.648373 
2701.000000	96.649268 
2700.000000	96.650083 
2699.000000	96.650960 
2698.000000	96.651988 
2697.000000	96.653089 
2696.000000	96.654043 
2695.000000	96.654724 
2694.000000	96.655293 
2693.000000	96.656042 
2692.000000	96.657027 
2691.000000	96.657945 
2690.000000	96.658468 
2689.000000	96.658580 
2688.000000	96.658498 
2687.000000	96.658395 
2686.000000	96.658425 
2685.000000	96.658888 
2684.000000	96.660002 
2683.000000	96.661458 
2682.000000	96.662517 
2681.000000	96.662846 
2680.000000	96.662924 
2679.000000	96.663421 
2678.000000	96.664409 
2677.000000	96.665549 
2676.000000	96.666726 
2675.000000	96.668024 
2674.000000	96.669217 
2673.000000	96.669825 
2672.000000	96.669724 
2671.000000	96.669309 
2670.000000	96.668972 
2669.000000	96.668812 
2668.000000	96.668826 
2667.000000	96.668947 
2666.000000	96.668741 
2665.000000	96.667506 
2664.000000	96.665062 
2663.000000	96.662327 
2662.000000	96.660724 
2661.000000	96.660828 
2660.000000	96.661838 
2659.000000	96.662315 
2658.000000	96.661515 
2657.000000	96.659967 
2656.000000	96.658832 
2655.000000	96.658711 
2654.000000	96.659092 
2653.000000	96.658949 
2652.000000	96.657897 
2651.000000	96.656582 
2650.000000	96.655885 
2649.000000	96.655868 
2648.000000	96.655775 
2647.000000	96.654998 
2646.000000	96.653688 
2645.000000	96.652325 
2644.000000	96.651032 
2643.000000	96.649623 
2642.000000	96.648161 
2641.000000	96.647126 
2640.000000	96.646991 
2639.000000	96.647825 
2638.000000	96.649233 
2637.000000	96.650496 
2636.000000	96.650943 
2635.000000	96.650446 
2634.000000	96.649577 
2633.000000	96.649058 
2632.000000	96.649012 
2631.000000	96.648955 
2630.000000	96.648491 
2629.000000	96.647694 
2628.000000	96.646822 
2627.000000	96.646004 
2626.000000	96.645368 
2625.000000	96.645171 
2624.000000	96.645560 
2623.000000	96.646303 
2622.000000	96.646942 
2621.000000	96.647107 
2620.000000	96.646552 
2619.000000	96.645109 
2618.000000	96.642954 
2617.000000	96.640880 
2616.000000	96.639819 
2615.000000	96.640071 
2614.000000	96.641185 
2613.000000	96.642433 
2612.000000	96.643286 
2611.000000	96.643614 
2610.000000	96.643742 
2609.000000	96.644206 
2608.000000	96.645128 
2607.000000	96.645917 
2606.000000	96.645963 
2605.000000	96.645443 
2604.000000	96.645082 
2603.000000	96.645229 
2602.000000	96.645599 
2601.000000	96.645897 
2600.000000	96.646209 
2599.000000	96.646637 
2598.000000	96.647022 
2597.000000	96.647268 
2596.000000	96.647600 
2595.000000	96.648187 
2594.000000	96.648768 
2593.000000	96.649035 
2592.000000	96.649213 
2591.000000	96.649827 
2590.000000	96.650904 
2589.000000	96.651829 
2588.000000	96.652103 
2587.000000	96.651830 
2586.000000	96.651453 
2585.000000	96.651263 
2584.000000	96.651298 
2583.000000	96.651468 
2582.000000	96.651617 
2581.000000	96.651616 
2580.000000	96.651589 
2579.000000	96.651919 
2578.000000	96.652894 
2577.000000	96.654407 
2576.000000	96.655973 
2575.000000	96.657050 
2574.000000	96.657358 
2573.000000	96.656938 
2572.000000	96.656084 
2571.000000	96.655173 
2570.000000	96.654519 
2569.000000	96.654380 
2568.000000	96.654937 
2567.000000	96.656115 
2566.000000	96.657423 
2565.000000	96.658226 
2564.000000	96.658327 
2563.000000	96.658153 
2562.000000	96.658279 
2561.000000	96.658845 
2560.000000	96.659647 
2559.000000	96.660609 
2558.000000	96.661872 
2557.000000	96.663359 
2556.000000	96.664646 
2555.000000	96.665425 
2554.000000	96.665812 
2553.000000	96.665991 
2552.000000	96.665828 
2551.000000	96.665265 
2550.000000	96.664865 
2549.000000	96.665346 
2548.000000	96.666481 
2547.000000	96.667106 
2546.000000	96.666620 
2545.000000	96.665803 
2544.000000	96.665606 
2543.000000	96.665668 
2542.000000	96.665026 
2541.000000	96.663968 
2540.000000	96.663962 
2539.000000	96.665650 
2538.000000	96.668042 
2537.000000	96.669876 
2536.000000	96.670981 
2535.000000	96.671773 
2534.000000	96.672187 
2533.000000	96.671828 
2532.000000	96.670793 
2531.000000	96.669677 
2530.000000	96.668870 
2529.000000	96.668345 
2528.000000	96.668042 
2527.000000	96.668120 
2526.000000	96.668888 
2525.000000	96.670631 
2524.000000	96.673337 
2523.000000	96.676437 
2522.000000	96.678985 
2521.000000	96.680322 
2520.000000	96.680446 
2519.000000	96.679692 
2518.000000	96.678400 
2517.000000	96.676912 
2516.000000	96.675529 
2515.000000	96.674307 
2514.000000	96.673200 
2513.000000	96.672476 
2512.000000	96.672552 
2511.000000	96.673343 
2510.000000	96.674336 
2509.000000	96.675373 
2508.000000	96.676775 
2507.000000	96.678629 
2506.000000	96.680732 
2505.000000	96.683414 
2504.000000	96.687422 
2503.000000	96.692350 
2502.000000	96.695985 
2501.000000	96.696324 
2500.000000	96.693639 
2499.000000	96.690266 
2498.000000	96.688421 
2497.000000	96.688575 
2496.000000	96.690011 
2495.000000	96.691794 
2494.000000	96.693135 
2493.000000	96.693533 
2492.000000	96.693155 
2491.000000	96.692882 
2490.000000	96.693602 
2489.000000	96.695456 
2488.000000	96.697787 
2487.000000	96.699727 
2486.000000	96.700824 
2485.000000	96.701276 
2484.000000	96.701659 
2483.000000	96.702360 
2482.000000	96.703271 
2481.000000	96.704010 
2480.000000	96.704268 
2479.000000	96.703864 
2478.000000	96.702753 
2477.000000	96.701209 
2476.000000	96.699805 
2475.000000	96.698845 
2474.000000	96.697987 
2473.000000	96.696769 
2472.000000	96.695416 
2471.000000	96.694776 
2470.000000	96.695421 
2469.000000	96.697001 
2468.000000	96.698427 
2467.000000	96.698657 
2466.000000	96.697400 
2465.000000	96.695322 
2464.000000	96.693649 
2463.000000	96.693292 
2462.000000	96.694266 
2461.000000	96.695861 
2460.000000	96.697267 
2459.000000	96.697946 
2458.000000	96.697545 
2457.000000	96.695925 
2456.000000	96.693491 
2455.000000	96.691358 
2454.000000	96.690698 
2453.000000	96.691699 
2452.000000	96.693282 
2451.000000	96.694027 
2450.000000	96.693596 
2449.000000	96.692963 
2448.000000	96.693172 
2447.000000	96.694146 
2446.000000	96.694965 
2445.000000	96.695167 
2444.000000	96.695297 
2443.000000	96.696120 
2442.000000	96.697752 
2441.000000	96.699645 
2440.000000	96.701182 
2439.000000	96.702272 
2438.000000	96.703456 
2437.000000	96.705370 
2436.000000	96.707953 
2435.000000	96.710257 
2434.000000	96.711359 
2433.000000	96.711320 
2432.000000	96.711083 
2431.000000	96.711486 
2430.000000	96.712600 
2429.000000	96.714127 
2428.000000	96.715936 
2427.000000	96.717994 
2426.000000	96.720020 
2425.000000	96.721328 
2424.000000	96.721250 
2423.000000	96.719890 
2422.000000	96.718243 
2421.000000	96.717655 
2420.000000	96.719118 
2419.000000	96.722479 
2418.000000	96.726454 
2417.000000	96.730280 
2416.000000	96.734303 
2415.000000	96.738239 
2414.000000	96.740423 
2413.000000	96.740073 
2412.000000	96.738867 
2411.000000	96.738571 
2410.000000	96.738652 
2409.000000	96.738175 
2408.000000	96.738496 
2407.000000	96.741459 
2406.000000	96.745720 
2405.000000	96.747664 
2404.000000	96.746080 
2403.000000	96.743612 
2402.000000	96.743245 
2401.000000	96.745452 
2400.000000	96.749263 
2399.000000	96.754127 
2398.000000	96.759710 
2397.000000	96.765131 
2396.000000	96.769363 
2395.000000	96.771773 
2394.000000	96.772122 
2393.000000	96.771019 
2392.000000	96.770331 
2391.000000	96.771711 
2390.000000	96.774171 
2389.000000	96.774229 
2388.000000	96.769063 
2387.000000	96.758937 
2386.000000	96.746681 
2385.000000	96.735980 
2384.000000	96.730099 
2383.000000	96.730881 
2382.000000	96.738689 
2381.000000	96.753840 
2380.000000	96.777622 
2379.000000	96.809967 
2378.000000	96.845440 
2377.000000	96.873718 
2376.000000	96.886446 
2375.000000	96.882732 
2374.000000	96.867811 
2373.000000	96.848032 
2372.000000	96.828498 
2371.000000	96.814038 
2370.000000	96.808536 
2369.000000	96.811690 
2368.000000	96.818132 
2367.000000	96.821686 
2366.000000	96.820980 
2365.000000	96.820007 
2364.000000	96.822745 
2363.000000	96.827951 
2362.000000	96.831577 
2361.000000	96.831773 
2360.000000	96.828415 
2359.000000	96.822677 
2358.000000	96.817909 
2357.000000	96.818222 
2356.000000	96.824495 
2355.000000	96.832204 
2354.000000	96.839073 
2353.000000	96.842897 
2352.000000	96.840745 
2351.000000	96.830813 
2350.000000	96.814791 
2349.000000	96.799505 
2348.000000	96.791675 
2347.000000	96.793486 
2346.000000	96.796969 
2345.000000	96.791547 
2344.000000	96.778192 
2343.000000	96.764649 
2342.000000	96.760376 
2341.000000	96.766906 
2340.000000	96.778626 
2339.000000	96.787073 
2338.000000	96.788112 
2337.000000	96.784146 
2336.000000	96.777747 
2335.000000	96.770690 
2334.000000	96.763423 
2333.000000	96.757424 
2332.000000	96.750733 
2331.000000	96.742580 
2330.000000	96.728407 
2329.000000	96.708063 
2328.000000	96.679970 
2327.000000	96.651172 
2326.000000	96.627566 
2325.000000	96.612615 
2324.000000	96.605646 
2323.000000	96.605044 
2322.000000	96.608872 
2321.000000	96.611827 
2320.000000	96.609845 
2319.000000	96.606545 
2318.000000	96.607969 
2317.000000	96.617770 
2316.000000	96.630921 
2315.000000	96.642447 
2314.000000	96.645290 
2313.000000	96.637483 
2312.000000	96.618666 
2311.000000	96.597034 
2310.000000	96.579502 
2309.000000	96.570181 
2308.000000	96.566135 
2307.000000	96.566361 
2306.000000	96.569260 
2305.000000	96.572731 
2304.000000	96.572399 
2303.000000	96.569144 
2302.000000	96.566639 
2301.000000	96.568004 
2300.000000	96.570181 
2299.000000	96.570429 
2298.000000	96.567397 
2297.000000	96.563487 
2296.000000	96.560241 
2295.000000	96.560716 
2294.000000	96.566654 
2293.000000	96.577864 
2292.000000	96.590310 
2291.000000	96.600464 
2290.000000	96.607809 
2289.000000	96.613885 
2288.000000	96.619255 
2287.000000	96.622911 
2286.000000	96.624393 
2285.000000	96.624561 
2284.000000	96.625359 
2283.000000	96.628173 
2282.000000	96.633343 
2281.000000	96.639544 
2280.000000	96.644649 
2279.000000	96.646815 
2278.000000	96.645918 
2277.000000	96.643790 
2276.000000	96.642946 
2275.000000	96.644754 
2274.000000	96.648492 
2273.000000	96.652566 
2272.000000	96.655880 
2271.000000	96.658190 
2270.000000	96.659348 
2269.000000	96.659620 
2268.000000	96.660412 
2267.000000	96.663561 
2266.000000	96.669171 
2265.000000	96.675098 
2264.000000	96.678724 
2263.000000	96.678615 
2262.000000	96.674475 
2261.000000	96.667035 
2260.000000	96.658565 
2259.000000	96.651947 
2258.000000	96.648833 
2257.000000	96.649280 
2256.000000	96.653397 
2255.000000	96.661422 
2254.000000	96.671602 
2253.000000	96.679823 
2252.000000	96.682896 
2251.000000	96.680987 
2250.000000	96.675747 
2249.000000	96.668082 
2248.000000	96.659318 
2247.000000	96.652756 
2246.000000	96.650952 
2245.000000	96.652111 
2244.000000	96.651468 
2243.000000	96.646786 
2242.000000	96.640569 
2241.000000	96.636621 
2240.000000	96.636381 
2239.000000	96.639112 
2238.000000	96.643519 
2237.000000	96.648303 
2236.000000	96.652374 
2235.000000	96.655272 
2234.000000	96.656831 
2233.000000	96.656685 
2232.000000	96.655204 
2231.000000	96.654193 
2230.000000	96.654875 
2229.000000	96.655635 
2228.000000	96.654012 
2227.000000	96.650829 
2226.000000	96.649695 
2225.000000	96.651948 
2224.000000	96.654783 
2223.000000	96.655467 
2222.000000	96.654631 
2221.000000	96.653796 
2220.000000	96.652052 
2219.000000	96.647717 
2218.000000	96.641926 
2217.000000	96.638051 
2216.000000	96.637721 
2215.000000	96.639264 
2214.000000	96.639858 
2213.000000	96.638234 
2212.000000	96.635330 
2211.000000	96.633162 
2210.000000	96.633020 
2209.000000	96.634415 
2208.000000	96.635971 
2207.000000	96.637433 
2206.000000	96.640061 
2205.000000	96.644846 
2204.000000	96.651090 
2203.000000	96.657034 
2202.000000	96.661334 
2201.000000	96.662561 
2200.000000	96.658936 
2199.000000	96.650371 
2198.000000	96.639919 
2197.000000	96.632018 
2196.000000	96.628568 
2195.000000	96.627665 
2194.000000	96.626244 
2193.000000	96.623353 
2192.000000	96.620432 
2191.000000	96.618874 
2190.000000	96.618517 
2189.000000	96.618994 
2188.000000	96.621414 
2187.000000	96.626965 
2186.000000	96.633631 
2185.000000	96.636755 
2184.000000	96.634831 
2183.000000	96.632779 
2182.000000	96.636751 
2181.000000	96.646249 
2180.000000	96.654111 
2179.000000	96.654610 
2178.000000	96.648945 
2177.000000	96.642814 
2176.000000	96.640739 
2175.000000	96.643217 
2174.000000	96.647621 
2173.000000	96.650813 
2172.000000	96.651964 
2171.000000	96.652925 
2170.000000	96.654695 
2169.000000	96.654442 
2168.000000	96.648725 
2167.000000	96.639432 
2166.000000	96.632698 
2165.000000	96.630580 
2164.000000	96.627979 
2163.000000	96.621296 
2162.000000	96.616960 
2161.000000	96.625534 
2160.000000	96.648933 
2159.000000	96.677119 
2158.000000	96.698224 
2157.000000	96.710053 
2156.000000	96.718190 
2155.000000	96.727090 
2154.000000	96.736335 
2153.000000	96.743777 
2152.000000	96.748662 
2151.000000	96.750532 
2150.000000	96.747522 
2149.000000	96.738922 
2148.000000	96.729352 
2147.000000	96.726956 
2146.000000	96.735319 
2145.000000	96.748779 
2144.000000	96.757588 
2143.000000	96.757581 
2142.000000	96.752531 
2141.000000	96.748610 
2140.000000	96.748923 
2139.000000	96.753418 
2138.000000	96.760968 
2137.000000	96.769793 
2136.000000	96.777460 
2135.000000	96.782183 
2134.000000	96.783766 
2133.000000	96.783234 
2132.000000	96.782374 
2131.000000	96.782905 
2130.000000	96.784653 
2129.000000	96.784993 
2128.000000	96.781918 
2127.000000	96.777565 
2126.000000	96.776719 
2125.000000	96.781230 
2124.000000	96.787737 
2123.000000	96.791640 
2122.000000	96.791490 
2121.000000	96.788469 
2120.000000	96.783579 
2119.000000	96.777254 
2118.000000	96.770953 
2117.000000	96.766956 
2116.000000	96.765957 
2115.000000	96.766161 
2114.000000	96.764991 
2113.000000	96.761382 
2112.000000	96.756482 
2111.000000	96.752781 
2110.000000	96.752617 
2109.000000	96.756670 
2108.000000	96.763326 
2107.000000	96.769705 
2106.000000	96.773669 
2105.000000	96.775053 
2104.000000	96.775264 
2103.000000	96.775786 
2102.000000	96.776747 
2101.000000	96.776898 
2100.000000	96.775343 
2099.000000	96.773442 
2098.000000	96.774331 
2097.000000	96.779933 
2096.000000	96.788747 
2095.000000	96.796834 
2094.000000	96.800873 
2093.000000	96.800223 
2092.000000	96.796731 
2091.000000	96.793497 
2090.000000	96.793130 
2089.000000	96.796097 
2088.000000	96.800240 
2087.000000	96.802324 
2086.000000	96.800837 
2085.000000	96.797349 
2084.000000	96.795147 
2083.000000	96.796097 
2082.000000	96.799135 
2081.000000	96.801852 
2080.000000	96.803290 
2079.000000	96.804504 
2078.000000	96.806380 
2077.000000	96.807928 
2076.000000	96.807607 
2075.000000	96.805797 
2074.000000	96.804630 
2073.000000	96.805174 
2072.000000	96.805976 
2071.000000	96.804952 
2070.000000	96.801833 
2069.000000	96.798014 
2068.000000	96.794897 
2067.000000	96.792956 
2066.000000	96.792173 
2065.000000	96.792515 
2064.000000	96.793656 
2063.000000	96.794790 
2062.000000	96.795205 
2061.000000	96.795126 
2060.000000	96.795761 
2059.000000	96.798244 
2058.000000	96.802326 
2057.000000	96.806098 
2056.000000	96.807311 
2055.000000	96.805016 
2054.000000	96.800065 
2053.000000	96.794483 
2052.000000	96.790146 
2051.000000	96.787706 
2050.000000	96.786716 
2049.000000	96.786611 
2048.000000	96.787503 
2047.000000	96.789681 
2046.000000	96.792637 
2045.000000	96.795288 
2044.000000	96.797138 
2043.000000	96.798518 
2042.000000	96.799668 
2041.000000	96.800360 
2040.000000	96.800753 
2039.000000	96.801839 
2038.000000	96.804246 
2037.000000	96.806973 
2036.000000	96.808176 
2035.000000	96.807195 
2034.000000	96.805388 
2033.000000	96.805115 
2032.000000	96.807858 
2031.000000	96.812832 
2030.000000	96.816896 
2029.000000	96.816811 
2028.000000	96.812271 
2027.000000	96.806471 
2026.000000	96.803099 
2025.000000	96.803227 
2024.000000	96.805962 
2023.000000	96.810712 
2022.000000	96.817381 
2021.000000	96.824426 
2020.000000	96.828709 
2019.000000	96.828117 
2018.000000	96.823305 
2017.000000	96.816901 
2016.000000	96.811391 
2015.000000	96.807635 
2014.000000	96.804495 
2013.000000	96.799849 
2012.000000	96.793421 
2011.000000	96.788470 
2010.000000	96.788690 
2009.000000	96.793807 
2008.000000	96.800032 
2007.000000	96.804927 
2006.000000	96.809453 
2005.000000	96.814384 
2004.000000	96.817909 
2003.000000	96.818355 
2002.000000	96.817059 
2001.000000	96.816553 
2000.000000	96.816880 
1999.000000	96.815519 
1998.000000	96.810616 
1997.000000	96.803233 
1996.000000	96.796597 
1995.000000	96.793576 
1994.000000	96.794542 
1993.000000	96.797082 
1992.000000	96.798001 
1991.000000	96.796704 
1990.000000	96.795777 
1989.000000	96.797586 
1988.000000	96.801282 
1987.000000	96.803679 
1986.000000	96.802672 
1985.000000	96.799053 
1984.000000	96.795342 
1983.000000	96.793482 
1982.000000	96.793739 
1981.000000	96.795292 
1980.000000	96.797446 
1979.000000	96.800137 
1978.000000	96.803324 
1977.000000	96.806370 
1976.000000	96.808393 
1975.000000	96.809203 
1974.000000	96.809559 
1973.000000	96.810523 
1972.000000	96.812537 
1971.000000	96.815199 
1970.000000	96.817672 
1969.000000	96.819292 
1968.000000	96.819935 
1967.000000	96.819994 
1966.000000	96.820193 
1965.000000	96.821093 
1964.000000	96.822761 
1963.000000	96.824914 
1962.000000	96.827155 
1961.000000	96.829127 
1960.000000	96.830550 
1959.000000	96.831326 
1958.000000	96.831686 
1957.000000	96.832128 
1956.000000	96.832993 
1955.000000	96.834212 
1954.000000	96.835461 
1953.000000	96.836464 
1952.000000	96.837194 
1951.000000	96.837788 
1950.000000	96.838418 
1949.000000	96.839201 
1948.000000	96.840161 
1947.000000	96.841211 
1946.000000	96.842178 
1945.000000	96.842927 
1944.000000	96.843437 
1943.000000	96.843773 
1942.000000	96.844032 
1941.000000	96.844284 
1940.000000	96.844549 
1939.000000	96.844807 
1938.000000	96.845019 
1937.000000	96.845154 
1936.000000	96.845203 
1935.000000	96.845164 
1934.000000	96.845026 
1933.000000	96.844826 
1932.000000	96.844698 
1931.000000	96.844760 
1930.000000	96.844977 
1929.000000	96.845101 
1928.000000	96.844924 
1927.000000	96.844472 
1926.000000	96.843933 
1925.000000	96.843465 
1924.000000	96.843103 
1923.000000	96.842832 
1922.000000	96.842543 
1921.000000	96.842020 
1920.000000	96.841203 
1919.000000	96.840272 
1918.000000	96.839379 
1917.000000	96.838433 
1916.000000	96.837300 
1915.000000	96.836068 
1914.000000	96.835002 
1913.000000	96.834276 
1912.000000	96.833735 
1911.000000	96.833088 
1910.000000	96.832188 
1909.000000	96.831058 
1908.000000	96.829870 
1907.000000	96.828806 
1906.000000	96.827854 
1905.000000	96.826760 
1904.000000	96.825301 
1903.000000	96.823626 
1902.000000	96.822096 
1901.000000	96.820827 
1900.000000	96.819735 
1899.000000	96.818865 
1898.000000	96.818335 
1897.000000	96.818013 
1896.000000	96.817497 
1895.000000	96.816556 
1894.000000	96.815303 
1893.000000	96.813975 
1892.000000	96.812755 
1891.000000	96.811762 
1890.000000	96.811028 
1889.000000	96.810459 
1888.000000	96.809958 
1887.000000	96.809558 
1886.000000	96.809279 
1885.000000	96.808928 
1884.000000	96.808308 
1883.000000	96.807450 
1882.000000	96.806595 
1881.000000	96.806008 
1880.000000	96.805756 
1879.000000	96.805735 
1878.000000	96.805749 
1877.000000	96.805680 
1876.000000	96.805569 
1875.000000	96.805566 
1874.000000	96.805787 
1873.000000	96.806207 
1872.000000	96.806711 
1871.000000	96.807239 
1870.000000	96.807805 
1869.000000	96.808411 
1868.000000	96.809075 
1867.000000	96.809881 
1866.000000	96.810828 
1865.000000	96.811727 
1864.000000	96.812451 
1863.000000	96.813211 
1862.000000	96.814343 
1861.000000	96.815856 
1860.000000	96.817424 
1859.000000	96.818842 
1858.000000	96.820229 
1857.000000	96.821741 
1856.000000	96.823354 
1855.000000	96.824940 
1854.000000	96.826367 
1853.000000	96.827562 
1852.000000	96.828689 
1851.000000	96.830147 
1850.000000	96.832139 
1849.000000	96.834452 
1848.000000	96.836568 
1847.000000	96.838271 
1846.000000	96.839760 
1845.000000	96.841281 
1844.000000	96.842782 
1843.000000	96.844206 
1842.000000	96.845779 
1841.000000	96.847650 
1840.000000	96.849801 
1839.000000	96.852155 
1838.000000	96.854448 
1837.000000	96.856173 
1836.000000	96.857132 
1835.000000	96.858049 
1834.000000	96.859766 
1833.000000	96.861968 
1832.000000	96.863721 
1831.000000	96.864796 
1830.000000	96.865850 
1829.000000	96.867420 
1828.000000	96.869084 
1827.000000	96.870304 
1826.000000	96.871163 
1825.000000	96.871889 
1824.000000	96.872011 
1823.000000	96.870985 
1822.000000	96.869373 
1821.000000	96.868324 
1820.000000	96.868412 
1819.000000	96.869543 
1818.000000	96.871837 
1817.000000	96.875009 
1816.000000	96.877451 
1815.000000	96.878570 
1814.000000	96.879906 
1813.000000	96.882807 
1812.000000	96.885755 
1811.000000	96.885664 
1810.000000	96.882740 
1809.000000	96.879935 
1808.000000	96.878395 
1807.000000	96.877611 
1806.000000	96.878008 
1805.000000	96.880130 
1804.000000	96.882352 
1803.000000	96.882509 
1802.000000	96.880325 
1801.000000	96.877477 
1800.000000	96.875064 
1799.000000	96.873018 
1798.000000	96.872172 
1797.000000	96.872459 
1796.000000	96.871928 
1795.000000	96.870049 
1794.000000	96.869194 
1793.000000	96.871372 
1792.000000	96.874550 
1791.000000	96.875887 
1790.000000	96.876959 
1789.000000	96.880225 
1788.000000	96.885278 
1787.000000	96.890247 
1786.000000	96.894340 
1785.000000	96.897799 
1784.000000	96.900257 
1783.000000	96.901414 
1782.000000	96.901362 
1781.000000	96.900824 
1780.000000	96.901160 
1779.000000	96.903252 
1778.000000	96.907337 
1777.000000	96.912117 
1776.000000	96.915495 
1775.000000	96.916504 
1774.000000	96.915998 
1773.000000	96.916096 
1772.000000	96.917822 
1771.000000	96.919854 
1770.000000	96.921219 
1769.000000	96.922390 
1768.000000	96.923961 
1767.000000	96.925952 
1766.000000	96.928149 
1765.000000	96.930938 
1764.000000	96.934794 
1763.000000	96.938924 
1762.000000	96.941392 
1761.000000	96.941990 
1760.000000	96.942587 
1759.000000	96.944086 
1758.000000	96.945677 
1757.000000	96.946516 
1756.000000	96.948166 
1755.000000	96.951599 
1754.000000	96.954408 
1753.000000	96.953805 
1752.000000	96.950905 
1751.000000	96.950452 
1750.000000	96.954815 
1749.000000	96.960618 
1748.000000	96.963564 
1747.000000	96.963766 
1746.000000	96.963224 
1745.000000	96.963757 
1744.000000	96.965988 
1743.000000	96.968054 
1742.000000	96.968178 
1741.000000	96.967857 
1740.000000	96.969360 
1739.000000	96.971666 
1738.000000	96.971783 
1737.000000	96.968655 
1736.000000	96.964289 
1735.000000	96.961613 
1734.000000	96.959819 
1733.000000	96.956076 
1732.000000	96.953855 
1731.000000	96.956998 
1730.000000	96.964646 
1729.000000	96.971887 
1728.000000	96.974574 
1727.000000	96.972484 
1726.000000	96.967151 
1725.000000	96.960997 
1724.000000	96.955811 
1723.000000	96.952168 
1722.000000	96.950565 
1721.000000	96.950151 
1720.000000	96.949467 
1719.000000	96.947347 
1718.000000	96.942787 
1717.000000	96.935922 
1716.000000	96.927126 
1715.000000	96.918185 
1714.000000	96.911451 
1713.000000	96.905970 
1712.000000	96.898435 
1711.000000	96.889013 
1710.000000	96.880226 
1709.000000	96.872331 
1708.000000	96.864465 
1707.000000	96.858015 
1706.000000	96.854363 
1705.000000	96.849565 
1704.000000	96.836996 
1703.000000	96.816390 
1702.000000	96.794599 
1701.000000	96.780796 
1700.000000	96.774796 
1699.000000	96.767076 
1698.000000	96.758966 
1697.000000	96.752843 
1696.000000	96.745599 
1695.000000	96.736304 
1694.000000	96.728406 
1693.000000	96.722779 
1692.000000	96.716422 
1691.000000	96.707245 
1690.000000	96.695266 
1689.000000	96.680897 
1688.000000	96.664923 
1687.000000	96.648671 
1686.000000	96.635801 
1685.000000	96.630857 
1684.000000	96.627433 
1683.000000	96.617610 
1682.000000	96.605821 
1681.000000	96.593796 
1680.000000	96.581272 
1679.000000	96.568163 
1678.000000	96.553388 
1677.000000	96.537314 
1676.000000	96.523833 
1675.000000	96.515748 
1674.000000	96.507859 
1673.000000	96.496059 
1672.000000	96.482408 
1671.000000	96.470359 
1670.000000	96.458490 
1669.000000	96.441524 
1668.000000	96.423508 
1667.000000	96.412300 
1666.000000	96.406337 
1665.000000	96.400688 
1664.000000	96.394062 
1663.000000	96.387214 
1662.000000	96.377539 
1661.000000	96.362067 
1660.000000	96.344883 
1659.000000	96.331549 
1658.000000	96.320837 
1657.000000	96.306235 
1656.000000	96.282978 
1655.000000	96.255592 
1654.000000	96.234743 
1653.000000	96.221137 
1652.000000	96.206431 
1651.000000	96.199683 
1650.000000	96.196999 
1649.000000	96.194542 
1648.000000	96.194064 
1647.000000	96.195093 
1646.000000	96.192959 
1645.000000	96.187612 
1644.000000	96.181974 
1643.000000	96.177582 
1642.000000	96.176162 
1641.000000	96.176682 
1640.000000	96.176536 
1639.000000	96.172606 
1638.000000	96.165483 
1637.000000	96.160228 
1636.000000	96.159807 
1635.000000	96.162898 
1634.000000	96.168738 
1633.000000	96.176060 
1632.000000	96.180682 
1631.000000	96.184126 
1630.000000	96.191907 
1629.000000	96.206209 
1628.000000	96.223148 
1627.000000	96.238578 
1626.000000	96.251633 
1625.000000	96.264550 
1624.000000	96.281433 
1623.000000	96.302940 
1622.000000	96.323167 
1621.000000	96.335330 
1620.000000	96.339466 
1619.000000	96.342095 
1618.000000	96.352692 
1617.000000	96.373667 
1616.000000	96.396587 
1615.000000	96.416006 
1614.000000	96.432733 
1613.000000	96.446695 
1612.000000	96.458056 
1611.000000	96.468792 
1610.000000	96.480443 
1609.000000	96.493991 
1608.000000	96.511228 
1607.000000	96.531624 
1606.000000	96.549784 
1605.000000	96.562241 
1604.000000	96.573122 
1603.000000	96.586673 
1602.000000	96.601241 
1601.000000	96.613840 
1600.000000	96.625565 
1599.000000	96.638807 
1598.000000	96.652220 
1597.000000	96.663245 
1596.000000	96.672406 
1595.000000	96.682382 
1594.000000	96.693974 
1593.000000	96.705244 
1592.000000	96.714718 
1591.000000	96.723077 
1590.000000	96.731648 
1589.000000	96.741047 
1588.000000	96.751516 
1587.000000	96.762352 
1586.000000	96.771375 
1585.000000	96.776701 
1584.000000	96.780558 
1583.000000	96.786966 
1582.000000	96.795853 
1581.000000	96.804159 
1580.000000	96.810518 
1579.000000	96.815868 
1578.000000	96.821940 
1577.000000	96.831017 
1576.000000	96.842571 
1575.000000	96.853076 
1574.000000	96.860259 
1573.000000	96.864220 
1572.000000	96.867950 
1571.000000	96.875439 
1570.000000	96.884868 
1569.000000	96.888772 
1568.000000	96.887778 
1567.000000	96.887922 
1566.000000	96.890234 
1565.000000	96.892473 
1564.000000	96.893625 
1563.000000	96.891386 
1562.000000	96.884828 
1561.000000	96.875553 
1560.000000	96.879040 
1559.000000	96.896313 
1558.000000	96.904212 
1557.000000	96.903522 
1556.000000	96.903120 
1555.000000	96.902933 
1554.000000	96.902598 
1553.000000	96.902827 
1552.000000	96.904265 
1551.000000	96.904109 
1550.000000	96.900620 
1549.000000	96.895604 
1548.000000	96.891967 
1547.000000	96.890262 
1546.000000	96.888618 
1545.000000	96.885667 
1544.000000	96.881922 
1543.000000	96.878513 
1542.000000	96.877222 
1541.000000	96.879058 
1540.000000	96.877443 
1539.000000	96.868839 
1538.000000	96.859318 
1537.000000	96.851551 
1536.000000	96.844136 
1535.000000	96.838329 
1534.000000	96.835831 
1533.000000	96.834997 
1532.000000	96.832910 
1531.000000	96.828989 
1530.000000	96.824188 
1529.000000	96.818955 
1528.000000	96.812603 
1527.000000	96.805147 
1526.000000	96.797958 
1525.000000	96.792366 
1524.000000	96.788374 
1523.000000	96.785202 
1522.000000	96.781470 
1521.000000	96.774941 
1520.000000	96.765663 
1519.000000	96.756230 
1518.000000	96.748169 
1517.000000	96.741549 
1516.000000	96.735513 
1515.000000	96.729772 
1514.000000	96.724575 
1513.000000	96.719780 
1512.000000	96.714504 
1511.000000	96.707357 
1510.000000	96.698408 
1509.000000	96.689096 
1508.000000	96.681853 
1507.000000	96.676637 
1506.000000	96.671292 
1505.000000	96.665123 
1504.000000	96.658471 
1503.000000	96.651041 
1502.000000	96.642997 
1501.000000	96.635041 
1500.000000	96.627841 
1499.000000	96.621043 
1498.000000	96.613526 
1497.000000	96.605317 
1496.000000	96.597498 
1495.000000	96.590796 
1494.000000	96.585183 
1493.000000	96.580235 
1492.000000	96.575747 
1491.000000	96.571646 
1490.000000	96.567229 
1489.000000	96.561911 
1488.000000	96.555391 
1487.000000	96.547640 
1486.000000	96.539509 
1485.000000	96.530639 
1484.000000	96.521019 
1483.000000	96.512399 
1482.000000	96.505740 
1481.000000	96.499899 
1480.000000	96.492633 
1479.000000	96.483669 
1478.000000	96.474807 
1477.000000	96.467381 
1476.000000	96.459809 
1475.000000	96.449822 
1474.000000	96.438302 
1473.000000	96.428420 
1472.000000	96.422144 
1471.000000	96.418631 
1470.000000	96.416016 
1469.000000	96.411781 
1468.000000	96.403702 
1467.000000	96.391979 
1466.000000	96.380283 
1465.000000	96.371981 
1464.000000	96.366454 
1463.000000	96.359499 
1462.000000	96.348382 
1461.000000	96.334172 
1460.000000	96.319942 
1459.000000	96.307765 
1458.000000	96.296454 
1457.000000	96.284929 
1456.000000	96.277909 
1455.000000	96.276541 
1454.000000	96.273882 
1453.000000	96.267838 
1452.000000	96.262654 
1451.000000	96.260781 
1450.000000	96.260787 
1449.000000	96.260873 
1448.000000	96.259225 
1447.000000	96.254219 
1446.000000	96.245494 
1445.000000	96.235172 
1444.000000	96.227090 
1443.000000	96.222043 
1442.000000	96.218675 
1441.000000	96.214921 
1440.000000	96.208619 
1439.000000	96.197647 
1438.000000	96.183614 
1437.000000	96.173827 
1436.000000	96.173595 
1435.000000	96.178466 
1434.000000	96.181714 
1433.000000	96.182522 
1432.000000	96.183543 
1431.000000	96.185977 
1430.000000	96.188296 
1429.000000	96.190337 
1428.000000	96.192786 
1427.000000	96.195764 
1426.000000	96.198888 
1425.000000	96.202589 
1424.000000	96.208246 
1423.000000	96.212689 
1422.000000	96.212640 
1421.000000	96.212228 
1420.000000	96.219900 
1419.000000	96.233215 
1418.000000	96.241013 
1417.000000	96.245497 
1416.000000	96.256360 
1415.000000	96.273848 
1414.000000	96.289796 
1413.000000	96.297966 
1412.000000	96.300731 
1411.000000	96.303464 
1410.000000	96.307975 
1409.000000	96.314569 
1408.000000	96.323656 
1407.000000	96.335239 
1406.000000	96.348498 
1405.000000	96.362896 
1404.000000	96.378750 
1403.000000	96.393092 
1402.000000	96.402898 
1401.000000	96.411517 
1400.000000	96.425528 
1399.000000	96.445339 
1398.000000	96.463976 
1397.000000	96.477683 
1396.000000	96.489634 
1395.000000	96.503876 
1394.000000	96.519567 
1393.000000	96.534763 
1392.000000	96.550803 
1391.000000	96.567820 
1390.000000	96.583671 
1389.000000	96.596819 
1388.000000	96.607218 
1387.000000	96.615617 
1386.000000	96.623799 
1385.000000	96.634718 
1384.000000	96.650231 
1383.000000	96.668078 
1382.000000	96.683481 
1381.000000	96.694046 
1380.000000	96.701342 
1379.000000	96.709135 
1378.000000	96.720440 
1377.000000	96.735489 
1376.000000	96.751593 
1375.000000	96.764961 
1374.000000	96.773671 
1373.000000	96.780374 
1372.000000	96.789133 
1371.000000	96.801004 
1370.000000	96.814175 
1369.000000	96.826327 
1368.000000	96.837521 
1367.000000	96.848787 
1366.000000	96.860152 
1365.000000	96.871111 
1364.000000	96.880244 
1363.000000	96.885321 
1362.000000	96.886660 
1361.000000	96.888632 
1360.000000	96.895029 
1359.000000	96.905416 
1358.000000	96.916729 
1357.000000	96.926757 
1356.000000	96.935553 
1355.000000	96.943804 
1354.000000	96.951517 
1353.000000	96.959518 
1352.000000	96.968739 
1351.000000	96.979760 
1350.000000	96.991929 
1349.000000	97.002175 
1348.000000	97.008238 
1347.000000	97.011134 
1346.000000	97.014297 
1345.000000	97.020125 
1344.000000	97.028055 
1343.000000	97.036301 
1342.000000	97.044027 
1341.000000	97.050720 
1340.000000	97.054763 
1339.000000	97.055022 
1338.000000	97.053145 
1337.000000	97.052489 
1336.000000	97.054601 
1335.000000	97.058110 
1334.000000	97.061183 
1333.000000	97.063565 
1332.000000	97.065505 
1331.000000	97.066702 
1330.000000	97.066874 
1329.000000	97.066601 
1328.000000	97.066770 
1327.000000	97.068117 
1326.000000	97.070677 
1325.000000	97.073135 
1324.000000	97.074095 
1323.000000	97.073113 
1322.000000	97.071013 
1321.000000	97.069190 
1320.000000	97.068172 
1319.000000	97.067129 
1318.000000	97.065544 
1317.000000	97.064768 
1316.000000	97.066181 
1315.000000	97.068423 
1314.000000	97.068366 
1313.000000	97.065235 
1312.000000	97.061706 
1311.000000	97.060399 
1310.000000	97.060962 
1309.000000	97.061924 
1308.000000	97.063325 
1307.000000	97.066468 
1306.000000	97.071543 
1305.000000	97.076665 
1304.000000	97.079676 
1303.000000	97.079302 
1302.000000	97.075522 
1301.000000	97.069830 
1300.000000	97.064992 
1299.000000	97.063466 
1298.000000	97.065635 
1297.000000	97.069600 
1296.000000	97.072560 
1295.000000	97.072861 
1294.000000	97.071052 
1293.000000	97.069311 
1292.000000	97.069408 
1291.000000	97.071031 
1290.000000	97.072509 
1289.000000	97.072683 
1288.000000	97.071283 
1287.000000	97.067980 
1286.000000	97.062429 
1285.000000	97.055656 
1284.000000	97.050261 
1283.000000	97.048225 
1282.000000	97.049141 
1281.000000	97.050995 
1280.000000	97.052382 
1279.000000	97.053595 
1278.000000	97.055810 
1277.000000	97.059436 
1276.000000	97.063210 
1275.000000	97.065592 
1274.000000	97.067055 
1273.000000	97.069860 
1272.000000	97.074664 
1271.000000	97.078575 
1270.000000	97.078388 
1269.000000	97.074758 
1268.000000	97.070990 
1267.000000	97.068039 
1266.000000	97.063672 
1265.000000	97.057557 
1264.000000	97.053854 
1263.000000	97.056238 
1262.000000	97.062441 
1261.000000	97.066405 
1260.000000	97.065530 
1259.000000	97.063522 
1258.000000	97.065581 
1257.000000	97.072453 
1256.000000	97.079814 
1255.000000	97.082901 
1254.000000	97.081252 
1253.000000	97.078358 
1252.000000	97.076728 
1251.000000	97.075050 
1250.000000	97.071415 
1249.000000	97.067445 
1248.000000	97.066609 
1247.000000	97.068951 
1246.000000	97.070787 
1245.000000	97.070404 
1244.000000	97.070606 
1243.000000	97.073908 
1242.000000	97.078126 
1241.000000	97.079195 
1240.000000	97.076386 
1239.000000	97.072336 
1238.000000	97.069290 
1237.000000	97.067391 
1236.000000	97.065741 
1235.000000	97.063184 
1234.000000	97.058581 
1233.000000	97.051801 
1232.000000	97.043779 
1231.000000	97.034581 
1230.000000	97.022766 
1229.000000	97.007931 
1228.000000	96.991956 
1227.000000	96.975692 
1226.000000	96.955934 
1225.000000	96.928302 
1224.000000	96.892545 
1223.000000	96.852642 
1222.000000	96.811769 
1221.000000	96.769148 
1220.000000	96.722127 
1219.000000	96.669476 
1218.000000	96.611813 
1217.000000	96.550044 
1216.000000	96.484036 
1215.000000	96.412655 
1214.000000	96.335779 
1213.000000	96.256837 
1212.000000	96.181606 
1211.000000	96.112272 
1210.000000	96.043795 
1209.000000	95.968810 
1208.000000	95.885466 
1207.000000	95.798110 
1206.000000	95.710985 
1205.000000	95.623961 
1204.000000	95.534250 
1203.000000	95.439724 
1202.000000	95.340655 
1201.000000	95.240239 
1200.000000	95.143109 
1199.000000	95.051137 
1198.000000	94.961091 
1197.000000	94.868861 
1196.000000	94.774819 
1195.000000	94.682057 
1194.000000	94.590422 
1193.000000	94.495972 
1192.000000	94.396242 
1191.000000	94.292635 
1190.000000	94.187447 
1189.000000	94.081457 
1188.000000	93.974362 
1187.000000	93.864771 
1186.000000	93.750053 
1185.000000	93.628910 
1184.000000	93.503440 
1183.000000	93.376297 
1182.000000	93.247522 
1181.000000	93.117044 
1180.000000	92.987588 
1179.000000	92.860357 
1178.000000	92.729891 
1177.000000	92.588931 
1176.000000	92.437149 
1175.000000	92.279767 
1174.000000	92.119360 
1173.000000	91.955461 
1172.000000	91.790831 
1171.000000	91.629995 
1170.000000	91.471490 
1169.000000	91.309906 
1168.000000	91.146978 
1167.000000	90.993417 
1166.000000	90.859176 
1165.000000	90.750258 
1164.000000	90.675828 
1163.000000	90.647807 
1162.000000	90.668372 
1161.000000	90.723478 
1160.000000	90.790735 
1159.000000	90.848402 
1158.000000	90.877647 
1157.000000	90.865946 
1156.000000	90.812535 
1155.000000	90.726016 
1154.000000	90.615214 
1153.000000	90.486547 
1152.000000	90.348907 
1151.000000	90.212296 
1150.000000	90.079439 
1149.000000	89.946424 
1148.000000	89.813528 
1147.000000	89.687140 
1146.000000	89.568485 
1145.000000	89.449243 
1144.000000	89.322398 
1143.000000	89.190200 
1142.000000	89.057900 
1141.000000	88.926590 
1140.000000	88.795706 
1139.000000	88.665814 
1138.000000	88.535473 
1137.000000	88.401431 
1136.000000	88.264486 
1135.000000	88.129020 
1134.000000	87.995041 
1133.000000	87.857410 
1132.000000	87.714279 
1131.000000	87.568940 
1130.000000	87.422248 
1129.000000	87.271221 
1128.000000	87.116498 
1127.000000	86.962886 
1126.000000	86.810946 
1125.000000	86.656242 
1124.000000	86.497866 
1123.000000	86.339021 
1122.000000	86.178822 
1121.000000	86.013652 
1120.000000	85.847463 
1119.000000	85.689339 
1118.000000	85.539519 
1117.000000	85.390145 
1116.000000	85.241496 
1115.000000	85.104132 
1114.000000	84.981706 
1113.000000	84.864833 
1112.000000	84.745838 
1111.000000	84.626795 
1110.000000	84.509274 
1109.000000	84.389368 
1108.000000	84.266521 
1107.000000	84.144753 
1106.000000	84.022346 
1105.000000	83.892601 
1104.000000	83.756717 
1103.000000	83.623205 
1102.000000	83.492301 
1101.000000	83.355465 
1100.000000	83.210991 
1099.000000	83.066627 
1098.000000	82.925896 
1097.000000	82.785422 
1096.000000	82.647424 
1095.000000	82.518586 
1094.000000	82.395601 
1093.000000	82.268423 
1092.000000	82.139651 
1091.000000	82.023514 
1090.000000	81.923579 
1089.000000	81.828614 
1088.000000	81.731992 
1087.000000	81.636993 
1086.000000	81.541748 
1085.000000	81.439034 
1084.000000	81.333804 
1083.000000	81.240724 
1082.000000	81.159972 
1081.000000	81.074799 
1080.000000	80.977060 
1079.000000	80.875503 
1078.000000	80.774750 
1077.000000	80.666249 
1076.000000	80.545298 
1075.000000	80.417096 
1074.000000	80.280304 
1073.000000	80.123682 
1072.000000	79.944127 
1071.000000	79.749312 
1070.000000	79.538224 
1069.000000	79.298700 
1068.000000	79.029363 
1067.000000	78.744699 
1066.000000	78.453590 
1065.000000	78.152514 
1064.000000	77.844627 
1063.000000	77.543230 
1062.000000	77.249358 
1061.000000	76.947820 
1060.000000	76.633158 
1059.000000	76.318107 
1058.000000	76.008877 
1057.000000	75.693569 
1056.000000	75.363155 
1055.000000	75.022645 
1054.000000	74.673563 
1053.000000	74.307037 
1052.000000	73.923926 
1051.000000	73.539820 
1050.000000	73.159201 
1049.000000	72.768015 
1048.000000	72.361511 
1047.000000	71.953580 
1046.000000	71.551008 
1045.000000	71.144747 
1044.000000	70.732524 
1043.000000	70.324784 
1042.000000	69.922866 
1041.000000	69.516329 
1040.000000	69.107747 
1039.000000	68.714513 
1038.000000	68.340267 
1037.000000	67.971757 
1036.000000	67.610073 
1035.000000	67.275779 
1034.000000	66.975268 
1033.000000	66.691570 
1032.000000	66.416942 
1031.000000	66.164919 
1030.000000	65.940755 
1029.000000	65.730239 
1028.000000	65.528307 
1027.000000	65.349343 
1026.000000	65.197886 
1025.000000	65.057236 
1024.000000	64.917177 
1023.000000	64.785208 
1022.000000	64.660954 
1021.000000	64.528426 
1020.000000	64.383760 
1019.000000	64.243018 
1018.000000	64.113121 
1017.000000	63.982162 
1016.000000	63.846018 
1015.000000	63.716219 
1014.000000	63.594111 
1013.000000	63.466607 
1012.000000	63.334933 
1011.000000	63.217361 
1010.000000	63.115897 
1009.000000	63.011694 
1008.000000	62.902114 
1007.000000	62.810488 
1006.000000	62.749094 
1005.000000	62.703921 
1004.000000	62.666223 
1003.000000	62.647582 
1002.000000	62.651716 
1001.000000	62.662303 
1000.000000	62.672008 
999.000000	 62.695133 
998.000000	 62.738734 
997.000000	 62.788575 
996.000000	 62.835705 
995.000000	 62.891108 
994.000000	 62.962676 
993.000000	 63.042382 
992.000000	 63.125435 
991.000000	 63.217254 
990.000000	 63.313758 
989.000000	 63.400949 
988.000000	 63.482064 
987.000000	 63.579462 
986.000000	 63.702700 
985.000000	 63.840855 
984.000000	 63.991405 
983.000000	 64.167579 
982.000000	 64.369315 
981.000000	 64.575854 
980.000000	 64.776766 
979.000000	 64.984311 
978.000000	 65.207152 
977.000000	 65.438792 
976.000000	 65.679750 
975.000000	 65.943931 
974.000000	 66.233695 
973.000000	 66.533431 
972.000000	 66.835520 
971.000000	 67.148415 
970.000000	 67.472757 
969.000000	 67.794962 
968.000000	 68.111282 
967.000000	 68.433470 
966.000000	 68.764283 
965.000000	 69.092102 
964.000000	 69.415759 
963.000000	 69.749262 
962.000000	 70.094694 
961.000000	 70.434597 
960.000000	 70.758348 
959.000000	 71.073091 
958.000000	 71.382884 
957.000000	 71.680698 
956.000000	 71.967497 
955.000000	 72.255997 
954.000000	 72.548277 
953.000000	 72.830881 
952.000000	 73.097280 
951.000000	 73.353527 
950.000000	 73.598296 
949.000000	 73.821039 
948.000000	 74.024580 
947.000000	 74.225498 
946.000000	 74.426122 
945.000000	 74.609907 
944.000000	 74.770676 
943.000000	 74.922365 
942.000000	 75.072932 
941.000000	 75.212711 
940.000000	 75.338078 
939.000000	 75.463175 
938.000000	 75.597069 
937.000000	 75.729968 
936.000000	 75.852952 
935.000000	 75.972357 
934.000000	 76.095120 
933.000000	 76.218140 
932.000000	 76.341098 
931.000000	 76.471942 
930.000000	 76.610929 
929.000000	 76.745716 
928.000000	 76.869659 
927.000000	 76.989235 
926.000000	 77.108030 
925.000000	 77.219693 
924.000000	 77.321294 
923.000000	 77.417056 
922.000000	 77.505366 
921.000000	 77.579474 
920.000000	 77.643824 
919.000000	 77.711232 
918.000000	 77.781183 
917.000000	 77.840452 
916.000000	 77.888508 
915.000000	 77.942828 
914.000000	 78.016064 
913.000000	 78.108319 
912.000000	 78.224478 
911.000000	 78.376678 
910.000000	 78.564917 
909.000000	 78.776463 
908.000000	 79.008261 
907.000000	 79.269112 
906.000000	 79.558330 
905.000000	 79.865835 
904.000000	 80.194473 
903.000000	 80.555540 
902.000000	 80.938177 
901.000000	 81.309777 
900.000000	 81.654285 
899.000000	 81.987162 
898.000000	 82.326519 
897.000000	 82.671787 
896.000000	 83.015673 
895.000000	 83.354037 
894.000000	 83.677179 
893.000000	 83.973035 
892.000000	 84.246569 
891.000000	 84.517641 
890.000000	 84.793826 
889.000000	 85.062438 
888.000000	 85.312698 
887.000000	 85.546465 
886.000000	 85.764136 
885.000000	 85.960950 
884.000000	 86.142284 
883.000000	 86.322607 
882.000000	 86.504387 
881.000000	 86.678512 
880.000000	 86.849785 
879.000000	 87.038498 
878.000000	 87.249932 
877.000000	 87.465972 
876.000000	 87.675177 
875.000000	 87.888254 
874.000000	 88.116423 
873.000000	 88.358856 
872.000000	 88.619526 
871.000000	 88.910646 
870.000000	 89.227721 
869.000000	 89.543575 
868.000000	 89.839136 
867.000000	 90.121761 
866.000000	 90.404023 
865.000000	 90.683010 
864.000000	 90.951311 
863.000000	 91.211669 
862.000000	 91.468278 
861.000000	 91.716183 
860.000000	 91.950553 
859.000000	 92.176726 
858.000000	 92.402025 
857.000000	 92.625411 
856.000000	 92.840818 
855.000000	 93.042362 
854.000000	 93.223298 
853.000000	 93.380231 
852.000000	 93.521707 
851.000000	 93.662280 
850.000000	 93.805085 
849.000000	 93.940824 
848.000000	 94.065026 
847.000000	 94.183165 
846.000000	 94.296898 
845.000000	 94.399627 
844.000000	 94.489060 
843.000000	 94.569786 
842.000000	 94.639137 
841.000000	 94.684440 
840.000000	 94.699696 
839.000000	 94.692861 
838.000000	 94.672721 
837.000000	 94.641440 
836.000000	 94.604361 
835.000000	 94.573125 
834.000000	 94.552295 
833.000000	 94.535276 
832.000000	 94.519940 
831.000000	 94.516304 
830.000000	 94.532530 
829.000000	 94.565631 
828.000000	 94.612569 
827.000000	 94.677231 
826.000000	 94.758836 
825.000000	 94.847297 
824.000000	 94.937647 
823.000000	 95.034317 
822.000000	 95.134921 
821.000000	 95.226601 
820.000000	 95.303977 
819.000000	 95.373537 
818.000000	 95.434729 
817.000000	 95.471767 
816.000000	 95.470588 
815.000000	 95.432235 
814.000000	 95.362941 
813.000000	 95.260143 
812.000000	 95.113560 
811.000000	 94.910572 
810.000000	 94.634971 
809.000000	 94.269853 
808.000000	 93.809234 
807.000000	 93.262521 
806.000000	 92.646544 
805.000000	 91.982830 
804.000000	 91.304926 
803.000000	 90.653489 
802.000000	 90.055438 
801.000000	 89.519348 
800.000000	 89.056372 
799.000000	 88.690066 
798.000000	 88.438308 
797.000000	 88.299844 
796.000000	 88.262613 
795.000000	 88.307986 
794.000000	 88.403852 
793.000000	 88.514186 
792.000000	 88.621600 
791.000000	 88.724820 
790.000000	 88.813788 
789.000000	 88.866989 
788.000000	 88.874295 
787.000000	 88.841166 
786.000000	 88.767835 
785.000000	 88.645592 
784.000000	 88.477216 
783.000000	 88.280066 
782.000000	 88.065929 
781.000000	 87.841563 
780.000000	 87.633758 
779.000000	 87.486881 
778.000000	 87.424728 
777.000000	 87.436652 
776.000000	 87.508025 
775.000000	 87.637984 
774.000000	 87.817094 
773.000000	 88.015423 
772.000000	 88.209523 
771.000000	 88.400869 
770.000000	 88.593719 
769.000000	 88.774022 
768.000000	 88.923633 
767.000000	 89.038314 
766.000000	 89.120047 
765.000000	 89.169140 
764.000000	 89.196807 
763.000000	 89.228996 
762.000000	 89.283011 
761.000000	 89.352384 
760.000000	 89.425278 
759.000000	 89.503968 
758.000000	 89.595983 
757.000000	 89.700961 
756.000000	 89.818135 
755.000000	 89.953535 
754.000000	 90.106954 
753.000000	 90.261266 
752.000000	 90.395192 
751.000000	 90.500848 
750.000000	 90.585615 
749.000000	 90.666641 
748.000000	 90.765012 
747.000000	 90.891375 
746.000000	 91.033235 
745.000000	 91.169462 
744.000000	 91.300361 
743.000000	 91.448661 
742.000000	 91.627674 
741.000000	 91.825325 
740.000000	 92.024286 
739.000000	 92.220578 
738.000000	 92.415189 
737.000000	 92.602329 
736.000000	 92.774704 
735.000000	 92.930800 
734.000000	 93.071801 
733.000000	 93.200284 
732.000000	 93.323244 
731.000000	 93.445216 
730.000000	 93.557472 
729.000000	 93.645480 
728.000000	 93.710423 
727.000000	 93.769197 
726.000000	 93.830809 
725.000000	 93.892046 
724.000000	 93.956631 
723.000000	 94.036893 
722.000000	 94.133223 
721.000000	 94.232486 
720.000000	 94.332019 
719.000000	 94.442606 
718.000000	 94.561894 
717.000000	 94.669442 
716.000000	 94.753346 
715.000000	 94.822722 
714.000000	 94.889638 
713.000000	 94.955944 
712.000000	 95.025071 
711.000000	 95.105673 
710.000000	 95.192971 
709.000000	 95.270528 
708.000000	 95.332706 
707.000000	 95.387956 
706.000000	 95.432458 
705.000000	 95.444453 
704.000000	 95.415299 
703.000000	 95.356658 
702.000000	 95.266977 
701.000000	 95.115910 
700.000000	 94.877036 
699.000000	 94.561739 
698.000000	 94.205370 
697.000000	 93.843630 
696.000000	 93.519051 
695.000000	 93.281691 
694.000000	 93.164354 
693.000000	 93.164463 
692.000000	 93.259764 
691.000000	 93.431844 
690.000000	 93.658393 
689.000000	 93.901616 
688.000000	 94.123516 
687.000000	 94.304867 
686.000000	 94.446690 
685.000000	 94.563255 
684.000000	 94.677876 
683.000000	 94.810805 
682.000000	 94.957630 
681.000000	 95.093786 
680.000000	 95.205078 
679.000000	 95.304351 
678.000000	 95.405804 
677.000000	 95.504974 
676.000000	 95.607249 
675.000000	 95.728139 
674.000000	 95.859868 
673.000000	 95.975042 
672.000000	 96.069340 
671.000000	 96.196049 
670.000000	 96.427741 
669.000000	 96.798682 
668.000000	 97.125736 
667.000000	 97.151493 
666.000000	 96.988541 
665.000000	 96.850511 
664.000000	 96.775486 
663.000000	 96.766961 
662.000000	 96.822575 
661.000000	 96.910305 
660.000000	 96.993074 
659.000000	 97.059232 
658.000000	 97.106567 
657.000000	 97.121431 
656.000000	 97.111246 
655.000000	 97.103194 
654.000000	 97.098657 
653.000000	 97.071505 
652.000000	 97.025867 
651.000000	 97.007354 
650.000000	 97.032132 

