4000.000000	96.249726 
3999.000000	96.248792 
3998.000000	96.247676 
3997.000000	96.246539 
3996.000000	96.245571 
3995.000000	96.244995 
3994.000000	96.244959 
3993.000000	96.245261 
3992.000000	96.245359 
3991.000000	96.244974 
3990.000000	96.244608 
3989.000000	96.245041 
3988.000000	96.246415 
3987.000000	96.248173 
3986.000000	96.249794 
3985.000000	96.251126 
3984.000000	96.251925 
3983.000000	96.251707 
3982.000000	96.250448 
3981.000000	96.248956 
3980.000000	96.248001 
3979.000000	96.247414 
3978.000000	96.246671 
3977.000000	96.245995 
3976.000000	96.246188 
3975.000000	96.247346 
3974.000000	96.248434 
3973.000000	96.248315 
3972.000000	96.246682 
3971.000000	96.244026 
3970.000000	96.241207 
3969.000000	96.239126 
3968.000000	96.238225 
3967.000000	96.238220 
3966.000000	96.238401 
3965.000000	96.238180 
3964.000000	96.237305 
3963.000000	96.235793 
3962.000000	96.233927 
3961.000000	96.232209 
3960.000000	96.230913 
3959.000000	96.229944 
3958.000000	96.229286 
3957.000000	96.229377 
3956.000000	96.230449 
3955.000000	96.231915 
3954.000000	96.232848 
3953.000000	96.232768 
3952.000000	96.231747 
3951.000000	96.229928 
3950.000000	96.227459 
3949.000000	96.224722 
3948.000000	96.222252 
3947.000000	96.220455 
3946.000000	96.219325 
3945.000000	96.218395 
3944.000000	96.217194 
3943.000000	96.215972 
3942.000000	96.215543 
3941.000000	96.216137 
3940.000000	96.216908 
3939.000000	96.216852 
3938.000000	96.215913 
3937.000000	96.215109 
3936.000000	96.215083 
3935.000000	96.215052 
3934.000000	96.213861 
3933.000000	96.211624 
3932.000000	96.209763 
3931.000000	96.209006 
3930.000000	96.208874 
3929.000000	96.209129 
3928.000000	96.210309 
3927.000000	96.212317 
3926.000000	96.213511 
3925.000000	96.212705 
3924.000000	96.210910 
3923.000000	96.209510 
3922.000000	96.208239 
3921.000000	96.206372 
3920.000000	96.204291 
3919.000000	96.202944 
3918.000000	96.202282 
3917.000000	96.201753 
3916.000000	96.201521 
3915.000000	96.202055 
3914.000000	96.202956 
3913.000000	96.203356 
3912.000000	96.203003 
3911.000000	96.202396 
3910.000000	96.201812 
3909.000000	96.201213 
3908.000000	96.200561 
3907.000000	96.199878 
3906.000000	96.199025 
3905.000000	96.197844 
3904.000000	96.196541 
3903.000000	96.195493 
3902.000000	96.194816 
3901.000000	96.194369 
3900.000000	96.193995 
3899.000000	96.193640 
3898.000000	96.193270 
3897.000000	96.192859 
3896.000000	96.192422 
3895.000000	96.191984 
3894.000000	96.191555 
3893.000000	96.191133 
3892.000000	96.190704 
3891.000000	96.190253 
3890.000000	96.189779 
3889.000000	96.189292 
3888.000000	96.188808 
3887.000000	96.188332 
3886.000000	96.187873 
3885.000000	96.187438 
3884.000000	96.187031 
3883.000000	96.186639 
3882.000000	96.186255 
3881.000000	96.185890 
3880.000000	96.185568 
3879.000000	96.185301 
3878.000000	96.185077 
3877.000000	96.184871 
3876.000000	96.184662 
3875.000000	96.184442 
3874.000000	96.184216 
3873.000000	96.183990 
3872.000000	96.183763 
3871.000000	96.183533 
3870.000000	96.183313 
3869.000000	96.183133 
3868.000000	96.183006 
3867.000000	96.182919 
3866.000000	96.182859 
3865.000000	96.182834 
3864.000000	96.182855 
3863.000000	96.182916 
3862.000000	96.182990 
3861.000000	96.183066 
3860.000000	96.183145 
3859.000000	96.183227 
3858.000000	96.183304 
3857.000000	96.183375 
3856.000000	96.183446 
3855.000000	96.183522 
3854.000000	96.183607 
3853.000000	96.183712 
3852.000000	96.183836 
3851.000000	96.183975 
3850.000000	96.184133 
3849.000000	96.184319 
3848.000000	96.184539 
3847.000000	96.184783 
3846.000000	96.185027 
3845.000000	96.185248 
3844.000000	96.185440 
3843.000000	96.185611 
3842.000000	96.185783 
3841.000000	96.185975 
3840.000000	96.186193 
3839.000000	96.186434 
3838.000000	96.186682 
3837.000000	96.186928 
3836.000000	96.187170 
3835.000000	96.187417 
3834.000000	96.187681 
3833.000000	96.187972 
3832.000000	96.188293 
3831.000000	96.188635 
3830.000000	96.188987 
3829.000000	96.189338 
3828.000000	96.189683 
3827.000000	96.190010 
3826.000000	96.190314 
3825.000000	96.190594 
3824.000000	96.190859 
3823.000000	96.191109 
3822.000000	96.191343 
3821.000000	96.191575 
3820.000000	96.191834 
3819.000000	96.192136 
3818.000000	96.192471 
3817.000000	96.192820 
3816.000000	96.193177 
3815.000000	96.193542 
3814.000000	96.193897 
3813.000000	96.194221 
3812.000000	96.194505 
3811.000000	96.194766 
3810.000000	96.195022 
3809.000000	96.195274 
3808.000000	96.195504 
3807.000000	96.195697 
3806.000000	96.195860 
3805.000000	96.196014 
3804.000000	96.196175 
3803.000000	96.196352 
3802.000000	96.196552 
3801.000000	96.196780 
3800.000000	96.197022 
3799.000000	96.197247 
3798.000000	96.197435 
3797.000000	96.197594 
3796.000000	96.197737 
3795.000000	96.197859 
3794.000000	96.197939 
3793.000000	96.197961 
3792.000000	96.197926 
3791.000000	96.197834 
3790.000000	96.197673 
3789.000000	96.197433 
3788.000000	96.197118 
3787.000000	96.196739 
3786.000000	96.196310 
3785.000000	96.195849 
3784.000000	96.195370 
3783.000000	96.194871 
3782.000000	96.194341 
3781.000000	96.193777 
3780.000000	96.193189 
3779.000000	96.192582 
3778.000000	96.191934 
3777.000000	96.191212 
3776.000000	96.190403 
3775.000000	96.189522 
3774.000000	96.188596 
3773.000000	96.187645 
3772.000000	96.186679 
3771.000000	96.185710 
3770.000000	96.184749 
3769.000000	96.183793 
3768.000000	96.182826 
3767.000000	96.181833 
3766.000000	96.180818 
3765.000000	96.179772 
3764.000000	96.178756 
3763.000000	96.177894 
3762.000000	96.177105 
3761.000000	96.176110 
3760.000000	96.175027 
3759.000000	96.174429 
3758.000000	96.173923 
3757.000000	96.172375 
3756.000000	96.169751 
3755.000000	96.166946 
3754.000000	96.163995 
3753.000000	96.160393 
3752.000000	96.157817 
3751.000000	96.158035 
3750.000000	96.157662 
3749.000000	96.152780 
3748.000000	96.146536 
3747.000000	96.144468 
3746.000000	96.145150 
3745.000000	96.143826 
3744.000000	96.144531 
3743.000000	96.150052 
3742.000000	96.153040 
3741.000000	96.148041 
3740.000000	96.139139 
3739.000000	96.136314 
3738.000000	96.140949 
3737.000000	96.141940 
3736.000000	96.133298 
3735.000000	96.125061 
3734.000000	96.127517 
3733.000000	96.135663 
3732.000000	96.140469 
3731.000000	96.141213 
3730.000000	96.141039 
3729.000000	96.139414 
3728.000000	96.132810 
3727.000000	96.121955 
3726.000000	96.113894 
3725.000000	96.111895 
3724.000000	96.111491 
3723.000000	96.109195 
3722.000000	96.107093 
3721.000000	96.106662 
3720.000000	96.105139 
3719.000000	96.100499 
3718.000000	96.092596 
3717.000000	96.083464 
3716.000000	96.075371 
3715.000000	96.066611 
3714.000000	96.053578 
3713.000000	96.037445 
3712.000000	96.025513 
3711.000000	96.021300 
3710.000000	96.018869 
3709.000000	96.011921 
3708.000000	95.998496 
3707.000000	95.979827 
3706.000000	95.959666 
3705.000000	95.941770 
3704.000000	95.926618 
3703.000000	95.910709 
3702.000000	95.889441 
3701.000000	95.861223 
3700.000000	95.829896 
3699.000000	95.802034 
3698.000000	95.780380 
3697.000000	95.763966 
3696.000000	95.753497 
3695.000000	95.747988 
3694.000000	95.741892 
3693.000000	95.732528 
3692.000000	95.725741 
3691.000000	95.729038 
3690.000000	95.740109 
3689.000000	95.750115 
3688.000000	95.753639 
3687.000000	95.750824 
3686.000000	95.742199 
3685.000000	95.726139 
3684.000000	95.705229 
3683.000000	95.689133 
3682.000000	95.682344 
3681.000000	95.673933 
3680.000000	95.652553 
3679.000000	95.623415 
3678.000000	95.598928 
3677.000000	95.573715 
3676.000000	95.537998 
3675.000000	95.502211 
3674.000000	95.475549 
3673.000000	95.451879 
3672.000000	95.419826 
3671.000000	95.376721 
3670.000000	95.339138 
3669.000000	95.318762 
3668.000000	95.302199 
3667.000000	95.276413 
3666.000000	95.244857 
3665.000000	95.215266 
3664.000000	95.188928 
3663.000000	95.161750 
3662.000000	95.129346 
3661.000000	95.091450 
3660.000000	95.052661 
3659.000000	95.016570 
3658.000000	94.981642 
3657.000000	94.941984 
3656.000000	94.897395 
3655.000000	94.853657 
3654.000000	94.814387 
3653.000000	94.777403 
3652.000000	94.735856 
3651.000000	94.686725 
3650.000000	94.636811 
3649.000000	94.591372 
3648.000000	94.548884 
3647.000000	94.512821 
3646.000000	94.489770 
3645.000000	94.478610 
3644.000000	94.470622 
3643.000000	94.458276 
3642.000000	94.439817 
3641.000000	94.417571 
3640.000000	94.392369 
3639.000000	94.363596 
3638.000000	94.334028 
3637.000000	94.306946 
3636.000000	94.279116 
3635.000000	94.242019 
3634.000000	94.196051 
3633.000000	94.154149 
3632.000000	94.125561 
3631.000000	94.099615 
3630.000000	94.056352 
3629.000000	94.002184 
3628.000000	93.961918 
3627.000000	93.939492 
3626.000000	93.924542 
3625.000000	93.914088 
3624.000000	93.912693 
3623.000000	93.923413 
3622.000000	93.940022 
3621.000000	93.950364 
3620.000000	93.949545 
3619.000000	93.944426 
3618.000000	93.942612 
3617.000000	93.948177 
3616.000000	93.965050 
3615.000000	93.992889 
3614.000000	94.026261 
3613.000000	94.059925 
3612.000000	94.090913 
3611.000000	94.116537 
3610.000000	94.135484 
3609.000000	94.151377 
3608.000000	94.171135 
3607.000000	94.197198 
3606.000000	94.225078 
3605.000000	94.251487 
3604.000000	94.277961 
3603.000000	94.306334 
3602.000000	94.334703 
3601.000000	94.358581 
3600.000000	94.376691 
3599.000000	94.390084 
3598.000000	94.399708 
3597.000000	94.407578 
3596.000000	94.417779 
3595.000000	94.431332 
3594.000000	94.446233 
3593.000000	94.460387 
3592.000000	94.474177 
3591.000000	94.488957 
3590.000000	94.502224 
3589.000000	94.508512 
3588.000000	94.507897 
3587.000000	94.508005 
3586.000000	94.514169 
3585.000000	94.525949 
3584.000000	94.541898 
3583.000000	94.560501 
3582.000000	94.578847 
3581.000000	94.592590 
3580.000000	94.599208 
3579.000000	94.599448 
3578.000000	94.596276 
3577.000000	94.592909 
3576.000000	94.591620 
3575.000000	94.593171 
3574.000000	94.596630 
3573.000000	94.600771 
3572.000000	94.604820 
3571.000000	94.608761 
3570.000000	94.611100 
3569.000000	94.607995 
3568.000000	94.598623 
3567.000000	94.589158 
3566.000000	94.585134 
3565.000000	94.585268 
3564.000000	94.586040 
3563.000000	94.586032 
3562.000000	94.585662 
3561.000000	94.585840 
3560.000000	94.587072 
3559.000000	94.589484 
3558.000000	94.592763 
3557.000000	94.596629 
3556.000000	94.601057 
3555.000000	94.606038 
3554.000000	94.611036 
3553.000000	94.615433 
3552.000000	94.618873 
3551.000000	94.620509 
3550.000000	94.619094 
3549.000000	94.614504 
3548.000000	94.608607 
3547.000000	94.603640 
3546.000000	94.599883 
3545.000000	94.596460 
3544.000000	94.594139 
3543.000000	94.594979 
3542.000000	94.599217 
3541.000000	94.604931 
3540.000000	94.610535 
3539.000000	94.616093 
3538.000000	94.622039 
3537.000000	94.628013 
3536.000000	94.633140 
3535.000000	94.636216 
3534.000000	94.636403 
3533.000000	94.634166 
3532.000000	94.631810 
3531.000000	94.631718 
3530.000000	94.633742 
3529.000000	94.635229 
3528.000000	94.634020 
3527.000000	94.630656 
3526.000000	94.627332 
3525.000000	94.625695 
3524.000000	94.626246 
3523.000000	94.628977 
3522.000000	94.633400 
3521.000000	94.638443 
3520.000000	94.642943 
3519.000000	94.646222 
3518.000000	94.648162 
3517.000000	94.648776 
3516.000000	94.648122 
3515.000000	94.646647 
3514.000000	94.645504 
3513.000000	94.645757 
3512.000000	94.647203 
3511.000000	94.648474 
3510.000000	94.648521 
3509.000000	94.647675 
3508.000000	94.647058 
3507.000000	94.647142 
3506.000000	94.647143 
3505.000000	94.645887 
3504.000000	94.643161 
3503.000000	94.639940 
3502.000000	94.637431 
3501.000000	94.636338 
3500.000000	94.637003 
3499.000000	94.639544 
3498.000000	94.643559 
3497.000000	94.648038 
3496.000000	94.651698 
3495.000000	94.653697 
3494.000000	94.654216 
3493.000000	94.654149 
3492.000000	94.653809 
3491.000000	94.652264 
3490.000000	94.648567 
3489.000000	94.643280 
3488.000000	94.638233 
3487.000000	94.634758 
3486.000000	94.632875 
3485.000000	94.632375 
3484.000000	94.633520 
3483.000000	94.636128 
3482.000000	94.638878 
3481.000000	94.640405 
3480.000000	94.640664 
3479.000000	94.640366 
3478.000000	94.639516 
3477.000000	94.637419 
3476.000000	94.633926 
3475.000000	94.629945 
3474.000000	94.626551 
3473.000000	94.624169 
3472.000000	94.622635 
3471.000000	94.621603 
3470.000000	94.620874 
3469.000000	94.620567 
3468.000000	94.620991 
3467.000000	94.622280 
3466.000000	94.623972 
3465.000000	94.624943 
3464.000000	94.623887 
3463.000000	94.620146 
3462.000000	94.614362 
3461.000000	94.608298 
3460.000000	94.603591 
3459.000000	94.600324 
3458.000000	94.597008 
3457.000000	94.592086 
3456.000000	94.585554 
3455.000000	94.579101 
3454.000000	94.574728 
3453.000000	94.573156 
3452.000000	94.573676 
3451.000000	94.574819 
3450.000000	94.574966 
3449.000000	94.572812 
3448.000000	94.567910 
3447.000000	94.561023 
3446.000000	94.553525 
3445.000000	94.546579 
3444.000000	94.541090 
3443.000000	94.537836 
3442.000000	94.536843 
3441.000000	94.536702 
3440.000000	94.535286 
3439.000000	94.531521 
3438.000000	94.526128 
3437.000000	94.520530 
3436.000000	94.515564 
3435.000000	94.511416 
3434.000000	94.508166 
3433.000000	94.505654 
3432.000000	94.503317 
3431.000000	94.500700 
3430.000000	94.498074 
3429.000000	94.496175 
3428.000000	94.495186 
3427.000000	94.494440 
3426.000000	94.493341 
3425.000000	94.492236 
3424.000000	94.491763 
3423.000000	94.491449 
3422.000000	94.489749 
3421.000000	94.485830 
3420.000000	94.480800 
3419.000000	94.476727 
3418.000000	94.474735 
3417.000000	94.474536 
3416.000000	94.475256 
3415.000000	94.475989 
3414.000000	94.475718 
3413.000000	94.473560 
3412.000000	94.469558 
3411.000000	94.464949 
3410.000000	94.461378 
3409.000000	94.459886 
3408.000000	94.460550 
3407.000000	94.462646 
3406.000000	94.465198 
3405.000000	94.467768 
3404.000000	94.470555 
3403.000000	94.473364 
3402.000000	94.474883 
3401.000000	94.473586 
3400.000000	94.469309 
3399.000000	94.463636 
3398.000000	94.458776 
3397.000000	94.456201 
3396.000000	94.456134 
3395.000000	94.457830 
3394.000000	94.460232 
3393.000000	94.462671 
3392.000000	94.465018 
3391.000000	94.467239 
3390.000000	94.469084 
3389.000000	94.470454 
3388.000000	94.471776 
3387.000000	94.473611 
3386.000000	94.475887 
3385.000000	94.477719 
3384.000000	94.478118 
3383.000000	94.476961 
3382.000000	94.475408 
3381.000000	94.475108 
3380.000000	94.476615 
3379.000000	94.478723 
3378.000000	94.479874 
3377.000000	94.480149 
3376.000000	94.480972 
3375.000000	94.482855 
3374.000000	94.484597 
3373.000000	94.485215 
3372.000000	94.485730 
3371.000000	94.488074 
3370.000000	94.492717 
3369.000000	94.498196 
3368.000000	94.502767 
3367.000000	94.505939 
3366.000000	94.508361 
3365.000000	94.510907 
3364.000000	94.514053 
3363.000000	94.517698 
3362.000000	94.521281 
3361.000000	94.524180 
3360.000000	94.526124 
3359.000000	94.527215 
3358.000000	94.527670 
3357.000000	94.527724 
3356.000000	94.527752 
3355.000000	94.528316 
3354.000000	94.529989 
3353.000000	94.533047 
3352.000000	94.537266 
3351.000000	94.541961 
3350.000000	94.546306 
3349.000000	94.549744 
3348.000000	94.552213 
3347.000000	94.554164 
3346.000000	94.556445 
3345.000000	94.559825 
3344.000000	94.564268 
3343.000000	94.568672 
3342.000000	94.571787 
3341.000000	94.573457 
3340.000000	94.574669 
3339.000000	94.576312 
3338.000000	94.578297 
3337.000000	94.580162 
3336.000000	94.581943 
3335.000000	94.584105 
3334.000000	94.586883 
3333.000000	94.590045 
3332.000000	94.593191 
3331.000000	94.596093 
3330.000000	94.598738 
3329.000000	94.601214 
3328.000000	94.603643 
3327.000000	94.606158 
3326.000000	94.608845 
3325.000000	94.611692 
3324.000000	94.614603 
3323.000000	94.617469 
3322.000000	94.620257 
3321.000000	94.623002 
3320.000000	94.625731 
3319.000000	94.628434 
3318.000000	94.631105 
3317.000000	94.633776 
3316.000000	94.636482 
3315.000000	94.639215 
3314.000000	94.641951 
3313.000000	94.644687 
3312.000000	94.647440 
3311.000000	94.650219 
3310.000000	94.653014 
3309.000000	94.655809 
3308.000000	94.658593 
3307.000000	94.661361 
3306.000000	94.664113 
3305.000000	94.666853 
3304.000000	94.669597 
3303.000000	94.672370 
3302.000000	94.675190 
3301.000000	94.678059 
3300.000000	94.680953 
3299.000000	94.683836 
3298.000000	94.686670 
3297.000000	94.689426 
3296.000000	94.692136 
3295.000000	94.694907 
3294.000000	94.697837 
3293.000000	94.700948 
3292.000000	94.704161 
3291.000000	94.707370 
3290.000000	94.710488 
3289.000000	94.713491 
3288.000000	94.716454 
3287.000000	94.719509 
3286.000000	94.722697 
3285.000000	94.725881 
3284.000000	94.728916 
3283.000000	94.731892 
3282.000000	94.735118 
3281.000000	94.738775 
3280.000000	94.742583 
3279.000000	94.745955 
3278.000000	94.748572 
3277.000000	94.750765 
3276.000000	94.753193 
3275.000000	94.756108 
3274.000000	94.759193 
3273.000000	94.762171 
3272.000000	94.765249 
3271.000000	94.768728 
3270.000000	94.772407 
3269.000000	94.775611 
3268.000000	94.777754 
3267.000000	94.778794 
3266.000000	94.779440 
3265.000000	94.781009 
3264.000000	94.784619 
3263.000000	94.790189 
3262.000000	94.796389 
3261.000000	94.801950 
3260.000000	94.806751 
3259.000000	94.811434 
3258.000000	94.816437 
3257.000000	94.821709 
3256.000000	94.826955 
3255.000000	94.831580 
3254.000000	94.834707 
3253.000000	94.835912 
3252.000000	94.836006 
3251.000000	94.836483 
3250.000000	94.838011 
3249.000000	94.839988 
3248.000000	94.841619 
3247.000000	94.843081 
3246.000000	94.845476 
3245.000000	94.849830 
3244.000000	94.856246 
3243.000000	94.863902 
3242.000000	94.871761 
3241.000000	94.879228 
3240.000000	94.886061 
3239.000000	94.891954 
3238.000000	94.896617 
3237.000000	94.900258 
3236.000000	94.903540 
3235.000000	94.906749 
3234.000000	94.909184 
3233.000000	94.909774 
3232.000000	94.908391 
3231.000000	94.906407 
3230.000000	94.905934 
3229.000000	94.908473 
3228.000000	94.914105 
3227.000000	94.921724 
3226.000000	94.929853 
3225.000000	94.937240 
3224.000000	94.943026 
3223.000000	94.946866 
3222.000000	94.949175 
3221.000000	94.951049 
3220.000000	94.953545 
3219.000000	94.957159 
3218.000000	94.962028 
3217.000000	94.968134 
3216.000000	94.975001 
3215.000000	94.981783 
3214.000000	94.988112 
3213.000000	94.994424 
3212.000000	95.000870 
3211.000000	95.006237 
3210.000000	95.008671 
3209.000000	95.007347 
3208.000000	95.002921 
3207.000000	94.996642 
3206.000000	94.989937 
3205.000000	94.984925 
3204.000000	94.984284 
3203.000000	94.989833 
3202.000000	95.001442 
3201.000000	95.017412 
3200.000000	95.035655 
3199.000000	95.054376 
3198.000000	95.071925 
3197.000000	95.086498 
3196.000000	95.096365 
3195.000000	95.100686 
3194.000000	95.100253 
3193.000000	95.097203 
3192.000000	95.093650 
3191.000000	95.090448 
3190.000000	95.087355 
3189.000000	95.084211 
3188.000000	95.081891 
3187.000000	95.082361 
3186.000000	95.087693 
3185.000000	95.098373 
3184.000000	95.112320 
3183.000000	95.126285 
3182.000000	95.138547 
3181.000000	95.149350 
3180.000000	95.158467 
3179.000000	95.163775 
3178.000000	95.163536 
3177.000000	95.159228 
3176.000000	95.154758 
3175.000000	95.152929 
3174.000000	95.153960 
3173.000000	95.157186 
3172.000000	95.162512 
3171.000000	95.169783 
3170.000000	95.178071 
3169.000000	95.186342 
3168.000000	95.194175 
3167.000000	95.201324 
3166.000000	95.207191 
3165.000000	95.211200 
3164.000000	95.213251 
3163.000000	95.213582 
3162.000000	95.212620 
3161.000000	95.211218 
3160.000000	95.210617 
3159.000000	95.211843 
3158.000000	95.215376 
3157.000000	95.221432 
3156.000000	95.229991 
3155.000000	95.240340 
3154.000000	95.251041 
3153.000000	95.260710 
3152.000000	95.268566 
3151.000000	95.274122 
3150.000000	95.276863 
3149.000000	95.276696 
3148.000000	95.274517 
3147.000000	95.272059 
3146.000000	95.271112 
3145.000000	95.272746 
3144.000000	95.276820 
3143.000000	95.282055 
3142.000000	95.287043 
3141.000000	95.291581 
3140.000000	95.296621 
3139.000000	95.302786 
3138.000000	95.309409 
3137.000000	95.315207 
3136.000000	95.319372 
3135.000000	95.321901 
3134.000000	95.323429 
3133.000000	95.324952 
3132.000000	95.327197 
3131.000000	95.329914 
3130.000000	95.332248 
3129.000000	95.334139 
3128.000000	95.336880 
3127.000000	95.341865 
3126.000000	95.349031 
3125.000000	95.356835 
3124.000000	95.363609 
3123.000000	95.368690 
3122.000000	95.372469 
3121.000000	95.375909 
3120.000000	95.379881 
3119.000000	95.384486 
3118.000000	95.389008 
3117.000000	95.392727 
3116.000000	95.395694 
3115.000000	95.398610 
3114.000000	95.402167 
3113.000000	95.406743 
3112.000000	95.412586 
3111.000000	95.419787 
3110.000000	95.427771 
3109.000000	95.434986 
3108.000000	95.439650 
3107.000000	95.441060 
3106.000000	95.440139 
3105.000000	95.438637 
3104.000000	95.437782 
3103.000000	95.437831 
3102.000000	95.438616 
3101.000000	95.439963 
3100.000000	95.441511 
3099.000000	95.442849 
3098.000000	95.444416 
3097.000000	95.447704 
3096.000000	95.453741 
3095.000000	95.461613 
3094.000000	95.469163 
3093.000000	95.475067 
3092.000000	95.479468 
3091.000000	95.482694 
3090.000000	95.484502 
3089.000000	95.484859 
3088.000000	95.484604 
3087.000000	95.484847 
3086.000000	95.486187 
3085.000000	95.488687 
3084.000000	95.492048 
3083.000000	95.495605 
3082.000000	95.498725 
3081.000000	95.501435 
3080.000000	95.504160 
3079.000000	95.506831 
3078.000000	95.508935 
3077.000000	95.510545 
3076.000000	95.512532 
3075.000000	95.515455 
3074.000000	95.518864 
3073.000000	95.521986 
3072.000000	95.524576 
3071.000000	95.526743 
3070.000000	95.528478 
3069.000000	95.529879 
3068.000000	95.531442 
3067.000000	95.533578 
3066.000000	95.536062 
3065.000000	95.538338 
3064.000000	95.540139 
3063.000000	95.541482 
3062.000000	95.542351 
3061.000000	95.542819 
3060.000000	95.543339 
3059.000000	95.544520 
3058.000000	95.546603 
3057.000000	95.549365 
3056.000000	95.552359 
3055.000000	95.555051 
3054.000000	95.556895 
3053.000000	95.557722 
3052.000000	95.558203 
3051.000000	95.559451 
3050.000000	95.561899 
3049.000000	95.564868 
3048.000000	95.567294 
3047.000000	95.568653 
3046.000000	95.569011 
3045.000000	95.568690 
3044.000000	95.568239 
3043.000000	95.568457 
3042.000000	95.569927 
3041.000000	95.572397 
3040.000000	95.574818 
3039.000000	95.576299 
3038.000000	95.576990 
3037.000000	95.577869 
3036.000000	95.579577 
3035.000000	95.581596 
3034.000000	95.582881 
3033.000000	95.583179 
3032.000000	95.583206 
3031.000000	95.583524 
3030.000000	95.583808 
3029.000000	95.583479 
3028.000000	95.582388 
3027.000000	95.580493 
3026.000000	95.577606 
3025.000000	95.574162 
3024.000000	95.571776 
3023.000000	95.572009 
3022.000000	95.574759 
3021.000000	95.578486 
3020.000000	95.582004 
3019.000000	95.585239 
3018.000000	95.588053 
3017.000000	95.589464 
3016.000000	95.588652 
3015.000000	95.586114 
3014.000000	95.583421 
3013.000000	95.581971 
3012.000000	95.581960 
3011.000000	95.582146 
3010.000000	95.580713 
3009.000000	95.577011 
3008.000000	95.572484 
3007.000000	95.569374 
3006.000000	95.568373 
3005.000000	95.568228 
3004.000000	95.567545 
3003.000000	95.566336 
3002.000000	95.565658 
3001.000000	95.566426 
3000.000000	95.568665 
2999.000000	95.571161 
2998.000000	95.571871 
2997.000000	95.569538 
2996.000000	95.565192 
2995.000000	95.561473 
2994.000000	95.560033 
2993.000000	95.560216 
2992.000000	95.560390 
2991.000000	95.559834 
2990.000000	95.558948 
2989.000000	95.558286 
2988.000000	95.558055 
2987.000000	95.558261 
2986.000000	95.558943 
2985.000000	95.560301 
2984.000000	95.562604 
2983.000000	95.565788 
2982.000000	95.569252 
2981.000000	95.572336 
2980.000000	95.574713 
2979.000000	95.575896 
2978.000000	95.575030 
2977.000000	95.572248 
2976.000000	95.569830 
2975.000000	95.570516 
2974.000000	95.574540 
2973.000000	95.579540 
2972.000000	95.583620 
2971.000000	95.587195 
2970.000000	95.591129 
2969.000000	95.594700 
2968.000000	95.596683 
2967.000000	95.597441 
2966.000000	95.598577 
2965.000000	95.601018 
2964.000000	95.604538 
2963.000000	95.608679 
2962.000000	95.612890 
2961.000000	95.616051 
2960.000000	95.617231 
2959.000000	95.617213 
2958.000000	95.618283 
2957.000000	95.621993 
2956.000000	95.627652 
2955.000000	95.633276 
2954.000000	95.637659 
2953.000000	95.641300 
2952.000000	95.645510 
2951.000000	95.650888 
2950.000000	95.656563 
2949.000000	95.660908 
2948.000000	95.662977 
2947.000000	95.663008 
2946.000000	95.661684 
2945.000000	95.659481 
2944.000000	95.657100 
2943.000000	95.655811 
2942.000000	95.656386 
2941.000000	95.657952 
2940.000000	95.658910 
2939.000000	95.659106 
2938.000000	95.660165 
2937.000000	95.663250 
2936.000000	95.667221 
2935.000000	95.669693 
2934.000000	95.669487 
2933.000000	95.667337 
2932.000000	95.664597 
2931.000000	95.662102 
2930.000000	95.660305 
2929.000000	95.659692 
2928.000000	95.660397 
2927.000000	95.661686 
2926.000000	95.662509 
2925.000000	95.662845 
2924.000000	95.664006 
2923.000000	95.667207 
2922.000000	95.671975 
2921.000000	95.676329 
2920.000000	95.678784 
2919.000000	95.679854 
2918.000000	95.681182 
2917.000000	95.683367 
2916.000000	95.685199 
2915.000000	95.685270 
2914.000000	95.683839 
2913.000000	95.682648 
2912.000000	95.683005 
2911.000000	95.684578 
2910.000000	95.686187 
2909.000000	95.687341 
2908.000000	95.688611 
2907.000000	95.690649 
2906.000000	95.693259 
2905.000000	95.695559 
2904.000000	95.696742 
2903.000000	95.696903 
2902.000000	95.697049 
2901.000000	95.698240 
2900.000000	95.700890 
2899.000000	95.704551 
2898.000000	95.708565 
2897.000000	95.712509 
2896.000000	95.715935 
2895.000000	95.718169 
2894.000000	95.719039 
2893.000000	95.719666 
2892.000000	95.721740 
2891.000000	95.725729 
2890.000000	95.730363 
2889.000000	95.734215 
2888.000000	95.737321 
2887.000000	95.740497 
2886.000000	95.743527 
2885.000000	95.745188 
2884.000000	95.745208 
2883.000000	95.745205 
2882.000000	95.746978 
2881.000000	95.750451 
2880.000000	95.754113 
2879.000000	95.757252 
2878.000000	95.760807 
2877.000000	95.765674 
2876.000000	95.771143 
2875.000000	95.775646 
2874.000000	95.778531 
2873.000000	95.780370 
2872.000000	95.781924 
2871.000000	95.783480 
2870.000000	95.785108 
2869.000000	95.786868 
2868.000000	95.788608 
2867.000000	95.790042 
2866.000000	95.791194 
2865.000000	95.792385 
2864.000000	95.793733 
2863.000000	95.795122 
2862.000000	95.796784 
2861.000000	95.799350 
2860.000000	95.802967 
2859.000000	95.806901 
2858.000000	95.810426 
2857.000000	95.813735 
2856.000000	95.817489 
2855.000000	95.821739 
2854.000000	95.825753 
2853.000000	95.828778 
2852.000000	95.830587 
2851.000000	95.831454 
2850.000000	95.832079 
2849.000000	95.833453 
2848.000000	95.836197 
2847.000000	95.839936 
2846.000000	95.843651 
2845.000000	95.846771 
2844.000000	95.849724 
2843.000000	95.853394 
2842.000000	95.858279 
2841.000000	95.864048 
2840.000000	95.869498 
2839.000000	95.873061 
2838.000000	95.873952 
2837.000000	95.872896 
2836.000000	95.871617 
2835.000000	95.871381 
2834.000000	95.872337 
2833.000000	95.874329 
2832.000000	95.877622 
2831.000000	95.882399 
2830.000000	95.887959 
2829.000000	95.893008 
2828.000000	95.896735 
2827.000000	95.899281 
2826.000000	95.901212 
2825.000000	95.902851 
2824.000000	95.904141 
2823.000000	95.904849 
2822.000000	95.904805 
2821.000000	95.904225 
2820.000000	95.903774 
2819.000000	95.904126 
2818.000000	95.905431 
2817.000000	95.907360 
2816.000000	95.909663 
2815.000000	95.912462 
2814.000000	95.915856 
2813.000000	95.919420 
2812.000000	95.922385 
2811.000000	95.924349 
2810.000000	95.925585 
2809.000000	95.926526 
2808.000000	95.927163 
2807.000000	95.927234 
2806.000000	95.926942 
2805.000000	95.927074 
2804.000000	95.928212 
2803.000000	95.930124 
2802.000000	95.932208 
2801.000000	95.934295 
2800.000000	95.936660 
2799.000000	95.939312 
2798.000000	95.941737 
2797.000000	95.943436 
2796.000000	95.944501 
2795.000000	95.945407 
2794.000000	95.946505 
2793.000000	95.947815 
2792.000000	95.949209 
2791.000000	95.950613 
2790.000000	95.952014 
2789.000000	95.953397 
2788.000000	95.954766 
2787.000000	95.956185 
2786.000000	95.957716 
2785.000000	95.959324 
2784.000000	95.960915 
2783.000000	95.962447 
2782.000000	95.963943 
2781.000000	95.965436 
2780.000000	95.966936 
2779.000000	95.968439 
2778.000000	95.969938 
2777.000000	95.971424 
2776.000000	95.972889 
2775.000000	95.974329 
2774.000000	95.975743 
2773.000000	95.977137 
2772.000000	95.978517 
2771.000000	95.979890 
2770.000000	95.981266 
2769.000000	95.982655 
2768.000000	95.984059 
2767.000000	95.985472 
2766.000000	95.986884 
2765.000000	95.988285 
2764.000000	95.989666 
2763.000000	95.991020 
2762.000000	95.992346 
2761.000000	95.993646 
2760.000000	95.994930 
2759.000000	95.996211 
2758.000000	95.997493 
2757.000000	95.998769 
2756.000000	96.000024 
2755.000000	96.001248 
2754.000000	96.002443 
2753.000000	96.003623 
2752.000000	96.004794 
2751.000000	96.005970 
2750.000000	96.007160 
2749.000000	96.008359 
2748.000000	96.009559 
2747.000000	96.010737 
2746.000000	96.011841 
2745.000000	96.012828 
2744.000000	96.013723 
2743.000000	96.014610 
2742.000000	96.015559 
2741.000000	96.016586 
2740.000000	96.017659 
2739.000000	96.018707 
2738.000000	96.019636 
2737.000000	96.020416 
2736.000000	96.021154 
2735.000000	96.022019 
2734.000000	96.023068 
2733.000000	96.024208 
2732.000000	96.025336 
2731.000000	96.026468 
2730.000000	96.027726 
2729.000000	96.029211 
2728.000000	96.030848 
2727.000000	96.032321 
2726.000000	96.033270 
2725.000000	96.033603 
2724.000000	96.033580 
2723.000000	96.033580 
2722.000000	96.033783 
2721.000000	96.034195 
2720.000000	96.034838 
2719.000000	96.035751 
2718.000000	96.036790 
2717.000000	96.037574 
2716.000000	96.037821 
2715.000000	96.037764 
2714.000000	96.038084 
2713.000000	96.039316 
2712.000000	96.041369 
2711.000000	96.043573 
2710.000000	96.045283 
2709.000000	96.046361 
2708.000000	96.047135 
2707.000000	96.048027 
2706.000000	96.049202 
2705.000000	96.050481 
2704.000000	96.051458 
2703.000000	96.051750 
2702.000000	96.051316 
2701.000000	96.050657 
2700.000000	96.050579 
2699.000000	96.051595 
2698.000000	96.053532 
2697.000000	96.055663 
2696.000000	96.057273 
2695.000000	96.058201 
2694.000000	96.058908 
2693.000000	96.059989 
2692.000000	96.061504 
2691.000000	96.062813 
2690.000000	96.063145 
2689.000000	96.062260 
2688.000000	96.060556 
2687.000000	96.058767 
2686.000000	96.057733 
2685.000000	96.058226 
2684.000000	96.060560 
2683.000000	96.064139 
2682.000000	96.067586 
2681.000000	96.069798 
2680.000000	96.070668 
2679.000000	96.070823 
2678.000000	96.070883 
2677.000000	96.071016 
2676.000000	96.070900 
2675.000000	96.069913 
2674.000000	96.067691 
2673.000000	96.064799 
2672.000000	96.062576 
2671.000000	96.061970 
2670.000000	96.062805 
2669.000000	96.064333 
2668.000000	96.066167 
2667.000000	96.068175 
2666.000000	96.069755 
2665.000000	96.070035 
2664.000000	96.068876 
2663.000000	96.067099 
2662.000000	96.065483 
2661.000000	96.063932 
2660.000000	96.061973 
2659.000000	96.059752 
2658.000000	96.058162 
2657.000000	96.057982 
2656.000000	96.059086 
2655.000000	96.060423 
2654.000000	96.060743 
2653.000000	96.059491 
2652.000000	96.057185 
2651.000000	96.054967 
2650.000000	96.053710 
2649.000000	96.053399 
2648.000000	96.053250 
2647.000000	96.052357 
2646.000000	96.050449 
2645.000000	96.048267 
2644.000000	96.047139 
2643.000000	96.047969 
2642.000000	96.050488 
2641.000000	96.053452 
2640.000000	96.055744 
2639.000000	96.057310 
2638.000000	96.058972 
2637.000000	96.061246 
2636.000000	96.063377 
2635.000000	96.063863 
2634.000000	96.061983 
2633.000000	96.058431 
2632.000000	96.054297 
2631.000000	96.049897 
2630.000000	96.045152 
2629.000000	96.040798 
2628.000000	96.038336 
2627.000000	96.038609 
2626.000000	96.041153 
2625.000000	96.044821 
2624.000000	96.048558 
2623.000000	96.051558 
2622.000000	96.053233 
2621.000000	96.053312 
2620.000000	96.051731 
2619.000000	96.048456 
2618.000000	96.043875 
2617.000000	96.039211 
2616.000000	96.035781 
2615.000000	96.033731 
2614.000000	96.032304 
2613.000000	96.031481 
2612.000000	96.032395 
2611.000000	96.035593 
2610.000000	96.039699 
2609.000000	96.042449 
2608.000000	96.042757 
2607.000000	96.041173 
2606.000000	96.038987 
2605.000000	96.037307 
2604.000000	96.036508 
2603.000000	96.036008 
2602.000000	96.034829 
2601.000000	96.032779 
2600.000000	96.030805 
2599.000000	96.029854 
2598.000000	96.029891 
2597.000000	96.030430 
2596.000000	96.031329 
2595.000000	96.032373 
2594.000000	96.032713 
2593.000000	96.031745 
2592.000000	96.030114 
2591.000000	96.028831 
2590.000000	96.027564 
2589.000000	96.025009 
2588.000000	96.021113 
2587.000000	96.017869 
2586.000000	96.017242 
2585.000000	96.019257 
2584.000000	96.022358 
2583.000000	96.025042 
2582.000000	96.026854 
2581.000000	96.028103 
2580.000000	96.029270 
2579.000000	96.030472 
2578.000000	96.031119 
2577.000000	96.030346 
2576.000000	96.027983 
2575.000000	96.024867 
2574.000000	96.022112 
2573.000000	96.020346 
2572.000000	96.019669 
2571.000000	96.019799 
2570.000000	96.020075 
2569.000000	96.019840 
2568.000000	96.019136 
2567.000000	96.018594 
2566.000000	96.018412 
2565.000000	96.017941 
2564.000000	96.016613 
2563.000000	96.014749 
2562.000000	96.013062 
2561.000000	96.011838 
2560.000000	96.011102 
2559.000000	96.011077 
2558.000000	96.011896 
2557.000000	96.013185 
2556.000000	96.014529 
2555.000000	96.016070 
2554.000000	96.017938 
2553.000000	96.019197 
2552.000000	96.018335 
2551.000000	96.014946 
2550.000000	96.010422 
2549.000000	96.006796 
2548.000000	96.004878 
2547.000000	96.004123 
2546.000000	96.003754 
2545.000000	96.003514 
2544.000000	96.003408 
2543.000000	96.003308 
2542.000000	96.003234 
2541.000000	96.003643 
2540.000000	96.004904 
2539.000000	96.006555 
2538.000000	96.007498 
2537.000000	96.007088 
2536.000000	96.005715 
2535.000000	96.004266 
2534.000000	96.003179 
2533.000000	96.002239 
2532.000000	96.001155 
2531.000000	95.999999 
2530.000000	95.999045 
2529.000000	95.998332 
2528.000000	95.997547 
2527.000000	95.996418 
2526.000000	95.995191 
2525.000000	95.994662 
2524.000000	95.995561 
2523.000000	95.997757 
2522.000000	96.000056 
2521.000000	96.000983 
2520.000000	95.999948 
2519.000000	95.997668 
2518.000000	95.995571 
2517.000000	95.994636 
2516.000000	95.994802 
2515.000000	95.995381 
2514.000000	95.995827 
2513.000000	95.995972 
2512.000000	95.995690 
2511.000000	95.994805 
2510.000000	95.993501 
2509.000000	95.992397 
2508.000000	95.991802 
2507.000000	95.991302 
2506.000000	95.990776 
2505.000000	95.991405 
2504.000000	95.994658 
2503.000000	96.000242 
2502.000000	96.005674 
2501.000000	96.008570 
2500.000000	96.008804 
2499.000000	96.007914 
2498.000000	96.007013 
2497.000000	96.005875 
2496.000000	96.003939 
2495.000000	96.001181 
2494.000000	95.997861 
2493.000000	95.994194 
2492.000000	95.990847 
2491.000000	95.989277 
2490.000000	95.990758 
2489.000000	95.994996 
2488.000000	96.000000 
2487.000000	96.003760 
2486.000000	96.006051 
2485.000000	96.008151 
2484.000000	96.010904 
2483.000000	96.013485 
2482.000000	96.014316 
2481.000000	96.012783 
2480.000000	96.009695 
2479.000000	96.006463 
2478.000000	96.004315 
2477.000000	96.003978 
2476.000000	96.005291 
2475.000000	96.007125 
2474.000000	96.008353 
2473.000000	96.009044 
2472.000000	96.010103 
2471.000000	96.011739 
2470.000000	96.013096 
2469.000000	96.013551 
2468.000000	96.013494 
2467.000000	96.013325 
2466.000000	96.012490 
2465.000000	96.010321 
2464.000000	96.007399 
2463.000000	96.005357 
2462.000000	96.005419 
2461.000000	96.007635 
2460.000000	96.011368 
2459.000000	96.015988 
2458.000000	96.020844 
2457.000000	96.024876 
2456.000000	96.026727 
2455.000000	96.025539 
2454.000000	96.021847 
2453.000000	96.017485 
2452.000000	96.014064 
2451.000000	96.011699 
2450.000000	96.009781 
2449.000000	96.008527 
2448.000000	96.008822 
2447.000000	96.010581 
2446.000000	96.012386 
2445.000000	96.013222 
2444.000000	96.013616 
2443.000000	96.014410 
2442.000000	96.015277 
2441.000000	96.015247 
2440.000000	96.014241 
2439.000000	96.013328 
2438.000000	96.013640 
2437.000000	96.015473 
2436.000000	96.018201 
2435.000000	96.020640 
2434.000000	96.021871 
2433.000000	96.022060 
2432.000000	96.022273 
2431.000000	96.023358 
2430.000000	96.025362 
2429.000000	96.027978 
2428.000000	96.030787 
2427.000000	96.032838 
2426.000000	96.032910 
2425.000000	96.030757 
2424.000000	96.027679 
2423.000000	96.025398 
2422.000000	96.024648 
2421.000000	96.025354 
2420.000000	96.027487 
2419.000000	96.030884 
2418.000000	96.034608 
2417.000000	96.037617 
2416.000000	96.039778 
2415.000000	96.041564 
2414.000000	96.043112 
2413.000000	96.044203 
2412.000000	96.044894 
2411.000000	96.045321 
2410.000000	96.045160 
2409.000000	96.044286 
2408.000000	96.043513 
2407.000000	96.043652 
2406.000000	96.044215 
2405.000000	96.043988 
2404.000000	96.042693 
2403.000000	96.041303 
2402.000000	96.040922 
2401.000000	96.042013 
2400.000000	96.044452 
2399.000000	96.047572 
2398.000000	96.050444 
2397.000000	96.052779 
2396.000000	96.055181 
2395.000000	96.057911 
2394.000000	96.059999 
2393.000000	96.060501 
2392.000000	96.060069 
2391.000000	96.060080 
2390.000000	96.060607 
2389.000000	96.060484 
2388.000000	96.059192 
2387.000000	96.057406 
2386.000000	96.055681 
2385.000000	96.053907 
2384.000000	96.052269 
2383.000000	96.051694 
2382.000000	96.053129 
2381.000000	96.057277 
2380.000000	96.065016 
2379.000000	96.076618 
2378.000000	96.089798 
2377.000000	96.099805 
2376.000000	96.102856 
2375.000000	96.098761 
2374.000000	96.089747 
2373.000000	96.077595 
2372.000000	96.063555 
2371.000000	96.050787 
2370.000000	96.044068 
2369.000000	96.045644 
2368.000000	96.052505 
2367.000000	96.058945 
2366.000000	96.062402 
2365.000000	96.064814 
2364.000000	96.068123 
2363.000000	96.071182 
2362.000000	96.072450 
2361.000000	96.073425 
2360.000000	96.076132 
2359.000000	96.079513 
2358.000000	96.080853 
2357.000000	96.079560 
2356.000000	96.076917 
2355.000000	96.073934 
2354.000000	96.071118 
2353.000000	96.068733 
2352.000000	96.067537 
2351.000000	96.067049 
2350.000000	96.065524 
2349.000000	96.063453 
2348.000000	96.063993 
2347.000000	96.067392 
2346.000000	96.067273 
2345.000000	96.059716 
2344.000000	96.049476 
2343.000000	96.043002 
2342.000000	96.042594 
2341.000000	96.047102 
2340.000000	96.053392 
2339.000000	96.057253 
2338.000000	96.057260 
2337.000000	96.056312 
2336.000000	96.058788 
2335.000000	96.065477 
2334.000000	96.072324 
2333.000000	96.073189 
2332.000000	96.065264 
2331.000000	96.050588 
2330.000000	96.033071 
2329.000000	96.015489 
2328.000000	95.999852 
2327.000000	95.989131 
2326.000000	95.984270 
2325.000000	95.983228 
2324.000000	95.983029 
2323.000000	95.982313 
2322.000000	95.980260 
2321.000000	95.975715 
2320.000000	95.970318 
2319.000000	95.968945 
2318.000000	95.974943 
2317.000000	95.986188 
2316.000000	95.997166 
2315.000000	96.003529 
2314.000000	96.003401 
2313.000000	95.997299 
2312.000000	95.988087 
2311.000000	95.980474 
2310.000000	95.977159 
2309.000000	95.977160 
2308.000000	95.978103 
2307.000000	95.979584 
2306.000000	95.981971 
2305.000000	95.984099 
2304.000000	95.984344 
2303.000000	95.983536 
2302.000000	95.984456 
2301.000000	95.988417 
2300.000000	95.993760 
2299.000000	95.997540 
2298.000000	95.997830 
2297.000000	95.994825 
2296.000000	95.990441 
2295.000000	95.987417 
2294.000000	95.987315 
2293.000000	95.989826 
2292.000000	95.993561 
2291.000000	95.997762 
2290.000000	96.002309 
2289.000000	96.007055 
2288.000000	96.011466 
2287.000000	96.014911 
2286.000000	96.016810 
2285.000000	96.017082 
2284.000000	96.016532 
2283.000000	96.016293 
2282.000000	96.016804 
2281.000000	96.017566 
2280.000000	96.017776 
2279.000000	96.016570 
2278.000000	96.013457 
2277.000000	96.009296 
2276.000000	96.006499 
2275.000000	96.007019 
2274.000000	96.010197 
2273.000000	96.013493 
2272.000000	96.015279 
2271.000000	96.015752 
2270.000000	96.015267 
2269.000000	96.013620 
2268.000000	96.011305 
2267.000000	96.009759 
2266.000000	96.009524 
2265.000000	96.009491 
2264.000000	96.008459 
2263.000000	96.006333 
2262.000000	96.003399 
2261.000000	95.999670 
2260.000000	95.995496 
2259.000000	95.991800 
2258.000000	95.989256 
2257.000000	95.987903 
2256.000000	95.987761 
2255.000000	95.988834 
2254.000000	95.990312 
2253.000000	95.990662 
2252.000000	95.989156 
2251.000000	95.986469 
2250.000000	95.983707 
2249.000000	95.981370 
2248.000000	95.979422 
2247.000000	95.977839 
2246.000000	95.976570 
2245.000000	95.975328 
2244.000000	95.973824 
2243.000000	95.972078 
2242.000000	95.970300 
2241.000000	95.968668 
2240.000000	95.967243 
2239.000000	95.965969 
2238.000000	95.964728 
2237.000000	95.963425 
2236.000000	95.962050 
2235.000000	95.960643 
2234.000000	95.959231 
2233.000000	95.957823 
2232.000000	95.956421 
2231.000000	95.955030 
2230.000000	95.953652 
2229.000000	95.952280 
2228.000000	95.950910 
2227.000000	95.949544 
2226.000000	95.948179 
2225.000000	95.946806 
2224.000000	95.945415 
2223.000000	95.944015 
2222.000000	95.942629 
2221.000000	95.941272 
2220.000000	95.939936 
2219.000000	95.938599 
2218.000000	95.937244 
2217.000000	95.935873 
2216.000000	95.934496 
2215.000000	95.933124 
2214.000000	95.931761 
2213.000000	95.930419 
2212.000000	95.929121 
2211.000000	95.927894 
2210.000000	95.926748 
2209.000000	95.925661 
2208.000000	95.924594 
2207.000000	95.923515 
2206.000000	95.922410 
2205.000000	95.921276 
2204.000000	95.920113 
2203.000000	95.918925 
2202.000000	95.917719 
2201.000000	95.916538 
2200.000000	95.915445 
2199.000000	95.914389 
2198.000000	95.913212 
2197.000000	95.911808 
2196.000000	95.910275 
2195.000000	95.908843 
2194.000000	95.907656 
2193.000000	95.906693 
2192.000000	95.905924 
2191.000000	95.905344 
2190.000000	95.904749 
2189.000000	95.903812 
2188.000000	95.902666 
2187.000000	95.901919 
2186.000000	95.901629 
2185.000000	95.900759 
2184.000000	95.898577 
2183.000000	95.896361 
2182.000000	95.896345 
2181.000000	95.899003 
2180.000000	95.902173 
2179.000000	95.903266 
2178.000000	95.901822 
2177.000000	95.899408 
2176.000000	95.897900 
2175.000000	95.898133 
2174.000000	95.899983 
2173.000000	95.902973 
2172.000000	95.906899 
2171.000000	95.911717 
2170.000000	95.916384 
2169.000000	95.918596 
2168.000000	95.917007 
2167.000000	95.913561 
2166.000000	95.911961 
2165.000000	95.913045 
2164.000000	95.913551 
2163.000000	95.910628 
2162.000000	95.906246 
2161.000000	95.905271 
2160.000000	95.910153 
2159.000000	95.919361 
2158.000000	95.929952 
2157.000000	95.939972 
2156.000000	95.948460 
2155.000000	95.954977 
2154.000000	95.959860 
2153.000000	95.964145 
2152.000000	95.968523 
2151.000000	95.972275 
2150.000000	95.973694 
2149.000000	95.972083 
2148.000000	95.969314 
2147.000000	95.968717 
2146.000000	95.972108 
2145.000000	95.978608 
2144.000000	95.986619 
2143.000000	95.995785 
2142.000000	96.005974 
2141.000000	96.015509 
2140.000000	96.022132 
2139.000000	96.025684 
2138.000000	96.028458 
2137.000000	96.032241 
2136.000000	96.035903 
2135.000000	96.036742 
2134.000000	96.033777 
2133.000000	96.029455 
2132.000000	96.028113 
2131.000000	96.032174 
2130.000000	96.040295 
2129.000000	96.048663 
2128.000000	96.054409 
2127.000000	96.057683 
2126.000000	96.060313 
2125.000000	96.063501 
2124.000000	96.067139 
2123.000000	96.070619 
2122.000000	96.073388 
2121.000000	96.075004 
2120.000000	96.075499 
2119.000000	96.075657 
2118.000000	96.076444 
2117.000000	96.078205 
2116.000000	96.080538 
2115.000000	96.082778 
2114.000000	96.084517 
2113.000000	96.085867 
2112.000000	96.087387 
2111.000000	96.089673 
2110.000000	96.092816 
2109.000000	96.096240 
2108.000000	96.099132 
2107.000000	96.101032 
2106.000000	96.102085 
2105.000000	96.103002 
2104.000000	96.104751 
2103.000000	96.107863 
2102.000000	96.111651 
2101.000000	96.114379 
2100.000000	96.114869 
2099.000000	96.113866 
2098.000000	96.113669 
2097.000000	96.115797 
2096.000000	96.119814 
2095.000000	96.124152 
2094.000000	96.127702 
2093.000000	96.130318 
2092.000000	96.132188 
2091.000000	96.133583 
2090.000000	96.135074 
2089.000000	96.137340 
2088.000000	96.140477 
2087.000000	96.143734 
2086.000000	96.146087 
2085.000000	96.147020 
2084.000000	96.146866 
2083.000000	96.146454 
2082.000000	96.146558 
2081.000000	96.147706 
2080.000000	96.150352 
2079.000000	96.154704 
2078.000000	96.160004 
2077.000000	96.164452 
2076.000000	96.166703 
2075.000000	96.167326 
2074.000000	96.167968 
2073.000000	96.168940 
2072.000000	96.168718 
2071.000000	96.166216 
2070.000000	96.162413 
2069.000000	96.159395 
2068.000000	96.158350 
2067.000000	96.158845 
2066.000000	96.159500 
2065.000000	96.158876 
2064.000000	96.156256 
2063.000000	96.152282 
2062.000000	96.148968 
2061.000000	96.148365 
2060.000000	96.150787 
2059.000000	96.154827 
2058.000000	96.158465 
2057.000000	96.160360 
2056.000000	96.160342 
2055.000000	96.158932 
2054.000000	96.157043 
2053.000000	96.155614 
2052.000000	96.154990 
2051.000000	96.154753 
2050.000000	96.154248 
2049.000000	96.153295 
2048.000000	96.152229 
2047.000000	96.151341 
2046.000000	96.150576 
2045.000000	96.149767 
2044.000000	96.148897 
2043.000000	96.148053 
2042.000000	96.147289 
2041.000000	96.146610 
2040.000000	96.145998 
2039.000000	96.145433 
2038.000000	96.144877 
2037.000000	96.144300 
2036.000000	96.143686 
2035.000000	96.143051 
2034.000000	96.142428 
2033.000000	96.141838 
2032.000000	96.141282 
2031.000000	96.140733 
2030.000000	96.140163 
2029.000000	96.139558 
2028.000000	96.138924 
2027.000000	96.138273 
2026.000000	96.137604 
2025.000000	96.136918 
2024.000000	96.136229 
2023.000000	96.135574 
2022.000000	96.134981 
2021.000000	96.134434 
2020.000000	96.133880 
2019.000000	96.133264 
2018.000000	96.132566 
2017.000000	96.131805 
2016.000000	96.131021 
2015.000000	96.130244 
2014.000000	96.129483 
2013.000000	96.128743 
2012.000000	96.128041 
2011.000000	96.127414 
2010.000000	96.126887 
2009.000000	96.126457 
2008.000000	96.126091 
2007.000000	96.125765 
2006.000000	96.125477 
2005.000000	96.125247 
2004.000000	96.125099 
2003.000000	96.125044 
2002.000000	96.125078 
2001.000000	96.125162 
2000.000000	96.125199 
1999.000000	96.125086 
1998.000000	96.124811 
1997.000000	96.124457 
1996.000000	96.124130 
1995.000000	96.123893 
1994.000000	96.123772 
1993.000000	96.123760 
1992.000000	96.123820 
1991.000000	96.123925 
1990.000000	96.124076 
1989.000000	96.124301 
1988.000000	96.124623 
1987.000000	96.125050 
1986.000000	96.125564 
1985.000000	96.126143 
1984.000000	96.126772 
1983.000000	96.127450 
1982.000000	96.128168 
1981.000000	96.128906 
1980.000000	96.129638 
1979.000000	96.130349 
1978.000000	96.131046 
1977.000000	96.131745 
1976.000000	96.132463 
1975.000000	96.133210 
1974.000000	96.134000 
1973.000000	96.134851 
1972.000000	96.135782 
1971.000000	96.136797 
1970.000000	96.137863 
1969.000000	96.138924 
1968.000000	96.139923 
1967.000000	96.140842 
1966.000000	96.141711 
1965.000000	96.142582 
1964.000000	96.143491 
1963.000000	96.144439 
1962.000000	96.145394 
1961.000000	96.146314 
1960.000000	96.147171 
1959.000000	96.147960 
1958.000000	96.148705 
1957.000000	96.149456 
1956.000000	96.150264 
1955.000000	96.151160 
1954.000000	96.152129 
1953.000000	96.153085 
1952.000000	96.153937 
1951.000000	96.154674 
1950.000000	96.155336 
1949.000000	96.155984 
1948.000000	96.156744 
1947.000000	96.157727 
1946.000000	96.158778 
1945.000000	96.159427 
1944.000000	96.159245 
1943.000000	96.158161 
1942.000000	96.156630 
1941.000000	96.155394 
1940.000000	96.155034 
1939.000000	96.155544 
1938.000000	96.156253 
1937.000000	96.156601 
1936.000000	96.156906 
1935.000000	96.157824 
1934.000000	96.159277 
1933.000000	96.160700 
1932.000000	96.162078 
1931.000000	96.163933 
1930.000000	96.166176 
1929.000000	96.167581 
1928.000000	96.167409 
1927.000000	96.166353 
1926.000000	96.165431 
1925.000000	96.164759 
1924.000000	96.163920 
1923.000000	96.163222 
1922.000000	96.163221 
1921.000000	96.163632 
1920.000000	96.164009 
1919.000000	96.164422 
1918.000000	96.164734 
1917.000000	96.164071 
1916.000000	96.162250 
1915.000000	96.160764 
1914.000000	96.160504 
1913.000000	96.160338 
1912.000000	96.158970 
1911.000000	96.157107 
1910.000000	96.156356 
1909.000000	96.156759 
1908.000000	96.157164 
1907.000000	96.156645 
1906.000000	96.154853 
1905.000000	96.151735 
1904.000000	96.147991 
1903.000000	96.145465 
1902.000000	96.145244 
1901.000000	96.146155 
1900.000000	96.146363 
1899.000000	96.145590 
1898.000000	96.144664 
1897.000000	96.143936 
1896.000000	96.143041 
1895.000000	96.141825 
1894.000000	96.140536 
1893.000000	96.139328 
1892.000000	96.138171 
1891.000000	96.137088 
1890.000000	96.136166 
1889.000000	96.135401 
1888.000000	96.134725 
1887.000000	96.134144 
1886.000000	96.133630 
1885.000000	96.133010 
1884.000000	96.132146 
1883.000000	96.131134 
1882.000000	96.130253 
1881.000000	96.129667 
1880.000000	96.129327 
1879.000000	96.129043 
1878.000000	96.128633 
1877.000000	96.128076 
1876.000000	96.127559 
1875.000000	96.127346 
1874.000000	96.127569 
1873.000000	96.128069 
1872.000000	96.128534 
1871.000000	96.128778 
1870.000000	96.128709 
1869.000000	96.128238 
1868.000000	96.127510 
1867.000000	96.127027 
1866.000000	96.127007 
1865.000000	96.126919 
1864.000000	96.126288 
1863.000000	96.125675 
1862.000000	96.126006 
1861.000000	96.127136 
1860.000000	96.127995 
1859.000000	96.128270 
1858.000000	96.128776 
1857.000000	96.130032 
1856.000000	96.131693 
1855.000000	96.133269 
1854.000000	96.134500 
1853.000000	96.134989 
1852.000000	96.134906 
1851.000000	96.135304 
1850.000000	96.136665 
1849.000000	96.138045 
1848.000000	96.138231 
1847.000000	96.137574 
1846.000000	96.137513 
1845.000000	96.138608 
1844.000000	96.140195 
1843.000000	96.141875 
1842.000000	96.144034 
1841.000000	96.146711 
1840.000000	96.149560 
1839.000000	96.152330 
1838.000000	96.154866 
1837.000000	96.156532 
1836.000000	96.156744 
1835.000000	96.156303 
1834.000000	96.156463 
1833.000000	96.157065 
1832.000000	96.157084 
1831.000000	96.155854 
1830.000000	96.153821 
1829.000000	96.152449 
1828.000000	96.152682 
1827.000000	96.154695 
1826.000000	96.158112 
1825.000000	96.161770 
1824.000000	96.163914 
1823.000000	96.163809 
1822.000000	96.162688 
1821.000000	96.162206 
1820.000000	96.162687 
1819.000000	96.163419 
1818.000000	96.164505 
1817.000000	96.166415 
1816.000000	96.168273 
1815.000000	96.169427 
1814.000000	96.170628 
1813.000000	96.172691 
1812.000000	96.174387 
1811.000000	96.173617 
1810.000000	96.171382 
1809.000000	96.170355 
1808.000000	96.170793 
1807.000000	96.171628 
1806.000000	96.173078 
1805.000000	96.175480 
1804.000000	96.176919 
1803.000000	96.175207 
1802.000000	96.170539 
1801.000000	96.166022 
1800.000000	96.164023 
1799.000000	96.164050 
1798.000000	96.165123 
1797.000000	96.165865 
1796.000000	96.164700 
1795.000000	96.162387 
1794.000000	96.161704 
1793.000000	96.164249 
1792.000000	96.167670 
1791.000000	96.169112 
1790.000000	96.170467 
1789.000000	96.174541 
1788.000000	96.180413 
1787.000000	96.184747 
1786.000000	96.185708 
1785.000000	96.184391 
1784.000000	96.182932 
1783.000000	96.183674 
1782.000000	96.186613 
1781.000000	96.190019 
1780.000000	96.192789 
1779.000000	96.195118 
1778.000000	96.198559 
1777.000000	96.202882 
1776.000000	96.206488 
1775.000000	96.208624 
1774.000000	96.209971 
1773.000000	96.212883 
1772.000000	96.218482 
1771.000000	96.223104 
1770.000000	96.224300 
1769.000000	96.224022 
1768.000000	96.224612 
1767.000000	96.226528 
1766.000000	96.228587 
1765.000000	96.230464 
1764.000000	96.232461 
1763.000000	96.234113 
1762.000000	96.234967 
1761.000000	96.236534 
1760.000000	96.239561 
1759.000000	96.242766 
1758.000000	96.244828 
1757.000000	96.245811 
1756.000000	96.248176 
1755.000000	96.251820 
1754.000000	96.253680 
1753.000000	96.252000 
1752.000000	96.248584 
1751.000000	96.247052 
1750.000000	96.248464 
1749.000000	96.250310 
1748.000000	96.250366 
1747.000000	96.248894 
1746.000000	96.246292 
1745.000000	96.243889 
1744.000000	96.243357 
1743.000000	96.244064 
1742.000000	96.244378 
1741.000000	96.245013 
1740.000000	96.247545 
1739.000000	96.251095 
1738.000000	96.253184 
1737.000000	96.253577 
1736.000000	96.253208 
1735.000000	96.251548 
1734.000000	96.248242 
1733.000000	96.243373 
1732.000000	96.239191 
1731.000000	96.239013 
1730.000000	96.242934 
1729.000000	96.247198 
1728.000000	96.248717 
1727.000000	96.247257 
1726.000000	96.243541 
1725.000000	96.239493 
1724.000000	96.237166 
1723.000000	96.237273 
1722.000000	96.239262 
1721.000000	96.241011 
1720.000000	96.240233 
1719.000000	96.235356 
1718.000000	96.227672 
1717.000000	96.220366 
1716.000000	96.212505 
1715.000000	96.204280 
1714.000000	96.199539 
1713.000000	96.198600 
1712.000000	96.197589 
1711.000000	96.195250 
1710.000000	96.193206 
1709.000000	96.191218 
1708.000000	96.187581 
1707.000000	96.182720 
1706.000000	96.179138 
1705.000000	96.176282 
1704.000000	96.169256 
1703.000000	96.156661 
1702.000000	96.141749 
1701.000000	96.130830 
1700.000000	96.126817 
1699.000000	96.122202 
1698.000000	96.116153 
1697.000000	96.111943 
1696.000000	96.108728 
1695.000000	96.105198 
1694.000000	96.100740 
1693.000000	96.095870 
1692.000000	96.090654 
1691.000000	96.083946 
1690.000000	96.074834 
1689.000000	96.063407 
1688.000000	96.051598 
1687.000000	96.040896 
1686.000000	96.031648 
1685.000000	96.024820 
1684.000000	96.019868 
1683.000000	96.014342 
1682.000000	96.007412 
1681.000000	95.999118 
1680.000000	95.991718 
1679.000000	95.986522 
1678.000000	95.981347 
1677.000000	95.973341 
1676.000000	95.963685 
1675.000000	95.956382 
1674.000000	95.948440 
1673.000000	95.936879 
1672.000000	95.924923 
1671.000000	95.916062 
1670.000000	95.909128 
1669.000000	95.900358 
1668.000000	95.892350 
1667.000000	95.888524 
1666.000000	95.884967 
1665.000000	95.877893 
1664.000000	95.868564 
1663.000000	95.861463 
1662.000000	95.854772 
1661.000000	95.842303 
1660.000000	95.828152 
1659.000000	95.820114 
1658.000000	95.817089 
1657.000000	95.813168 
1656.000000	95.806614 
1655.000000	95.797826 
1654.000000	95.784088 
1653.000000	95.770306 
1652.000000	95.750848 
1651.000000	95.726885 
1650.000000	95.706058 
1649.000000	95.694007 
1648.000000	95.688371 
1647.000000	95.686463 
1646.000000	95.686499 
1645.000000	95.684320 
1644.000000	95.677606 
1643.000000	95.670378 
1642.000000	95.667077 
1641.000000	95.666533 
1640.000000	95.667167 
1639.000000	95.667602 
1638.000000	95.667490 
1637.000000	95.665125 
1636.000000	95.660228 
1635.000000	95.657176 
1634.000000	95.656839 
1633.000000	95.657295 
1632.000000	95.656328 
1631.000000	95.655784 
1630.000000	95.658795 
1629.000000	95.665890 
1628.000000	95.674832 
1627.000000	95.684609 
1626.000000	95.693847 
1625.000000	95.701790 
1624.000000	95.711673 
1623.000000	95.727348 
1622.000000	95.744916 
1621.000000	95.756620 
1620.000000	95.764048 
1619.000000	95.773595 
1618.000000	95.787408 
1617.000000	95.800197 
1616.000000	95.807112 
1615.000000	95.811449 
1614.000000	95.817745 
1613.000000	95.825574 
1612.000000	95.833947 
1611.000000	95.844542 
1610.000000	95.856440 
1609.000000	95.866275 
1608.000000	95.875478 
1607.000000	95.888405 
1606.000000	95.902659 
1605.000000	95.913151 
1604.000000	95.921753 
1603.000000	95.931319 
1602.000000	95.939441 
1601.000000	95.943836 
1600.000000	95.948141 
1599.000000	95.956921 
1598.000000	95.968528 
1597.000000	95.978831 
1596.000000	95.987293 
1595.000000	95.995972 
1594.000000	96.004841 
1593.000000	96.012144 
1592.000000	96.018365 
1591.000000	96.025392 
1590.000000	96.032510 
1589.000000	96.037715 
1588.000000	96.042785 
1587.000000	96.051507 
1586.000000	96.063366 
1585.000000	96.072785 
1584.000000	96.078716 
1583.000000	96.085288 
1582.000000	96.092852 
1581.000000	96.098226 
1580.000000	96.101770 
1579.000000	96.106602 
1578.000000	96.112986 
1577.000000	96.120109 
1576.000000	96.128620 
1575.000000	96.136281 
1574.000000	96.138293 
1573.000000	96.136019 
1572.000000	96.135845 
1571.000000	96.142061 
1570.000000	96.151047 
1569.000000	96.153366 
1568.000000	96.150761 
1567.000000	96.150804 
1566.000000	96.153809 
1565.000000	96.156192 
1564.000000	96.158877 
1563.000000	96.160232 
1562.000000	96.156690 
1561.000000	96.141352 
1560.000000	96.128589 
1559.000000	96.132399 
1558.000000	96.139535 
1557.000000	96.139421 
1556.000000	96.138160 
1555.000000	96.140610 
1554.000000	96.144165 
1553.000000	96.145968 
1552.000000	96.145952 
1551.000000	96.141010 
1550.000000	96.129924 
1549.000000	96.117604 
1548.000000	96.110357 
1547.000000	96.108554 
1546.000000	96.105563 
1545.000000	96.095490 
1544.000000	96.080620 
1543.000000	96.066993 
1542.000000	96.059026 
1541.000000	96.057029 
1540.000000	96.053642 
1539.000000	96.045501 
1538.000000	96.032482 
1537.000000	96.014634 
1536.000000	95.995246 
1535.000000	95.979659 
1534.000000	95.970151 
1533.000000	95.964150 
1532.000000	95.956409 
1531.000000	95.944799 
1530.000000	95.931627 
1529.000000	95.918326 
1528.000000	95.903396 
1527.000000	95.886660 
1526.000000	95.870445 
1525.000000	95.857239 
1524.000000	95.847789 
1523.000000	95.840655 
1522.000000	95.832160 
1521.000000	95.818675 
1520.000000	95.800701 
1519.000000	95.781860 
1518.000000	95.763473 
1517.000000	95.744506 
1516.000000	95.725782 
1515.000000	95.710742 
1514.000000	95.700287 
1513.000000	95.691890 
1512.000000	95.681199 
1511.000000	95.664875 
1510.000000	95.644352 
1509.000000	95.622711 
1508.000000	95.602473 
1507.000000	95.584786 
1506.000000	95.572539 
1505.000000	95.562005 
1504.000000	95.548452 
1503.000000	95.532216 
1502.000000	95.514829 
1501.000000	95.497383 
1500.000000	95.480856 
1499.000000	95.464924 
1498.000000	95.448317 
1497.000000	95.431821 
1496.000000	95.417003 
1495.000000	95.404183 
1494.000000	95.393113 
1493.000000	95.383376 
1492.000000	95.373543 
1491.000000	95.361304 
1490.000000	95.345544 
1489.000000	95.328369 
1488.000000	95.311619 
1487.000000	95.295438 
1486.000000	95.280547 
1485.000000	95.265388 
1484.000000	95.248853 
1483.000000	95.232420 
1482.000000	95.217587 
1481.000000	95.204599 
1480.000000	95.191925 
1479.000000	95.178519 
1478.000000	95.164413 
1477.000000	95.149896 
1476.000000	95.133908 
1475.000000	95.115921 
1474.000000	95.097048 
1473.000000	95.079812 
1472.000000	95.067311 
1471.000000	95.058778 
1470.000000	95.051043 
1469.000000	95.041537 
1468.000000	95.028181 
1467.000000	95.011201 
1466.000000	94.994751 
1465.000000	94.983448 
1464.000000	94.978012 
1463.000000	94.972390 
1462.000000	94.962144 
1461.000000	94.949192 
1460.000000	94.937281 
1459.000000	94.924703 
1458.000000	94.902998 
1457.000000	94.875185 
1456.000000	94.858292 
1455.000000	94.852881 
1454.000000	94.847718 
1453.000000	94.840545 
1452.000000	94.834207 
1451.000000	94.829841 
1450.000000	94.826918 
1449.000000	94.826230 
1448.000000	94.826318 
1447.000000	94.824179 
1446.000000	94.818067 
1445.000000	94.811041 
1444.000000	94.807989 
1443.000000	94.806458 
1442.000000	94.801422 
1441.000000	94.792307 
1440.000000	94.781910 
1439.000000	94.768206 
1438.000000	94.746832 
1437.000000	94.723620 
1436.000000	94.713457 
1435.000000	94.717399 
1434.000000	94.725040 
1433.000000	94.732237 
1432.000000	94.739894 
1431.000000	94.747189 
1430.000000	94.751312 
1429.000000	94.753772 
1428.000000	94.757720 
1427.000000	94.764330 
1426.000000	94.771945 
1425.000000	94.780110 
1424.000000	94.792148 
1423.000000	94.805225 
1422.000000	94.813370 
1421.000000	94.817567 
1420.000000	94.824712 
1419.000000	94.833435 
1418.000000	94.836532 
1417.000000	94.840280 
1416.000000	94.856684 
1415.000000	94.884972 
1414.000000	94.912630 
1413.000000	94.930279 
1412.000000	94.940897 
1411.000000	94.951501 
1410.000000	94.964519 
1409.000000	94.980462 
1408.000000	94.998568 
1407.000000	95.016992 
1406.000000	95.034484 
1405.000000	95.053710 
1404.000000	95.079311 
1403.000000	95.106962 
1402.000000	95.129241 
1401.000000	95.148805 
1400.000000	95.175319 
1399.000000	95.210749 
1398.000000	95.244783 
1397.000000	95.269437 
1396.000000	95.287271 
1395.000000	95.305425 
1394.000000	95.326502 
1393.000000	95.350179 
1392.000000	95.377940 
1391.000000	95.408730 
1390.000000	95.438152 
1389.000000	95.462760 
1388.000000	95.482260 
1387.000000	95.498755 
1386.000000	95.515228 
1385.000000	95.534922 
1384.000000	95.559989 
1383.000000	95.587613 
1382.000000	95.612121 
1381.000000	95.631187 
1380.000000	95.647018 
1379.000000	95.663483 
1378.000000	95.682810 
1377.000000	95.704538 
1376.000000	95.726012 
1375.000000	95.744140 
1374.000000	95.758236 
1373.000000	95.772662 
1372.000000	95.791716 
1371.000000	95.814959 
1370.000000	95.838404 
1369.000000	95.859025 
1368.000000	95.878856 
1367.000000	95.900034 
1366.000000	95.920599 
1365.000000	95.937396 
1364.000000	95.948601 
1363.000000	95.954421 
1362.000000	95.958481 
1361.000000	95.966150 
1360.000000	95.980130 
1359.000000	95.999181 
1358.000000	96.019361 
1357.000000	96.036669 
1356.000000	96.049627 
1355.000000	96.059252 
1354.000000	96.067637 
1353.000000	96.077799 
1352.000000	96.090837 
1351.000000	96.106596 
1350.000000	96.123738 
1349.000000	96.138869 
1348.000000	96.149679 
1347.000000	96.156447 
1346.000000	96.161561 
1345.000000	96.167654 
1344.000000	96.176153 
1343.000000	96.186777 
1342.000000	96.197587 
1341.000000	96.205414 
1340.000000	96.208040 
1339.000000	96.207139 
1338.000000	96.207055 
1337.000000	96.210504 
1336.000000	96.216614 
1335.000000	96.222706 
1334.000000	96.227451 
1333.000000	96.231966 
1332.000000	96.237601 
1331.000000	96.244036 
1330.000000	96.249372 
1329.000000	96.251963 
1328.000000	96.251674 
1327.000000	96.250396 
1326.000000	96.250215 
1325.000000	96.251283 
1324.000000	96.252604 
1323.000000	96.252848 
1322.000000	96.251288 
1321.000000	96.248741 
1320.000000	96.247122 
1319.000000	96.247393 
1318.000000	96.248750 
1317.000000	96.250051 
1316.000000	96.250652 
1315.000000	96.249763 
1314.000000	96.246859 
1313.000000	96.243610 
1312.000000	96.243022 
1311.000000	96.245683 
1310.000000	96.248508 
1309.000000	96.248777 
1308.000000	96.247303 
1307.000000	96.247065 
1306.000000	96.249349 
1305.000000	96.252837 
1304.000000	96.256132 
1303.000000	96.258358 
1302.000000	96.258487 
1301.000000	96.255998 
1300.000000	96.252338 
1299.000000	96.250040 
1298.000000	96.250085 
1297.000000	96.250815 
1296.000000	96.249730 
1295.000000	96.246234 
1294.000000	96.242377 
1293.000000	96.241375 
1292.000000	96.244892 
1291.000000	96.251286 
1290.000000	96.256769 
1289.000000	96.258475 
1288.000000	96.256240 
1287.000000	96.251958 
1286.000000	96.248045 
1285.000000	96.246452 
1284.000000	96.247783 
1283.000000	96.250281 
1282.000000	96.250780 
1281.000000	96.247455 
1280.000000	96.241561 
1279.000000	96.236239 
1278.000000	96.234135 
1277.000000	96.236237 
1276.000000	96.241825 
1275.000000	96.248935 
1274.000000	96.255260 
1273.000000	96.259312 
1272.000000	96.260616 
1271.000000	96.259043 
1270.000000	96.254902 
1269.000000	96.249516 
1268.000000	96.244619 
1267.000000	96.240557 
1266.000000	96.236381 
1265.000000	96.232549 
1264.000000	96.231596 
1263.000000	96.234639 
1262.000000	96.239016 
1261.000000	96.241165 
1260.000000	96.241381 
1259.000000	96.243563 
1258.000000	96.249911 
1257.000000	96.257685 
1256.000000	96.261884 
1255.000000	96.260756 
1254.000000	96.258031 
1253.000000	96.258649 
1252.000000	96.262277 
1251.000000	96.263138 
1250.000000	96.257567 
1249.000000	96.249628 
1248.000000	96.246634 
1247.000000	96.249941 
1246.000000	96.253687 
1245.000000	96.252998 
1244.000000	96.249433 
1243.000000	96.247219 
1242.000000	96.247890 
1241.000000	96.250654 
1240.000000	96.254830 
1239.000000	96.259055 
1238.000000	96.260463 
1237.000000	96.257510 
1236.000000	96.252154 
1235.000000	96.247087 
1234.000000	96.242309 
1233.000000	96.236449 
1232.000000	96.229620 
1231.000000	96.222298 
1230.000000	96.212997 
1229.000000	96.199894 
1228.000000	96.183558 
1227.000000	96.165448 
1226.000000	96.144615 
1225.000000	96.118597 
1224.000000	96.087247 
1223.000000	96.053079 
1222.000000	96.017522 
1221.000000	95.978699 
1220.000000	95.933359 
1219.000000	95.879755 
1218.000000	95.818669 
1217.000000	95.752806 
1216.000000	95.684832 
1215.000000	95.615097 
1214.000000	95.542237 
1213.000000	95.467097 
1212.000000	95.393751 
1211.000000	95.323813 
1210.000000	95.251778 
1209.000000	95.170218 
1208.000000	95.079122 
1207.000000	94.986247 
1206.000000	94.897821 
1205.000000	94.812268 
1204.000000	94.724018 
1203.000000	94.630226 
1202.000000	94.532485 
1201.000000	94.434257 
1200.000000	94.337986 
1199.000000	94.243462 
1198.000000	94.148406 
1197.000000	94.051630 
1196.000000	93.954715 
1195.000000	93.859149 
1194.000000	93.763449 
1193.000000	93.665526 
1192.000000	93.566382 
1191.000000	93.468222 
1190.000000	93.370153 
1189.000000	93.269274 
1188.000000	93.165013 
1187.000000	93.058693 
1186.000000	92.949820 
1185.000000	92.836886 
1184.000000	92.721096 
1183.000000	92.605339 
1182.000000	92.490122 
1181.000000	92.374294 
1180.000000	92.258460 
1179.000000	92.142917 
1178.000000	92.023132 
1177.000000	91.892906 
1176.000000	91.751978 
1175.000000	91.605854 
1174.000000	91.458716 
1173.000000	91.311553 
1172.000000	91.166192 
1171.000000	91.024077 
1170.000000	90.881010 
1169.000000	90.730786 
1168.000000	90.575918 
1167.000000	90.428884 
1166.000000	90.302252 
1165.000000	90.204369 
1164.000000	90.144412 
1163.000000	90.131430 
1162.000000	90.163739 
1161.000000	90.224637 
1160.000000	90.290973 
1159.000000	90.341877 
1158.000000	90.360819 
1157.000000	90.338360 
1156.000000	90.276202 
1155.000000	90.183940 
1154.000000	90.070506 
1153.000000	89.942582 
1152.000000	89.809458 
1151.000000	89.680748 
1150.000000	89.557456 
1149.000000	89.432839 
1148.000000	89.303869 
1147.000000	89.174420 
1146.000000	89.045887 
1145.000000	88.913430 
1144.000000	88.774670 
1143.000000	88.634328 
1142.000000	88.496794 
1141.000000	88.360891 
1140.000000	88.224661 
1139.000000	88.088210 
1138.000000	87.949369 
1137.000000	87.803996 
1136.000000	87.653139 
1135.000000	87.502694 
1134.000000	87.353689 
1133.000000	87.200416 
1132.000000	87.040199 
1131.000000	86.876813 
1130.000000	86.712010 
1129.000000	86.542149 
1128.000000	86.366067 
1127.000000	86.188031 
1126.000000	86.010044 
1125.000000	85.829217 
1124.000000	85.645236 
1123.000000	85.462193 
1122.000000	85.280807 
1121.000000	85.097565 
1120.000000	84.913510 
1119.000000	84.734408 
1118.000000	84.560632 
1117.000000	84.387513 
1116.000000	84.217362 
1115.000000	84.059727 
1114.000000	83.917162 
1113.000000	83.782187 
1112.000000	83.650457 
1111.000000	83.524819 
1110.000000	83.403773 
1109.000000	83.278873 
1108.000000	83.146571 
1107.000000	83.010922 
1106.000000	82.872926 
1105.000000	82.729217 
1104.000000	82.582559 
1103.000000	82.440900 
1102.000000	82.303468 
1101.000000	82.161727 
1100.000000	82.014534 
1099.000000	81.869833 
1098.000000	81.730851 
1097.000000	81.593140 
1096.000000	81.456647 
1095.000000	81.325329 
1094.000000	81.194378 
1093.000000	81.053795 
1092.000000	80.906549 
1091.000000	80.767494 
1090.000000	80.642185 
1089.000000	80.521930 
1088.000000	80.400638 
1087.000000	80.279975 
1086.000000	80.157213 
1085.000000	80.026035 
1084.000000	79.891410 
1083.000000	79.765942 
1082.000000	79.648888 
1081.000000	79.526022 
1080.000000	79.391904 
1079.000000	79.254056 
1078.000000	79.113615 
1077.000000	78.961126 
1076.000000	78.794210 
1075.000000	78.620042 
1074.000000	78.437333 
1073.000000	78.234971 
1072.000000	78.010869 
1071.000000	77.772317 
1070.000000	77.515291 
1069.000000	77.224595 
1068.000000	76.898958 
1067.000000	76.556222 
1066.000000	76.209454 
1065.000000	75.857658 
1064.000000	75.503923 
1063.000000	75.159728 
1062.000000	74.824432 
1061.000000	74.482313 
1060.000000	74.127294 
1059.000000	73.770346 
1058.000000	73.416648 
1057.000000	73.056357 
1056.000000	72.683775 
1055.000000	72.304073 
1054.000000	71.915156 
1053.000000	71.505244 
1052.000000	71.076068 
1051.000000	70.645483 
1050.000000	70.218656 
1049.000000	69.782106 
1048.000000	69.333657 
1047.000000	68.889319 
1046.000000	68.453924 
1045.000000	68.013635 
1044.000000	67.563027 
1043.000000	67.112882 
1042.000000	66.666291 
1041.000000	66.213529 
1040.000000	65.756939 
1039.000000	65.314642 
1038.000000	64.892614 
1037.000000	64.478988 
1036.000000	64.071878 
1035.000000	63.685799 
1034.000000	63.324747 
1033.000000	62.977206 
1032.000000	62.643684 
1031.000000	62.340401 
1030.000000	62.069731 
1029.000000	61.816185 
1028.000000	61.577102 
1027.000000	61.366914 
1026.000000	61.185029 
1025.000000	61.010468 
1024.000000	60.834755 
1023.000000	60.669446 
1022.000000	60.515147 
1021.000000	60.354992 
1020.000000	60.185394 
1019.000000	60.021967 
1018.000000	59.868542 
1017.000000	59.711296 
1016.000000	59.548946 
1015.000000	59.396856 
1014.000000	59.255694 
1013.000000	59.108514 
1012.000000	58.954580 
1011.000000	58.813265 
1010.000000	58.688731 
1009.000000	58.564392 
1008.000000	58.438669 
1007.000000	58.332278 
1006.000000	58.252861 
1005.000000	58.185524 
1004.000000	58.124865 
1003.000000	58.082927 
1002.000000	58.058875 
1001.000000	58.035221 
1000.000000	58.011705 
999.000000	 58.009177 
998.000000	 58.032138 
997.000000	 58.060735 
996.000000	 58.087205 
995.000000	 58.126901 
994.000000	 58.185400 
993.000000	 58.248041 
992.000000	 58.310033 
991.000000	 58.384339 
990.000000	 58.471970 
989.000000	 58.557003 
988.000000	 58.638669 
987.000000	 58.736392 
986.000000	 58.856334 
985.000000	 58.985508 
984.000000	 59.124934 
983.000000	 59.294516 
982.000000	 59.497222 
981.000000	 59.711667 
980.000000	 59.928374 
979.000000	 60.161323 
978.000000	 60.416140 
977.000000	 60.680230 
976.000000	 60.952646 
975.000000	 61.250814 
974.000000	 61.577873 
973.000000	 61.914122 
972.000000	 62.249967 
971.000000	 62.597963 
970.000000	 62.963827 
969.000000	 63.334733 
968.000000	 63.704520 
967.000000	 64.082522 
966.000000	 64.469900 
965.000000	 64.854296 
964.000000	 65.234182 
963.000000	 65.621465 
962.000000	 66.014570 
961.000000	 66.396334 
960.000000	 66.763796 
959.000000	 67.132526 
958.000000	 67.506019 
957.000000	 67.868250 
956.000000	 68.212482 
955.000000	 68.550463 
954.000000	 68.886912 
953.000000	 69.210932 
952.000000	 69.518600 
951.000000	 69.818352 
950.000000	 70.108435 
949.000000	 70.374447 
948.000000	 70.614945 
947.000000	 70.844948 
946.000000	 71.068807 
945.000000	 71.273557 
944.000000	 71.454084 
943.000000	 71.620966 
942.000000	 71.779196 
941.000000	 71.923324 
940.000000	 72.058188 
939.000000	 72.199536 
938.000000	 72.348749 
937.000000	 72.491461 
936.000000	 72.626285 
935.000000	 72.769983 
934.000000	 72.928700 
933.000000	 73.089062 
932.000000	 73.243809 
931.000000	 73.401712 
930.000000	 73.565870 
929.000000	 73.726018 
928.000000	 73.878670 
927.000000	 74.032073 
926.000000	 74.185696 
925.000000	 74.327156 
924.000000	 74.454069 
923.000000	 74.576549 
922.000000	 74.694568 
921.000000	 74.796285 
920.000000	 74.882184 
919.000000	 74.966472 
918.000000	 75.050541 
917.000000	 75.120093 
916.000000	 75.174127 
915.000000	 75.232926 
914.000000	 75.312384 
913.000000	 75.414369 
912.000000	 75.546199 
911.000000	 75.723232 
910.000000	 75.946055 
909.000000	 76.200415 
908.000000	 76.485198 
907.000000	 76.815076 
906.000000	 77.190787 
905.000000	 77.593082 
904.000000	 78.011098 
903.000000	 78.450797 
902.000000	 78.910373 
901.000000	 79.373311 
900.000000	 79.831573 
899.000000	 80.291789 
898.000000	 80.753712 
897.000000	 81.205012 
896.000000	 81.640288 
895.000000	 82.063087 
894.000000	 82.468116 
893.000000	 82.844987 
892.000000	 83.200671 
891.000000	 83.553991 
890.000000	 83.905426 
889.000000	 84.235810 
888.000000	 84.536829 
887.000000	 84.818556 
886.000000	 85.084712 
885.000000	 85.325771 
884.000000	 85.540687 
883.000000	 85.740601 
882.000000	 85.926317 
881.000000	 86.087510 
880.000000	 86.230303 
879.000000	 86.379981 
878.000000	 86.548910 
877.000000	 86.727088 
876.000000	 86.911506 
875.000000	 87.117733 
874.000000	 87.354503 
873.000000	 87.614184 
872.000000	 87.896307 
871.000000	 88.212245 
870.000000	 88.556824 
869.000000	 88.902101 
868.000000	 89.230633 
867.000000	 89.552131 
866.000000	 89.877870 
865.000000	 90.200779 
864.000000	 90.511591 
863.000000	 90.814594 
862.000000	 91.115050 
861.000000	 91.406983 
860.000000	 91.684509 
859.000000	 91.951614 
858.000000	 92.211288 
857.000000	 92.457046 
856.000000	 92.682824 
855.000000	 92.889708 
854.000000	 93.076705 
853.000000	 93.236842 
852.000000	 93.369255 
851.000000	 93.485354 
850.000000	 93.597791 
849.000000	 93.711377 
848.000000	 93.825812 
847.000000	 93.935495 
846.000000	 94.025771 
845.000000	 94.083303 
844.000000	 94.112326 
843.000000	 94.128066 
842.000000	 94.133605 
841.000000	 94.117904 
840.000000	 94.076989 
839.000000	 94.019668 
838.000000	 93.949930 
837.000000	 93.861770 
836.000000	 93.757006 
835.000000	 93.651942 
834.000000	 93.559626 
833.000000	 93.479993 
832.000000	 93.413342 
831.000000	 93.368116 
830.000000	 93.348573 
829.000000	 93.349867 
828.000000	 93.372062 
827.000000	 93.423208 
826.000000	 93.501999 
825.000000	 93.594993 
824.000000	 93.697358 
823.000000	 93.815978 
822.000000	 93.945879 
821.000000	 94.066378 
820.000000	 94.166878 
819.000000	 94.255166 
818.000000	 94.334871 
817.000000	 94.393207 
816.000000	 94.416845 
815.000000	 94.404672 
814.000000	 94.358340 
813.000000	 94.272030 
812.000000	 94.136306 
811.000000	 93.940237 
810.000000	 93.665724 
809.000000	 93.292938 
808.000000	 92.817980 
807.000000	 92.256507 
806.000000	 91.628506 
805.000000	 90.952514 
804.000000	 90.257410 
803.000000	 89.582501 
802.000000	 88.959190 
801.000000	 88.408773 
800.000000	 87.961660 
799.000000	 87.654975 
798.000000	 87.500716 
797.000000	 87.475223 
796.000000	 87.545979 
795.000000	 87.688206 
794.000000	 87.873094 
793.000000	 88.068345 
792.000000	 88.260186 
791.000000	 88.452060 
790.000000	 88.633729 
789.000000	 88.773561 
788.000000	 88.848501 
787.000000	 88.860057 
786.000000	 88.813135 
785.000000	 88.700547 
784.000000	 88.519227 
783.000000	 88.285038 
782.000000	 88.023684 
781.000000	 87.763863 
780.000000	 87.544290 
779.000000	 87.404975 
778.000000	 87.360603 
777.000000	 87.399436 
776.000000	 87.512773 
775.000000	 87.702602 
774.000000	 87.954032 
773.000000	 88.226369 
772.000000	 88.483972 
771.000000	 88.717039 
770.000000	 88.924981 
769.000000	 89.101317 
768.000000	 89.243821 
767.000000	 89.358443 
766.000000	 89.443152 
765.000000	 89.487635 
764.000000	 89.498789 
763.000000	 89.506321 
762.000000	 89.531345 
761.000000	 89.567518 
760.000000	 89.603570 
759.000000	 89.644411 
758.000000	 89.697414 
757.000000	 89.757593 
756.000000	 89.821753 
755.000000	 89.901088 
754.000000	 90.004125 
753.000000	 90.119555 
752.000000	 90.228754 
751.000000	 90.325507 
750.000000	 90.415333 
749.000000	 90.506938 
748.000000	 90.611150 
747.000000	 90.735099 
746.000000	 90.870710 
745.000000	 91.002440 
744.000000	 91.132235 
743.000000	 91.281633 
742.000000	 91.463043 
741.000000	 91.665273 
740.000000	 91.873673 
739.000000	 92.086892 
738.000000	 92.305418 
737.000000	 92.520132 
736.000000	 92.721881 
735.000000	 92.909309 
734.000000	 93.080110 
733.000000	 93.228350 
732.000000	 93.356050 
731.000000	 93.472553 
730.000000	 93.576102 
729.000000	 93.651219 
728.000000	 93.694038 
727.000000	 93.725616 
726.000000	 93.771669 
725.000000	 93.842737 
724.000000	 93.937369 
723.000000	 94.047805 
722.000000	 94.157687 
721.000000	 94.252015 
720.000000	 94.336918 
719.000000	 94.432238 
718.000000	 94.539835 
717.000000	 94.640042 
716.000000	 94.720785 
715.000000	 94.788751 
714.000000	 94.849061 
713.000000	 94.895795 
712.000000	 94.930981 
711.000000	 94.970590 
710.000000	 95.020966 
709.000000	 95.068445 
708.000000	 95.102685 
707.000000	 95.129962 
706.000000	 95.149856 
705.000000	 95.142375 
704.000000	 95.092474 
703.000000	 95.004839 
702.000000	 94.881651 
701.000000	 94.704478 
700.000000	 94.453744 
699.000000	 94.134801 
698.000000	 93.773188 
697.000000	 93.405290 
696.000000	 93.085590 
695.000000	 92.876477 
694.000000	 92.811753 
693.000000	 92.876169 
692.000000	 93.027619 
691.000000	 93.228419 
690.000000	 93.446496 
689.000000	 93.649525 
688.000000	 93.817581 
687.000000	 93.951823 
686.000000	 94.062452 
685.000000	 94.157557 
684.000000	 94.247472 
683.000000	 94.343337 
682.000000	 94.442990 
681.000000	 94.535637 
680.000000	 94.622549 
679.000000	 94.717602 
678.000000	 94.818616 
677.000000	 94.906939 
676.000000	 94.987189 
675.000000	 95.082394 
674.000000	 95.191950 
673.000000	 95.288089 
672.000000	 95.357060 
671.000000	 95.423633 
670.000000	 95.529515 
669.000000	 95.683486 
668.000000	 95.798276 
667.000000	 95.831569 
666.000000	 95.862034 
665.000000	 95.899374 
664.000000	 95.925369 
663.000000	 95.959209 
662.000000	 96.028096 
661.000000	 96.114030 
660.000000	 96.189499 
659.000000	 96.254919 
658.000000	 96.315891 
657.000000	 96.353202 
656.000000	 96.356697 
655.000000	 96.340284 
654.000000	 96.311036 
653.000000	 96.258564 
652.000000	 96.193930 
651.000000	 96.160921 
650.000000	 96.178348 

