4000.000000	96.695489 
3999.000000	96.693444 
3998.000000	96.689278 
3997.000000	96.685068 
3996.000000	96.682456 
3995.000000	96.681593 
3994.000000	96.681851 
3993.000000	96.682352 
3992.000000	96.682264 
3991.000000	96.681299 
3990.000000	96.679925 
3989.000000	96.678909 
3988.000000	96.678588 
3987.000000	96.678799 
3986.000000	96.679365 
3985.000000	96.680163 
3984.000000	96.680651 
3983.000000	96.680097 
3982.000000	96.678614 
3981.000000	96.677421 
3980.000000	96.677464 
3979.000000	96.678139 
3978.000000	96.678097 
3977.000000	96.677074 
3976.000000	96.676002 
3975.000000	96.675392 
3974.000000	96.674478 
3973.000000	96.672320 
3972.000000	96.669066 
3971.000000	96.665794 
3970.000000	96.663628 
3969.000000	96.663069 
3968.000000	96.663711 
3967.000000	96.664374 
3966.000000	96.663815 
3965.000000	96.661591 
3964.000000	96.658248 
3963.000000	96.654877 
3962.000000	96.652483 
3961.000000	96.651597 
3960.000000	96.651988 
3959.000000	96.652701 
3958.000000	96.653008 
3957.000000	96.652856 
3956.000000	96.652130 
3955.000000	96.649880 
3954.000000	96.644959 
3953.000000	96.637407 
3952.000000	96.628869 
3951.000000	96.621803 
3950.000000	96.617921 
3949.000000	96.617030 
3948.000000	96.617129 
3947.000000	96.616225 
3946.000000	96.614058 
3945.000000	96.611837 
3944.000000	96.610895 
3943.000000	96.611765 
3942.000000	96.614309 
3941.000000	96.618281 
3940.000000	96.623055 
3939.000000	96.626677 
3938.000000	96.626951 
3937.000000	96.622939 
3936.000000	96.615248 
3935.000000	96.605600 
3934.000000	96.596871 
3933.000000	96.592855 
3932.000000	96.595241 
3931.000000	96.601084 
3930.000000	96.604949 
3929.000000	96.604099 
3928.000000	96.600722 
3927.000000	96.598143 
3926.000000	96.596542 
3925.000000	96.593958 
3924.000000	96.589972 
3923.000000	96.585634 
3922.000000	96.580415 
3921.000000	96.573349 
3920.000000	96.567098 
3919.000000	96.566529 
3918.000000	96.572993 
3917.000000	96.583129 
3916.000000	96.593537 
3915.000000	96.603272 
3914.000000	96.611092 
3913.000000	96.614393 
3912.000000	96.612650 
3911.000000	96.607010 
3910.000000	96.598259 
3909.000000	96.585835 
3908.000000	96.570059 
3907.000000	96.553410 
3906.000000	96.538574 
3905.000000	96.526418 
3904.000000	96.516699 
3903.000000	96.511293 
3902.000000	96.513743 
3901.000000	96.523927 
3900.000000	96.536616 
3899.000000	96.547021 
3898.000000	96.554136 
3897.000000	96.558204 
3896.000000	96.558775 
3895.000000	96.556671 
3894.000000	96.555838 
3893.000000	96.558491 
3892.000000	96.560589 
3891.000000	96.555999 
3890.000000	96.547213 
3889.000000	96.542127 
3888.000000	96.542044 
3887.000000	96.542471 
3886.000000	96.539984 
3885.000000	96.535057 
3884.000000	96.531832 
3883.000000	96.532277 
3882.000000	96.534223 
3881.000000	96.535942 
3880.000000	96.536912 
3879.000000	96.537174 
3878.000000	96.537677 
3877.000000	96.538019 
3876.000000	96.536570 
3875.000000	96.532455 
3874.000000	96.526750 
3873.000000	96.522503 
3872.000000	96.521376 
3871.000000	96.521507 
3870.000000	96.520128 
3869.000000	96.517619 
3868.000000	96.517084 
3867.000000	96.518587 
3866.000000	96.519089 
3865.000000	96.518257 
3864.000000	96.518472 
3863.000000	96.520389 
3862.000000	96.522354 
3861.000000	96.522796 
3860.000000	96.521829 
3859.000000	96.519819 
3858.000000	96.516606 
3857.000000	96.512327 
3856.000000	96.508499 
3855.000000	96.507335 
3854.000000	96.507380 
3853.000000	96.503258 
3852.000000	96.497883 
3851.000000	96.499300 
3850.000000	96.506644 
3849.000000	96.514516 
3848.000000	96.520663 
3847.000000	96.525030 
3846.000000	96.527463 
3845.000000	96.527783 
3844.000000	96.526387 
3843.000000	96.524283 
3842.000000	96.522939 
3841.000000	96.523203 
3840.000000	96.524833 
3839.000000	96.526784 
3838.000000	96.527871 
3837.000000	96.527916 
3836.000000	96.528175 
3835.000000	96.529838 
3834.000000	96.532707 
3833.000000	96.535697 
3832.000000	96.537987 
3831.000000	96.539644 
3830.000000	96.541321 
3829.000000	96.543439 
3828.000000	96.545686 
3827.000000	96.547337 
3826.000000	96.548202 
3825.000000	96.548842 
3824.000000	96.549741 
3823.000000	96.550746 
3822.000000	96.551468 
3821.000000	96.551680 
3820.000000	96.552045 
3819.000000	96.553425 
3818.000000	96.555459 
3817.000000	96.557306 
3816.000000	96.558711 
3815.000000	96.560024 
3814.000000	96.561685 
3813.000000	96.563589 
3812.000000	96.565348 
3811.000000	96.566907 
3810.000000	96.568439 
3809.000000	96.569952 
3808.000000	96.571147 
3807.000000	96.571729 
3806.000000	96.571798 
3805.000000	96.572036 
3804.000000	96.572842 
3803.000000	96.573832 
3802.000000	96.574250 
3801.000000	96.573527 
3800.000000	96.572588 
3799.000000	96.573226 
3798.000000	96.575521 
3797.000000	96.578141 
3796.000000	96.580374 
3795.000000	96.582421 
3794.000000	96.584437 
3793.000000	96.585946 
3792.000000	96.586687 
3791.000000	96.587221 
3790.000000	96.587831 
3789.000000	96.587978 
3788.000000	96.587329 
3787.000000	96.586510 
3786.000000	96.585888 
3785.000000	96.584429 
3784.000000	96.581628 
3783.000000	96.579056 
3782.000000	96.578354 
3781.000000	96.579007 
3780.000000	96.579401 
3779.000000	96.578532 
3778.000000	96.577564 
3777.000000	96.577888 
3776.000000	96.577690 
3775.000000	96.574335 
3774.000000	96.569292 
3773.000000	96.566344 
3772.000000	96.565864 
3771.000000	96.563878 
3770.000000	96.557386 
3769.000000	96.548799 
3768.000000	96.543442 
3767.000000	96.541891 
3766.000000	96.539691 
3765.000000	96.535137 
3764.000000	96.532217 
3763.000000	96.534315 
3762.000000	96.537840 
3761.000000	96.537341 
3760.000000	96.533523 
3759.000000	96.528871 
3758.000000	96.522361 
3757.000000	96.512517 
3756.000000	96.500888 
3755.000000	96.488727 
3754.000000	96.474612 
3753.000000	96.460053 
3752.000000	96.450760 
3751.000000	96.444765 
3750.000000	96.430332 
3749.000000	96.408104 
3748.000000	96.395184 
3747.000000	96.399010 
3746.000000	96.410853 
3745.000000	96.417873 
3744.000000	96.410595 
3743.000000	96.401591 
3742.000000	96.409681 
3741.000000	96.423224 
3740.000000	96.424603 
3739.000000	96.415377 
3738.000000	96.403972 
3737.000000	96.395288 
3736.000000	96.393957 
3735.000000	96.407276 
3734.000000	96.433123 
3733.000000	96.453685 
3732.000000	96.453963 
3731.000000	96.439059 
3730.000000	96.424916 
3729.000000	96.417221 
3728.000000	96.410506 
3727.000000	96.402770 
3726.000000	96.398697 
3725.000000	96.401840 
3724.000000	96.408442 
3723.000000	96.412611 
3722.000000	96.413232 
3721.000000	96.412041 
3720.000000	96.409192 
3719.000000	96.400294 
3718.000000	96.380857 
3717.000000	96.353818 
3716.000000	96.329967 
3715.000000	96.316757 
3714.000000	96.311929 
3713.000000	96.308617 
3712.000000	96.301517 
3711.000000	96.289627 
3710.000000	96.277662 
3709.000000	96.270852 
3708.000000	96.265574 
3707.000000	96.255350 
3706.000000	96.238080 
3705.000000	96.216994 
3704.000000	96.196295 
3703.000000	96.176886 
3702.000000	96.154240 
3701.000000	96.122657 
3700.000000	96.086010 
3699.000000	96.053508 
3698.000000	96.028051 
3697.000000	96.006503 
3696.000000	95.988198 
3695.000000	95.972621 
3694.000000	95.956321 
3693.000000	95.937020 
3692.000000	95.921701 
3691.000000	95.919940 
3690.000000	95.926847 
3689.000000	95.922406 
3688.000000	95.897493 
3687.000000	95.873247 
3686.000000	95.869306 
3685.000000	95.877185 
3684.000000	95.879636 
3683.000000	95.872520 
3682.000000	95.858314 
3681.000000	95.832774 
3680.000000	95.790074 
3679.000000	95.738787 
3678.000000	95.695752 
3677.000000	95.665173 
3676.000000	95.630260 
3675.000000	95.573098 
3674.000000	95.515186 
3673.000000	95.484024 
3672.000000	95.463322 
3671.000000	95.433912 
3670.000000	95.399121 
3669.000000	95.366567 
3668.000000	95.344404 
3667.000000	95.331752 
3666.000000	95.318461 
3665.000000	95.299253 
3664.000000	95.274906 
3663.000000	95.245129 
3662.000000	95.206594 
3661.000000	95.157746 
3660.000000	95.102511 
3659.000000	95.048897 
3658.000000	95.000586 
3657.000000	94.951698 
3656.000000	94.890876 
3655.000000	94.819836 
3654.000000	94.749975 
3653.000000	94.678766 
3652.000000	94.598701 
3651.000000	94.520210 
3650.000000	94.460649 
3649.000000	94.420525 
3648.000000	94.392235 
3647.000000	94.376210 
3646.000000	94.373780 
3645.000000	94.376678 
3644.000000	94.373859 
3643.000000	94.360999 
3642.000000	94.341373 
3641.000000	94.318365 
3640.000000	94.289786 
3639.000000	94.251190 
3638.000000	94.203217 
3637.000000	94.153443 
3636.000000	94.105322 
3635.000000	94.052020 
3634.000000	93.985627 
3633.000000	93.909358 
3632.000000	93.834909 
3631.000000	93.772992 
3630.000000	93.734295 
3629.000000	93.714637 
3628.000000	93.696529 
3627.000000	93.684633 
3626.000000	93.684216 
3625.000000	93.678371 
3624.000000	93.657552 
3623.000000	93.628714 
3622.000000	93.601785 
3621.000000	93.583187 
3620.000000	93.576467 
3619.000000	93.579384 
3618.000000	93.586129 
3617.000000	93.596582 
3616.000000	93.612908 
3615.000000	93.634941 
3614.000000	93.663164 
3613.000000	93.697039 
3612.000000	93.734207 
3611.000000	93.771739 
3610.000000	93.807832 
3609.000000	93.844655 
3608.000000	93.883742 
3607.000000	93.921610 
3606.000000	93.952663 
3605.000000	93.975320 
3604.000000	93.993897 
3603.000000	94.015067 
3602.000000	94.040372 
3601.000000	94.062621 
3600.000000	94.074197 
3599.000000	94.073860 
3598.000000	94.066876 
3597.000000	94.063545 
3596.000000	94.073717 
3595.000000	94.097716 
3594.000000	94.124230 
3593.000000	94.138888 
3592.000000	94.134225 
3591.000000	94.112602 
3590.000000	94.085219 
3589.000000	94.070149 
3588.000000	94.080381 
3587.000000	94.112223 
3586.000000	94.150547 
3585.000000	94.183595 
3584.000000	94.207280 
3583.000000	94.223604 
3582.000000	94.237040 
3581.000000	94.249628 
3580.000000	94.260765 
3579.000000	94.269387 
3578.000000	94.275803 
3577.000000	94.280819 
3576.000000	94.284635 
3575.000000	94.285918 
3574.000000	94.282573 
3573.000000	94.272765 
3572.000000	94.255551 
3571.000000	94.232076 
3570.000000	94.206670 
3569.000000	94.187579 
3568.000000	94.183701 
3567.000000	94.197304 
3566.000000	94.221064 
3565.000000	94.245050 
3564.000000	94.263074 
3563.000000	94.274022 
3562.000000	94.280403 
3561.000000	94.285230 
3560.000000	94.289418 
3559.000000	94.291981 
3558.000000	94.292051 
3557.000000	94.290371 
3556.000000	94.289293 
3555.000000	94.291088 
3554.000000	94.295849 
3553.000000	94.300881 
3552.000000	94.302280 
3551.000000	94.297904 
3550.000000	94.288887 
3549.000000	94.279101 
3548.000000	94.273460 
3547.000000	94.274885 
3546.000000	94.281637 
3545.000000	94.288814 
3544.000000	94.293123 
3543.000000	94.294767 
3542.000000	94.295217 
3541.000000	94.295252 
3540.000000	94.295334 
3539.000000	94.296121 
3538.000000	94.297943 
3537.000000	94.300214 
3536.000000	94.301600 
3535.000000	94.300996 
3534.000000	94.298227 
3533.000000	94.294264 
3532.000000	94.290753 
3531.000000	94.288925 
3530.000000	94.288426 
3529.000000	94.287371 
3528.000000	94.284113 
3527.000000	94.279136 
3526.000000	94.274957 
3525.000000	94.274015 
3524.000000	94.276800 
3523.000000	94.281603 
3522.000000	94.285624 
3521.000000	94.286859 
3520.000000	94.285323 
3519.000000	94.282617 
3518.000000	94.280450 
3517.000000	94.279395 
3516.000000	94.278804 
3515.000000	94.277657 
3514.000000	94.275395 
3513.000000	94.272130 
3512.000000	94.268395 
3511.000000	94.264965 
3510.000000	94.262562 
3509.000000	94.261283 
3508.000000	94.260262 
3507.000000	94.258095 
3506.000000	94.253791 
3505.000000	94.247629 
3504.000000	94.241303 
3503.000000	94.236778 
3502.000000	94.234925 
3501.000000	94.235258 
3500.000000	94.236560 
3499.000000	94.237696 
3498.000000	94.237938 
3497.000000	94.236844 
3496.000000	94.234174 
3495.000000	94.230027 
3494.000000	94.224975 
3493.000000	94.219793 
3492.000000	94.214818 
3491.000000	94.209793 
3490.000000	94.204471 
3489.000000	94.199100 
3488.000000	94.194067 
3487.000000	94.189231 
3486.000000	94.184180 
3485.000000	94.179224 
3484.000000	94.175499 
3483.000000	94.173695 
3482.000000	94.172814 
3481.000000	94.170845 
3480.000000	94.166795 
3479.000000	94.161332 
3478.000000	94.155771 
3477.000000	94.150849 
3476.000000	94.146339 
3475.000000	94.141429 
3474.000000	94.135421 
3473.000000	94.128397 
3472.000000	94.121337 
3471.000000	94.115565 
3470.000000	94.111950 
3469.000000	94.110312 
3468.000000	94.109307 
3467.000000	94.107061 
3466.000000	94.102353 
3465.000000	94.095244 
3464.000000	94.086683 
3463.000000	94.077844 
3462.000000	94.069773 
3461.000000	94.063238 
3460.000000	94.058367 
3459.000000	94.054249 
3458.000000	94.049443 
3457.000000	94.043202 
3456.000000	94.036002 
3455.000000	94.028980 
3454.000000	94.022746 
3453.000000	94.016847 
3452.000000	94.010361 
3451.000000	94.002855 
3450.000000	93.994725 
3449.000000	93.986750 
3448.000000	93.979414 
3447.000000	93.972487 
3446.000000	93.965452 
3445.000000	93.958516 
3444.000000	93.952863 
3443.000000	93.949477 
3442.000000	93.947591 
3441.000000	93.944757 
3440.000000	93.939223 
3439.000000	93.931838 
3438.000000	93.925112 
3437.000000	93.920513 
3436.000000	93.917320 
3435.000000	93.914130 
3434.000000	93.910358 
3433.000000	93.905968 
3432.000000	93.900744 
3431.000000	93.894738 
3430.000000	93.888870 
3429.000000	93.884037 
3428.000000	93.879686 
3427.000000	93.874097 
3426.000000	93.866589 
3425.000000	93.858794 
3424.000000	93.853111 
3423.000000	93.850160 
3422.000000	93.848310 
3421.000000	93.845632 
3420.000000	93.841668 
3419.000000	93.837057 
3418.000000	93.832335 
3417.000000	93.827844 
3416.000000	93.824278 
3415.000000	93.822205 
3414.000000	93.820976 
3413.000000	93.818947 
3412.000000	93.815262 
3411.000000	93.811018 
3410.000000	93.808245 
3409.000000	93.807874 
3408.000000	93.808810 
3407.000000	93.808793 
3406.000000	93.806261 
3405.000000	93.801539 
3404.000000	93.796400 
3403.000000	93.792374 
3402.000000	93.789475 
3401.000000	93.786773 
3400.000000	93.783824 
3399.000000	93.781090 
3398.000000	93.779109 
3397.000000	93.777804 
3396.000000	93.776721 
3395.000000	93.775512 
3394.000000	93.773885 
3393.000000	93.771432 
3392.000000	93.767972 
3391.000000	93.764095 
3390.000000	93.761103 
3389.000000	93.760204 
3388.000000	93.761775 
3387.000000	93.765162 
3386.000000	93.768903 
3385.000000	93.771300 
3384.000000	93.771231 
3383.000000	93.768881 
3382.000000	93.765877 
3381.000000	93.764236 
3380.000000	93.764671 
3379.000000	93.766049 
3378.000000	93.766794 
3377.000000	93.766743 
3376.000000	93.767061 
3375.000000	93.768346 
3374.000000	93.769564 
3373.000000	93.769245 
3372.000000	93.767390 
3371.000000	93.765723 
3370.000000	93.766050 
3369.000000	93.768642 
3368.000000	93.772127 
3367.000000	93.774686 
3366.000000	93.775412 
3365.000000	93.774733 
3364.000000	93.773852 
3363.000000	93.773795 
3362.000000	93.774748 
3361.000000	93.776102 
3360.000000	93.777053 
3359.000000	93.777287 
3358.000000	93.777281 
3357.000000	93.777897 
3356.000000	93.779620 
3355.000000	93.782237 
3354.000000	93.785312 
3353.000000	93.788785 
3352.000000	93.792814 
3351.000000	93.797093 
3350.000000	93.800759 
3349.000000	93.803134 
3348.000000	93.804381 
3347.000000	93.805352 
3346.000000	93.806906 
3345.000000	93.809375 
3344.000000	93.812413 
3343.000000	93.815163 
3342.000000	93.816800 
3341.000000	93.817161 
3340.000000	93.816788 
3339.000000	93.816403 
3338.000000	93.816561 
3337.000000	93.817679 
3336.000000	93.819856 
3335.000000	93.822433 
3334.000000	93.824150 
3333.000000	93.824233 
3332.000000	93.823326 
3331.000000	93.823049 
3330.000000	93.824595 
3329.000000	93.827859 
3328.000000	93.831847 
3327.000000	93.835664 
3326.000000	93.838976 
3325.000000	93.841912 
3324.000000	93.844735 
3323.000000	93.847525 
3322.000000	93.850083 
3321.000000	93.852117 
3320.000000	93.853459 
3319.000000	93.854163 
3318.000000	93.854546 
3317.000000	93.855128 
3316.000000	93.856410 
3315.000000	93.858566 
3314.000000	93.861347 
3313.000000	93.864293 
3312.000000	93.867079 
3311.000000	93.869662 
3310.000000	93.872143 
3309.000000	93.874559 
3308.000000	93.876830 
3307.000000	93.878850 
3306.000000	93.880644 
3305.000000	93.882390 
3304.000000	93.884279 
3303.000000	93.886369 
3302.000000	93.888556 
3301.000000	93.890680 
3300.000000	93.892652 
3299.000000	93.894511 
3298.000000	93.896386 
3297.000000	93.898406 
3296.000000	93.900606 
3295.000000	93.902905 
3294.000000	93.905200 
3293.000000	93.907462 
3292.000000	93.909744 
3291.000000	93.912092 
3290.000000	93.914479 
3289.000000	93.916844 
3288.000000	93.919150 
3287.000000	93.921402 
3286.000000	93.923613 
3285.000000	93.925797 
3284.000000	93.927975 
3283.000000	93.930165 
3282.000000	93.932377 
3281.000000	93.934611 
3280.000000	93.936860 
3279.000000	93.939123 
3278.000000	93.941408 
3277.000000	93.943729 
3276.000000	93.946094 
3275.000000	93.948501 
3274.000000	93.950937 
3273.000000	93.953390 
3272.000000	93.955856 
3271.000000	93.958340 
3270.000000	93.960844 
3269.000000	93.963361 
3268.000000	93.965882 
3267.000000	93.968405 
3266.000000	93.970943 
3265.000000	93.973533 
3264.000000	93.976202 
3263.000000	93.978946 
3262.000000	93.981725 
3261.000000	93.984489 
3260.000000	93.987217 
3259.000000	93.989942 
3258.000000	93.992726 
3257.000000	93.995634 
3256.000000	93.998680 
3255.000000	94.001792 
3254.000000	94.004843 
3253.000000	94.007772 
3252.000000	94.010694 
3251.000000	94.013828 
3250.000000	94.017245 
3249.000000	94.020711 
3248.000000	94.023849 
3247.000000	94.026461 
3246.000000	94.028747 
3245.000000	94.031239 
3244.000000	94.034394 
3243.000000	94.038281 
3242.000000	94.042634 
3241.000000	94.047126 
3240.000000	94.051534 
3239.000000	94.055726 
3238.000000	94.059665 
3237.000000	94.063444 
3236.000000	94.067212 
3235.000000	94.070987 
3234.000000	94.074613 
3233.000000	94.078014 
3232.000000	94.081453 
3231.000000	94.085402 
3230.000000	94.090105 
3229.000000	94.095329 
3228.000000	94.100589 
3227.000000	94.105667 
3226.000000	94.110797 
3225.000000	94.116263 
3224.000000	94.121843 
3223.000000	94.126818 
3222.000000	94.130605 
3221.000000	94.133373 
3220.000000	94.136112 
3219.000000	94.139956 
3218.000000	94.145424 
3217.000000	94.152221 
3216.000000	94.159466 
3215.000000	94.166251 
3214.000000	94.172158 
3213.000000	94.177340 
3212.000000	94.182227 
3211.000000	94.187140 
3210.000000	94.192116 
3209.000000	94.197051 
3208.000000	94.201869 
3207.000000	94.206560 
3206.000000	94.211199 
3205.000000	94.216061 
3204.000000	94.221626 
3203.000000	94.228313 
3202.000000	94.236117 
3201.000000	94.244450 
3200.000000	94.252382 
3199.000000	94.259244 
3198.000000	94.264998 
3197.000000	94.270125 
3196.000000	94.275196 
3195.000000	94.280529 
3194.000000	94.286245 
3193.000000	94.292448 
3192.000000	94.299155 
3191.000000	94.306149 
3190.000000	94.313059 
3189.000000	94.319628 
3188.000000	94.325917 
3187.000000	94.332299 
3186.000000	94.339234 
3185.000000	94.346857 
3184.000000	94.354698 
3183.000000	94.361946 
3182.000000	94.368158 
3181.000000	94.373600 
3180.000000	94.379014 
3179.000000	94.385089 
3178.000000	94.392146 
3177.000000	94.400165 
3176.000000	94.408808 
3175.000000	94.417465 
3174.000000	94.425646 
3173.000000	94.433271 
3172.000000	94.440449 
3171.000000	94.447211 
3170.000000	94.453634 
3169.000000	94.460060 
3168.000000	94.466875 
3167.000000	94.474078 
3166.000000	94.481338 
3165.000000	94.488483 
3164.000000	94.495699 
3163.000000	94.503186 
3162.000000	94.510869 
3161.000000	94.518511 
3160.000000	94.525953 
3159.000000	94.533207 
3158.000000	94.540384 
3157.000000	94.547590 
3156.000000	94.554824 
3155.000000	94.561986 
3154.000000	94.569015 
3153.000000	94.576024 
3152.000000	94.583205 
3151.000000	94.590588 
3150.000000	94.598019 
3149.000000	94.605349 
3148.000000	94.612568 
3147.000000	94.619763 
3146.000000	94.627040 
3145.000000	94.634471 
3144.000000	94.642049 
3143.000000	94.649671 
3142.000000	94.657196 
3141.000000	94.664574 
3140.000000	94.671871 
3139.000000	94.679193 
3138.000000	94.686582 
3137.000000	94.694005 
3136.000000	94.701417 
3135.000000	94.708790 
3134.000000	94.716126 
3133.000000	94.723438 
3132.000000	94.730747 
3131.000000	94.738067 
3130.000000	94.745405 
3129.000000	94.752761 
3128.000000	94.760132 
3127.000000	94.767512 
3126.000000	94.774895 
3125.000000	94.782292 
3124.000000	94.789722 
3123.000000	94.797181 
3122.000000	94.804639 
3121.000000	94.812071 
3120.000000	94.819471 
3119.000000	94.826845 
3118.000000	94.834203 
3117.000000	94.841562 
3116.000000	94.848951 
3115.000000	94.856378 
3114.000000	94.863787 
3113.000000	94.871093 
3112.000000	94.878306 
3111.000000	94.885577 
3110.000000	94.893052 
3109.000000	94.900704 
3108.000000	94.908301 
3107.000000	94.915640 
3106.000000	94.922689 
3105.000000	94.929537 
3104.000000	94.936292 
3103.000000	94.943082 
3102.000000	94.950058 
3101.000000	94.957263 
3100.000000	94.964494 
3099.000000	94.971456 
3098.000000	94.978114 
3097.000000	94.984759 
3096.000000	94.991649 
3095.000000	94.998680 
3094.000000	95.005583 
3093.000000	95.012326 
3092.000000	95.019144 
3091.000000	95.026210 
3090.000000	95.033452 
3089.000000	95.040671 
3088.000000	95.047704 
3087.000000	95.054429 
3086.000000	95.060753 
3085.000000	95.066692 
3084.000000	95.072421 
3083.000000	95.078180 
3082.000000	95.084193 
3081.000000	95.090618 
3080.000000	95.097400 
3079.000000	95.104202 
3078.000000	95.110599 
3077.000000	95.116512 
3076.000000	95.122230 
3075.000000	95.128038 
3074.000000	95.133943 
3073.000000	95.139803 
3072.000000	95.145567 
3071.000000	95.151289 
3070.000000	95.157011 
3069.000000	95.162740 
3068.000000	95.168495 
3067.000000	95.174294 
3066.000000	95.180078 
3065.000000	95.185743 
3064.000000	95.191238 
3063.000000	95.196588 
3062.000000	95.201844 
3061.000000	95.207052 
3060.000000	95.212279 
3059.000000	95.217610 
3058.000000	95.223076 
3057.000000	95.228627 
3056.000000	95.234162 
3055.000000	95.239570 
3054.000000	95.244786 
3053.000000	95.249821 
3052.000000	95.254748 
3051.000000	95.259670 
3050.000000	95.264636 
3049.000000	95.269630 
3048.000000	95.274600 
3047.000000	95.279494 
3046.000000	95.284298 
3045.000000	95.289029 
3044.000000	95.293728 
3043.000000	95.298440 
3042.000000	95.303199 
3041.000000	95.308008 
3040.000000	95.312788 
3039.000000	95.317415 
3038.000000	95.321821 
3037.000000	95.326072 
3036.000000	95.330325 
3035.000000	95.334651 
3034.000000	95.339008 
3033.000000	95.343295 
3032.000000	95.347440 
3031.000000	95.351442 
3030.000000	95.355347 
3029.000000	95.359207 
3028.000000	95.363056 
3027.000000	95.366885 
3026.000000	95.370650 
3025.000000	95.374331 
3024.000000	95.377965 
3023.000000	95.381591 
3022.000000	95.385194 
3021.000000	95.388727 
3020.000000	95.392196 
3019.000000	95.395660 
3018.000000	95.399133 
3017.000000	95.402554 
3016.000000	95.405841 
3015.000000	95.408970 
3014.000000	95.412000 
3013.000000	95.415052 
3012.000000	95.418259 
3011.000000	95.421669 
3010.000000	95.425146 
3009.000000	95.428442 
3008.000000	95.431401 
3007.000000	95.434073 
3006.000000	95.436667 
3005.000000	95.439339 
3004.000000	95.442129 
3003.000000	95.445018 
3002.000000	95.447999 
3001.000000	95.451119 
3000.000000	95.454404 
2999.000000	95.457696 
2998.000000	95.460686 
2997.000000	95.463198 
2996.000000	95.465382 
2995.000000	95.467656 
2994.000000	95.470331 
2993.000000	95.473409 
2992.000000	95.476609 
2991.000000	95.479561 
2990.000000	95.482012 
2989.000000	95.483985 
2988.000000	95.485901 
2987.000000	95.488279 
2986.000000	95.491219 
2985.000000	95.494385 
2984.000000	95.497661 
2983.000000	95.501472 
2982.000000	95.506119 
2981.000000	95.511049 
2980.000000	95.515209 
2979.000000	95.518014 
2978.000000	95.519644 
2977.000000	95.520666 
2976.000000	95.521704 
2975.000000	95.523376 
2974.000000	95.526136 
2973.000000	95.530128 
2972.000000	95.535188 
2971.000000	95.540798 
2970.000000	95.546007 
2969.000000	95.550037 
2968.000000	95.553162 
2967.000000	95.556361 
2966.000000	95.559653 
2965.000000	95.561608 
2964.000000	95.561226 
2963.000000	95.559733 
2962.000000	95.559659 
2961.000000	95.562482 
2960.000000	95.567969 
2959.000000	95.575063 
2958.000000	95.582637 
2957.000000	95.589794 
2956.000000	95.596325 
2955.000000	95.602650 
2954.000000	95.608654 
2953.000000	95.613185 
2952.000000	95.615536 
2951.000000	95.616881 
2950.000000	95.619133 
2949.000000	95.622681 
2948.000000	95.626454 
2947.000000	95.629894 
2946.000000	95.633500 
2945.000000	95.637481 
2944.000000	95.641238 
2943.000000	95.644389 
2942.000000	95.647038 
2941.000000	95.648774 
2940.000000	95.648642 
2939.000000	95.646739 
2938.000000	95.644881 
2937.000000	95.644787 
2936.000000	95.646018 
2935.000000	95.646442 
2934.000000	95.644638 
2933.000000	95.641427 
2932.000000	95.639190 
2931.000000	95.639796 
2930.000000	95.643052 
2929.000000	95.646907 
2928.000000	95.649316 
2927.000000	95.650145 
2926.000000	95.651240 
2925.000000	95.654764 
2924.000000	95.661508 
2923.000000	95.670349 
2922.000000	95.678732 
2921.000000	95.684134 
2920.000000	95.685991 
2919.000000	95.686363 
2918.000000	95.688270 
2917.000000	95.693010 
2916.000000	95.699369 
2915.000000	95.705281 
2914.000000	95.709806 
2913.000000	95.713254 
2912.000000	95.716020 
2911.000000	95.718002 
2910.000000	95.719196 
2909.000000	95.720403 
2908.000000	95.722869 
2907.000000	95.727097 
2906.000000	95.732204 
2905.000000	95.736643 
2904.000000	95.739713 
2903.000000	95.742193 
2902.000000	95.745399 
2901.000000	95.749757 
2900.000000	95.754544 
2899.000000	95.758870 
2898.000000	95.762635 
2897.000000	95.766373 
2896.000000	95.770382 
2895.000000	95.774339 
2894.000000	95.777840 
2893.000000	95.781090 
2892.000000	95.784785 
2891.000000	95.789293 
2890.000000	95.794227 
2889.000000	95.798931 
2888.000000	95.803119 
2887.000000	95.806778 
2886.000000	95.809654 
2885.000000	95.811440 
2884.000000	95.812588 
2883.000000	95.814424 
2882.000000	95.817948 
2881.000000	95.822752 
2880.000000	95.827412 
2879.000000	95.831114 
2878.000000	95.834369 
2877.000000	95.837970 
2876.000000	95.841944 
2875.000000	95.845983 
2874.000000	95.850158 
2873.000000	95.854532 
2872.000000	95.858496 
2871.000000	95.861273 
2870.000000	95.862893 
2869.000000	95.864183 
2868.000000	95.865887 
2867.000000	95.868197 
2866.000000	95.870975 
2865.000000	95.873887 
2864.000000	95.876403 
2863.000000	95.878252 
2862.000000	95.879986 
2861.000000	95.882585 
2860.000000	95.886319 
2859.000000	95.890449 
2858.000000	95.894163 
2857.000000	95.897446 
2856.000000	95.900773 
2855.000000	95.904313 
2854.000000	95.907772 
2853.000000	95.910789 
2852.000000	95.913224 
2851.000000	95.915207 
2850.000000	95.917160 
2849.000000	95.919666 
2848.000000	95.923019 
2847.000000	95.926938 
2846.000000	95.930917 
2845.000000	95.934853 
2844.000000	95.939159 
2843.000000	95.944170 
2842.000000	95.949550 
2841.000000	95.954354 
2840.000000	95.957724 
2839.000000	95.959635 
2838.000000	95.961068 
2837.000000	95.963383 
2836.000000	95.967315 
2835.000000	95.972514 
2834.000000	95.977858 
2833.000000	95.982327 
2832.000000	95.985688 
2831.000000	95.988367 
2830.000000	95.990891 
2829.000000	95.993456 
2828.000000	95.995984 
2827.000000	95.998467 
2826.000000	96.001139 
2825.000000	96.004296 
2824.000000	96.007993 
2823.000000	96.011889 
2822.000000	96.015424 
2821.000000	96.018198 
2820.000000	96.020203 
2819.000000	96.021773 
2818.000000	96.023371 
2817.000000	96.025405 
2816.000000	96.028109 
2815.000000	96.031434 
2814.000000	96.034981 
2813.000000	96.038166 
2812.000000	96.040639 
2811.000000	96.042502 
2810.000000	96.044180 
2809.000000	96.046069 
2808.000000	96.048308 
2807.000000	96.050843 
2806.000000	96.053583 
2805.000000	96.056456 
2804.000000	96.059371 
2803.000000	96.062187 
2802.000000	96.064768 
2801.000000	96.067069 
2800.000000	96.069177 
2799.000000	96.071273 
2798.000000	96.073488 
2797.000000	96.075817 
2796.000000	96.078170 
2795.000000	96.080482 
2794.000000	96.082760 
2793.000000	96.085023 
2792.000000	96.087272 
2791.000000	96.089507 
2790.000000	96.091731 
2789.000000	96.093944 
2788.000000	96.096142 
2787.000000	96.098330 
2786.000000	96.100516 
2785.000000	96.102709 
2784.000000	96.104907 
2783.000000	96.107105 
2782.000000	96.109299 
2781.000000	96.111490 
2780.000000	96.113678 
2779.000000	96.115868 
2778.000000	96.118064 
2777.000000	96.120263 
2776.000000	96.122459 
2775.000000	96.124639 
2774.000000	96.126789 
2773.000000	96.128900 
2772.000000	96.130970 
2771.000000	96.133006 
2770.000000	96.135027 
2769.000000	96.137047 
2768.000000	96.139070 
2767.000000	96.141079 
2766.000000	96.143053 
2765.000000	96.144979 
2764.000000	96.146860 
2763.000000	96.148710 
2762.000000	96.150541 
2761.000000	96.152363 
2760.000000	96.154166 
2759.000000	96.155932 
2758.000000	96.157657 
2757.000000	96.159349 
2756.000000	96.161009 
2755.000000	96.162629 
2754.000000	96.164221 
2753.000000	96.165811 
2752.000000	96.167418 
2751.000000	96.169028 
2750.000000	96.170613 
2749.000000	96.172160 
2748.000000	96.173674 
2747.000000	96.175152 
2746.000000	96.176584 
2745.000000	96.177983 
2744.000000	96.179386 
2743.000000	96.180817 
2742.000000	96.182270 
2741.000000	96.183719 
2740.000000	96.185135 
2739.000000	96.186512 
2738.000000	96.187848 
2737.000000	96.189153 
2736.000000	96.190441 
2735.000000	96.191721 
2734.000000	96.193001 
2733.000000	96.194283 
2732.000000	96.195573 
2731.000000	96.196880 
2730.000000	96.198207 
2729.000000	96.199547 
2728.000000	96.200890 
2727.000000	96.202225 
2726.000000	96.203542 
2725.000000	96.204842 
2724.000000	96.206136 
2723.000000	96.207438 
2722.000000	96.208750 
2721.000000	96.210071 
2720.000000	96.211399 
2719.000000	96.212734 
2718.000000	96.214083 
2717.000000	96.215447 
2716.000000	96.216824 
2715.000000	96.218211 
2714.000000	96.219603 
2713.000000	96.220998 
2712.000000	96.222394 
2711.000000	96.223786 
2710.000000	96.225168 
2709.000000	96.226538 
2708.000000	96.227898 
2707.000000	96.229251 
2706.000000	96.230603 
2705.000000	96.231955 
2704.000000	96.233305 
2703.000000	96.234651 
2702.000000	96.235986 
2701.000000	96.237306 
2700.000000	96.238622 
2699.000000	96.239947 
2698.000000	96.241292 
2697.000000	96.242635 
2696.000000	96.243923 
2695.000000	96.245110 
2694.000000	96.246191 
2693.000000	96.247229 
2692.000000	96.248302 
2691.000000	96.249440 
2690.000000	96.250617 
2689.000000	96.251784 
2688.000000	96.252928 
2687.000000	96.254046 
2686.000000	96.255110 
2685.000000	96.256085 
2684.000000	96.256956 
2683.000000	96.257713 
2682.000000	96.258352 
2681.000000	96.258946 
2680.000000	96.259662 
2679.000000	96.260657 
2678.000000	96.261970 
2677.000000	96.263528 
2676.000000	96.265128 
2675.000000	96.266376 
2674.000000	96.266853 
2673.000000	96.266515 
2672.000000	96.265880 
2671.000000	96.265600 
2670.000000	96.265834 
2669.000000	96.266287 
2668.000000	96.266750 
2667.000000	96.267380 
2666.000000	96.268370 
2665.000000	96.269529 
2664.000000	96.270373 
2663.000000	96.270580 
2662.000000	96.270265 
2661.000000	96.269869 
2660.000000	96.269721 
2659.000000	96.269737 
2658.000000	96.269604 
2657.000000	96.269281 
2656.000000	96.269141 
2655.000000	96.269424 
2654.000000	96.269699 
2653.000000	96.269276 
2652.000000	96.268160 
2651.000000	96.267183 
2650.000000	96.267059 
2649.000000	96.267657 
2648.000000	96.268325 
2647.000000	96.268692 
2646.000000	96.268841 
2645.000000	96.268855 
2644.000000	96.268611 
2643.000000	96.268072 
2642.000000	96.267516 
2641.000000	96.267314 
2640.000000	96.267585 
2639.000000	96.268164 
2638.000000	96.268837 
2637.000000	96.269519 
2636.000000	96.270218 
2635.000000	96.270905 
2634.000000	96.271438 
2633.000000	96.271626 
2632.000000	96.271348 
2631.000000	96.270685 
2630.000000	96.269933 
2629.000000	96.269433 
2628.000000	96.269335 
2627.000000	96.269519 
2626.000000	96.269739 
2625.000000	96.269859 
2624.000000	96.269943 
2623.000000	96.270121 
2622.000000	96.270397 
2621.000000	96.270612 
2620.000000	96.270578 
2619.000000	96.270228 
2618.000000	96.269675 
2617.000000	96.269248 
2616.000000	96.269300 
2615.000000	96.269924 
2614.000000	96.270894 
2613.000000	96.271807 
2612.000000	96.272428 
2611.000000	96.272775 
2610.000000	96.272982 
2609.000000	96.273167 
2608.000000	96.273382 
2607.000000	96.273657 
2606.000000	96.274037 
2605.000000	96.274533 
2604.000000	96.275081 
2603.000000	96.275569 
2602.000000	96.275937 
2601.000000	96.276242 
2600.000000	96.276593 
2599.000000	96.277027 
2598.000000	96.277472 
2597.000000	96.277835 
2596.000000	96.278087 
2595.000000	96.278262 
2594.000000	96.278430 
2593.000000	96.278671 
2592.000000	96.279038 
2591.000000	96.279530 
2590.000000	96.280074 
2589.000000	96.280563 
2588.000000	96.280941 
2587.000000	96.281232 
2586.000000	96.281493 
2585.000000	96.281752 
2584.000000	96.282009 
2583.000000	96.282277 
2582.000000	96.282593 
2581.000000	96.282974 
2580.000000	96.283402 
2579.000000	96.283821 
2578.000000	96.284159 
2577.000000	96.284352 
2576.000000	96.284395 
2575.000000	96.284354 
2574.000000	96.284300 
2573.000000	96.284255 
2572.000000	96.284217 
2571.000000	96.284183 
2570.000000	96.284148 
2569.000000	96.284107 
2568.000000	96.284070 
2567.000000	96.284057 
2566.000000	96.284052 
2565.000000	96.283993 
2564.000000	96.283826 
2563.000000	96.283564 
2562.000000	96.283294 
2561.000000	96.283132 
2560.000000	96.283176 
2559.000000	96.283458 
2558.000000	96.283888 
2557.000000	96.284237 
2556.000000	96.284325 
2555.000000	96.284146 
2554.000000	96.283823 
2553.000000	96.283502 
2552.000000	96.283240 
2551.000000	96.283068 
2550.000000	96.283021 
2549.000000	96.283079 
2548.000000	96.283112 
2547.000000	96.282989 
2546.000000	96.282701 
2545.000000	96.282360 
2544.000000	96.282090 
2543.000000	96.281928 
2542.000000	96.281862 
2541.000000	96.281897 
2540.000000	96.282037 
2539.000000	96.282231 
2538.000000	96.282402 
2537.000000	96.282528 
2536.000000	96.282656 
2535.000000	96.282832 
2534.000000	96.283044 
2533.000000	96.283247 
2532.000000	96.283428 
2531.000000	96.283630 
2530.000000	96.283903 
2529.000000	96.284248 
2528.000000	96.284629 
2527.000000	96.285017 
2526.000000	96.285409 
2525.000000	96.285798 
2524.000000	96.286163 
2523.000000	96.286494 
2522.000000	96.286805 
2521.000000	96.287120 
2520.000000	96.287453 
2519.000000	96.287802 
2518.000000	96.288158 
2517.000000	96.288507 
2516.000000	96.288838 
2515.000000	96.289151 
2514.000000	96.289466 
2513.000000	96.289819 
2512.000000	96.290244 
2511.000000	96.290743 
2510.000000	96.291296 
2509.000000	96.291866 
2508.000000	96.292422 
2507.000000	96.292950 
2506.000000	96.293456 
2505.000000	96.293958 
2504.000000	96.294477 
2503.000000	96.295016 
2502.000000	96.295564 
2501.000000	96.296105 
2500.000000	96.296629 
2499.000000	96.297133 
2498.000000	96.297619 
2497.000000	96.298089 
2496.000000	96.298541 
2495.000000	96.298975 
2494.000000	96.299388 
2493.000000	96.299776 
2492.000000	96.300126 
2491.000000	96.300442 
2490.000000	96.300763 
2489.000000	96.301146 
2488.000000	96.301570 
2487.000000	96.301943 
2486.000000	96.302233 
2485.000000	96.302518 
2484.000000	96.302825 
2483.000000	96.303041 
2482.000000	96.303076 
2481.000000	96.303040 
2480.000000	96.303113 
2479.000000	96.303381 
2478.000000	96.303928 
2477.000000	96.304855 
2476.000000	96.305952 
2475.000000	96.306608 
2474.000000	96.306450 
2473.000000	96.305917 
2472.000000	96.305868 
2471.000000	96.306585 
2470.000000	96.307583 
2469.000000	96.308197 
2468.000000	96.308047 
2467.000000	96.307171 
2466.000000	96.306127 
2465.000000	96.305880 
2464.000000	96.307104 
2463.000000	96.309644 
2462.000000	96.312773 
2461.000000	96.315686 
2460.000000	96.317681 
2459.000000	96.318401 
2458.000000	96.318115 
2457.000000	96.317352 
2456.000000	96.315909 
2455.000000	96.313050 
2454.000000	96.309080 
2453.000000	96.305814 
2452.000000	96.304651 
2451.000000	96.305042 
2450.000000	96.305700 
2449.000000	96.306643 
2448.000000	96.308780 
2447.000000	96.311964 
2446.000000	96.314838 
2445.000000	96.316467 
2444.000000	96.316965 
2443.000000	96.316672 
2442.000000	96.315840 
2441.000000	96.315135 
2440.000000	96.315442 
2439.000000	96.316989 
2438.000000	96.319316 
2437.000000	96.322026 
2436.000000	96.324821 
2435.000000	96.326995 
2434.000000	96.327853 
2433.000000	96.327745 
2432.000000	96.327877 
2431.000000	96.328927 
2430.000000	96.330655 
2429.000000	96.332810 
2428.000000	96.335281 
2427.000000	96.337184 
2426.000000	96.337045 
2425.000000	96.334404 
2424.000000	96.330657 
2423.000000	96.327843 
2422.000000	96.326997 
2421.000000	96.327977 
2420.000000	96.330114 
2419.000000	96.332331 
2418.000000	96.333375 
2417.000000	96.333486 
2416.000000	96.334725 
2415.000000	96.338250 
2414.000000	96.342376 
2413.000000	96.344805 
2412.000000	96.345383 
2411.000000	96.345298 
2410.000000	96.345131 
2409.000000	96.345180 
2408.000000	96.346227 
2407.000000	96.348346 
2406.000000	96.350040 
2405.000000	96.350061 
2404.000000	96.349139 
2403.000000	96.348573 
2402.000000	96.348198 
2401.000000	96.347199 
2400.000000	96.345983 
2399.000000	96.345706 
2398.000000	96.346701 
2397.000000	96.348602 
2396.000000	96.350623 
2395.000000	96.350200 
2394.000000	96.346314 
2393.000000	96.340685 
2392.000000	96.334783 
2391.000000	96.330130 
2390.000000	96.326275 
2389.000000	96.322283 
2388.000000	96.318179 
2387.000000	96.314439 
2386.000000	96.311028 
2385.000000	96.307753 
2384.000000	96.304500 
2383.000000	96.301214 
2382.000000	96.297884 
2381.000000	96.294527 
2380.000000	96.291123 
2379.000000	96.287610 
2378.000000	96.283904 
2377.000000	96.279923 
2376.000000	96.275624 
2375.000000	96.271030 
2374.000000	96.266207 
2373.000000	96.261228 
2372.000000	96.256143 
2371.000000	96.250979 
2370.000000	96.245746 
2369.000000	96.240441 
2368.000000	96.235058 
2367.000000	96.229607 
2366.000000	96.224120 
2365.000000	96.218622 
2364.000000	96.213117 
2363.000000	96.207610 
2362.000000	96.202095 
2361.000000	96.196566 
2360.000000	96.191028 
2359.000000	96.185495 
2358.000000	96.180018 
2357.000000	96.174646 
2356.000000	96.169390 
2355.000000	96.164214 
2354.000000	96.159043 
2353.000000	96.153816 
2352.000000	96.148587 
2351.000000	96.143667 
2350.000000	96.139532 
2349.000000	96.136513 
2348.000000	96.134549 
2347.000000	96.133163 
2346.000000	96.131784 
2345.000000	96.130077 
2344.000000	96.128068 
2343.000000	96.125969 
2342.000000	96.123932 
2341.000000	96.122026 
2340.000000	96.120245 
2339.000000	96.118564 
2338.000000	96.116953 
2337.000000	96.115417 
2336.000000	96.113994 
2335.000000	96.112758 
2334.000000	96.111763 
2333.000000	96.111023 
2332.000000	96.110489 
2331.000000	96.110113 
2330.000000	96.109883 
2329.000000	96.109818 
2328.000000	96.109973 
2327.000000	96.110392 
2326.000000	96.111121 
2325.000000	96.112155 
2324.000000	96.113465 
2323.000000	96.115016 
2322.000000	96.116778 
2321.000000	96.118745 
2320.000000	96.120913 
2319.000000	96.123303 
2318.000000	96.125931 
2317.000000	96.128796 
2316.000000	96.131856 
2315.000000	96.135036 
2314.000000	96.138269 
2313.000000	96.141533 
2312.000000	96.144861 
2311.000000	96.148310 
2310.000000	96.151912 
2309.000000	96.155600 
2308.000000	96.159191 
2307.000000	96.162469 
2306.000000	96.165283 
2305.000000	96.167758 
2304.000000	96.170535 
2303.000000	96.173901 
2302.000000	96.177095 
2301.000000	96.180179 
2300.000000	96.183325 
2299.000000	96.185880 
2298.000000	96.187897 
2297.000000	96.188956 
2296.000000	96.190509 
2295.000000	96.192909 
2294.000000	96.197405 
2293.000000	96.203000 
2292.000000	96.209051 
2291.000000	96.214168 
2290.000000	96.218483 
2289.000000	96.222288 
2288.000000	96.225964 
2287.000000	96.229128 
2286.000000	96.231391 
2285.000000	96.233413 
2284.000000	96.236583 
2283.000000	96.241700 
2282.000000	96.247376 
2281.000000	96.251567 
2280.000000	96.253050 
2279.000000	96.252777 
2278.000000	96.252174 
2277.000000	96.252436 
2276.000000	96.253901 
2275.000000	96.256439 
2274.000000	96.259730 
2273.000000	96.263468 
2272.000000	96.267926 
2271.000000	96.272687 
2270.000000	96.276134 
2269.000000	96.276780 
2268.000000	96.274957 
2267.000000	96.272666 
2266.000000	96.271605 
2265.000000	96.271735 
2264.000000	96.272367 
2263.000000	96.272571 
2262.000000	96.271857 
2261.000000	96.270319 
2260.000000	96.268918 
2259.000000	96.268688 
2258.000000	96.269265 
2257.000000	96.269659 
2256.000000	96.269503 
2255.000000	96.269481 
2254.000000	96.269959 
2253.000000	96.270466 
2252.000000	96.270415 
2251.000000	96.269751 
2250.000000	96.268749 
2249.000000	96.267609 
2248.000000	96.266535 
2247.000000	96.265713 
2246.000000	96.265115 
2245.000000	96.264515 
2244.000000	96.263745 
2243.000000	96.262852 
2242.000000	96.261950 
2241.000000	96.261110 
2240.000000	96.260327 
2239.000000	96.259568 
2238.000000	96.258817 
2237.000000	96.258080 
2236.000000	96.257343 
2235.000000	96.256590 
2234.000000	96.255805 
2233.000000	96.254985 
2232.000000	96.254139 
2231.000000	96.253284 
2230.000000	96.252436 
2229.000000	96.251608 
2228.000000	96.250810 
2227.000000	96.250045 
2226.000000	96.249297 
2225.000000	96.248535 
2224.000000	96.247732 
2223.000000	96.246893 
2222.000000	96.246052 
2221.000000	96.245237 
2220.000000	96.244449 
2219.000000	96.243656 
2218.000000	96.242820 
2217.000000	96.241927 
2216.000000	96.240986 
2215.000000	96.240018 
2214.000000	96.239038 
2213.000000	96.238054 
2212.000000	96.237080 
2211.000000	96.236131 
2210.000000	96.235220 
2209.000000	96.234346 
2208.000000	96.233495 
2207.000000	96.232659 
2206.000000	96.231829 
2205.000000	96.230996 
2204.000000	96.230143 
2203.000000	96.229256 
2202.000000	96.228334 
2201.000000	96.227390 
2200.000000	96.226464 
2199.000000	96.225530 
2198.000000	96.224573 
2197.000000	96.223652 
2196.000000	96.222863 
2195.000000	96.222223 
2194.000000	96.221571 
2193.000000	96.220694 
2192.000000	96.219601 
2191.000000	96.218601 
2190.000000	96.217965 
2189.000000	96.217655 
2188.000000	96.217461 
2187.000000	96.217226 
2186.000000	96.216743 
2185.000000	96.215779 
2184.000000	96.214661 
2183.000000	96.214562 
2182.000000	96.216479 
2181.000000	96.219927 
2180.000000	96.222747 
2179.000000	96.223049 
2178.000000	96.220673 
2177.000000	96.217526 
2176.000000	96.216068 
2175.000000	96.217250 
2174.000000	96.220130 
2173.000000	96.223360 
2172.000000	96.227090 
2171.000000	96.232477 
2170.000000	96.239101 
2169.000000	96.243829 
2168.000000	96.243420 
2167.000000	96.237913 
2166.000000	96.231012 
2165.000000	96.226529 
2164.000000	96.225207 
2163.000000	96.225772 
2162.000000	96.228086 
2161.000000	96.233932 
2160.000000	96.244458 
2159.000000	96.257638 
2158.000000	96.269024 
2157.000000	96.275672 
2156.000000	96.278624 
2155.000000	96.281016 
2154.000000	96.284632 
2153.000000	96.289100 
2152.000000	96.293709 
2151.000000	96.298519 
2150.000000	96.303687 
2149.000000	96.309231 
2148.000000	96.315604 
2147.000000	96.322743 
2146.000000	96.328314 
2145.000000	96.329472 
2144.000000	96.327570 
2143.000000	96.328573 
2142.000000	96.336463 
2141.000000	96.347954 
2140.000000	96.356250 
2139.000000	96.359349 
2138.000000	96.361757 
2137.000000	96.367882 
2136.000000	96.376243 
2135.000000	96.381178 
2134.000000	96.378642 
2133.000000	96.369798 
2132.000000	96.360462 
2131.000000	96.356544 
2130.000000	96.359566 
2129.000000	96.366353 
2128.000000	96.372528 
2127.000000	96.376083 
2126.000000	96.377519 
2125.000000	96.377923 
2124.000000	96.377956 
2123.000000	96.377729 
2122.000000	96.376628 
2121.000000	96.373641 
2120.000000	96.368590 
2119.000000	96.362954 
2118.000000	96.359045 
2117.000000	96.358185 
2116.000000	96.359711 
2115.000000	96.361343 
2114.000000	96.360557 
2113.000000	96.356583 
2112.000000	96.351605 
2111.000000	96.349384 
2110.000000	96.351989 
2109.000000	96.358057 
2108.000000	96.364106 
2107.000000	96.367263 
2106.000000	96.366841 
2105.000000	96.364423 
2104.000000	96.362956 
2103.000000	96.364440 
2102.000000	96.367587 
2101.000000	96.368495 
2100.000000	96.364811 
2099.000000	96.358799 
2098.000000	96.355447 
2097.000000	96.357759 
2096.000000	96.364890 
2095.000000	96.373787 
2094.000000	96.381521 
2093.000000	96.386387 
2092.000000	96.387944 
2091.000000	96.386858 
2090.000000	96.384714 
2089.000000	96.383535 
2088.000000	96.384926 
2087.000000	96.388896 
2086.000000	96.393301 
2085.000000	96.395436 
2084.000000	96.394659 
2083.000000	96.392770 
2082.000000	96.391710 
2081.000000	96.392045 
2080.000000	96.394327 
2079.000000	96.400051 
2078.000000	96.409262 
2077.000000	96.418163 
2076.000000	96.421912 
2075.000000	96.419521 
2074.000000	96.414048 
2073.000000	96.408592 
2072.000000	96.403889 
2071.000000	96.400185 
2070.000000	96.398556 
2069.000000	96.399006 
2068.000000	96.399426 
2067.000000	96.398070 
2066.000000	96.395789 
2065.000000	96.394418 
2064.000000	96.393770 
2063.000000	96.392134 
2062.000000	96.389337 
2061.000000	96.387370 
2060.000000	96.388025 
2059.000000	96.391330 
2058.000000	96.395992 
2057.000000	96.400335 
2056.000000	96.403015 
2055.000000	96.403395 
2054.000000	96.401970 
2053.000000	96.400265 
2052.000000	96.399592 
2051.000000	96.399859 
2050.000000	96.400222 
2049.000000	96.400602 
2048.000000	96.401828 
2047.000000	96.404236 
2046.000000	96.406897 
2045.000000	96.408623 
2044.000000	96.409187 
2043.000000	96.409152 
2042.000000	96.409093 
2041.000000	96.409516 
2040.000000	96.411013 
2039.000000	96.413747 
2038.000000	96.416901 
2037.000000	96.419246 
2036.000000	96.420386 
2035.000000	96.420928 
2034.000000	96.421497 
2033.000000	96.422170 
2032.000000	96.422931 
2031.000000	96.423924 
2030.000000	96.424949 
2029.000000	96.425329 
2028.000000	96.424701 
2027.000000	96.423418 
2026.000000	96.422005 
2025.000000	96.420747 
2024.000000	96.419993 
2023.000000	96.420295 
2022.000000	96.421878 
2021.000000	96.424052 
2020.000000	96.425416 
2019.000000	96.425062 
2018.000000	96.423053 
2017.000000	96.420374 
2016.000000	96.418358 
2015.000000	96.417686 
2014.000000	96.417784 
2013.000000	96.417077 
2012.000000	96.414691 
2011.000000	96.411950 
2010.000000	96.411303 
2009.000000	96.413675 
2008.000000	96.417404 
2007.000000	96.420049 
2006.000000	96.420916 
2005.000000	96.420819 
2004.000000	96.420486 
2003.000000	96.420075 
2002.000000	96.419665 
2001.000000	96.419032 
2000.000000	96.417391 
1999.000000	96.414030 
1998.000000	96.409055 
1997.000000	96.403209 
1996.000000	96.397406 
1995.000000	96.392802 
1994.000000	96.390700 
1993.000000	96.391459 
1992.000000	96.393627 
1991.000000	96.395224 
1990.000000	96.395840 
1989.000000	96.396331 
1988.000000	96.396706 
1987.000000	96.395436 
1986.000000	96.391191 
1985.000000	96.384789 
1984.000000	96.379005 
1983.000000	96.376413 
1982.000000	96.377653 
1981.000000	96.381306 
1980.000000	96.385271 
1979.000000	96.388022 
1978.000000	96.389032 
1977.000000	96.388728 
1976.000000	96.388428 
1975.000000	96.390019 
1974.000000	96.395228 
1973.000000	96.404479 
1972.000000	96.415627 
1971.000000	96.424342 
1970.000000	96.426639 
1969.000000	96.421953 
1968.000000	96.413818 
1967.000000	96.406862 
1966.000000	96.403189 
1965.000000	96.401904 
1964.000000	96.401726 
1963.000000	96.402837 
1962.000000	96.406378 
1961.000000	96.412504 
1960.000000	96.418787 
1959.000000	96.421360 
1958.000000	96.418652 
1957.000000	96.413433 
1956.000000	96.410159 
1955.000000	96.409911 
1954.000000	96.409804 
1953.000000	96.407532 
1952.000000	96.404127 
1951.000000	96.401898 
1950.000000	96.401555 
1949.000000	96.402498 
1948.000000	96.404277 
1947.000000	96.406151 
1946.000000	96.406474 
1945.000000	96.404363 
1944.000000	96.401327 
1943.000000	96.399655 
1942.000000	96.399436 
1941.000000	96.398983 
1940.000000	96.397654 
1939.000000	96.396275 
1938.000000	96.395574 
1937.000000	96.395704 
1936.000000	96.396615 
1935.000000	96.397712 
1934.000000	96.397792 
1933.000000	96.396584 
1932.000000	96.395491 
1931.000000	96.395736 
1930.000000	96.396242 
1929.000000	96.395019 
1928.000000	96.392369 
1927.000000	96.390434 
1926.000000	96.390151 
1925.000000	96.390308 
1924.000000	96.390113 
1923.000000	96.390470 
1922.000000	96.391525 
1921.000000	96.391515 
1920.000000	96.389673 
1919.000000	96.387948 
1918.000000	96.388172 
1917.000000	96.388697 
1916.000000	96.387130 
1915.000000	96.384041 
1914.000000	96.381173 
1913.000000	96.378503 
1912.000000	96.375092 
1911.000000	96.371610 
1910.000000	96.369739 
1909.000000	96.369700 
1908.000000	96.370122 
1907.000000	96.369663 
1906.000000	96.367890 
1905.000000	96.364653 
1904.000000	96.360330 
1903.000000	96.356438 
1902.000000	96.354136 
1901.000000	96.352742 
1900.000000	96.350949 
1899.000000	96.348696 
1898.000000	96.346935 
1897.000000	96.345877 
1896.000000	96.344739 
1895.000000	96.343048 
1894.000000	96.340955 
1893.000000	96.338430 
1892.000000	96.335338 
1891.000000	96.332231 
1890.000000	96.330107 
1889.000000	96.329150 
1888.000000	96.328659 
1887.000000	96.328236 
1886.000000	96.327868 
1885.000000	96.327207 
1884.000000	96.325727 
1883.000000	96.323586 
1882.000000	96.321674 
1881.000000	96.320760 
1880.000000	96.320904 
1879.000000	96.321423 
1878.000000	96.321401 
1877.000000	96.320558 
1876.000000	96.319503 
1875.000000	96.319143 
1874.000000	96.319763 
1873.000000	96.320883 
1872.000000	96.321839 
1871.000000	96.322260 
1870.000000	96.321949 
1869.000000	96.320845 
1868.000000	96.319552 
1867.000000	96.319261 
1866.000000	96.320318 
1865.000000	96.321647 
1864.000000	96.322102 
1863.000000	96.322024 
1862.000000	96.322672 
1861.000000	96.324471 
1860.000000	96.326633 
1859.000000	96.328392 
1858.000000	96.329871 
1857.000000	96.331548 
1856.000000	96.333634 
1855.000000	96.335969 
1854.000000	96.338032 
1853.000000	96.339231 
1852.000000	96.339729 
1851.000000	96.340454 
1850.000000	96.342058 
1849.000000	96.344323 
1848.000000	96.346652 
1847.000000	96.348810 
1846.000000	96.350866 
1845.000000	96.352784 
1844.000000	96.354501 
1843.000000	96.356242 
1842.000000	96.358205 
1841.000000	96.360150 
1840.000000	96.361961 
1839.000000	96.363965 
1838.000000	96.366246 
1837.000000	96.367984 
1836.000000	96.368442 
1835.000000	96.368126 
1834.000000	96.368279 
1833.000000	96.369272 
1832.000000	96.370548 
1831.000000	96.371547 
1830.000000	96.372307 
1829.000000	96.373026 
1828.000000	96.373771 
1827.000000	96.374779 
1826.000000	96.376519 
1825.000000	96.379184 
1824.000000	96.382020 
1823.000000	96.384095 
1822.000000	96.385205 
1821.000000	96.385472 
1820.000000	96.385174 
1819.000000	96.385002 
1818.000000	96.385929 
1817.000000	96.387923 
1816.000000	96.389543 
1815.000000	96.389903 
1814.000000	96.389755 
1813.000000	96.390224 
1812.000000	96.390994 
1811.000000	96.390999 
1810.000000	96.390438 
1809.000000	96.390398 
1808.000000	96.391184 
1807.000000	96.392285 
1806.000000	96.393274 
1805.000000	96.393933 
1804.000000	96.394110 
1803.000000	96.394053 
1802.000000	96.394166 
1801.000000	96.394534 
1800.000000	96.394606 
1799.000000	96.394225 
1798.000000	96.394152 
1797.000000	96.394671 
1796.000000	96.395045 
1795.000000	96.394660 
1794.000000	96.393990 
1793.000000	96.394385 
1792.000000	96.396400 
1791.000000	96.399195 
1790.000000	96.401710 
1789.000000	96.403333 
1788.000000	96.404005 
1787.000000	96.404384 
1786.000000	96.405502 
1785.000000	96.407623 
1784.000000	96.409988 
1783.000000	96.412044 
1782.000000	96.413590 
1781.000000	96.414716 
1780.000000	96.415504 
1779.000000	96.416136 
1778.000000	96.417156 
1777.000000	96.418957 
1776.000000	96.421516 
1775.000000	96.424092 
1774.000000	96.425548 
1773.000000	96.425520 
1772.000000	96.424853 
1771.000000	96.424709 
1770.000000	96.425944 
1769.000000	96.428659 
1768.000000	96.432218 
1767.000000	96.435306 
1766.000000	96.436899 
1765.000000	96.437252 
1764.000000	96.437102 
1763.000000	96.437084 
1762.000000	96.437712 
1761.000000	96.439399 
1760.000000	96.441871 
1759.000000	96.444217 
1758.000000	96.445371 
1757.000000	96.445344 
1756.000000	96.445535 
1755.000000	96.446458 
1754.000000	96.447008 
1753.000000	96.445937 
1752.000000	96.443919 
1751.000000	96.442420 
1750.000000	96.441087 
1749.000000	96.438269 
1748.000000	96.434298 
1747.000000	96.430997 
1746.000000	96.429242 
1745.000000	96.430260 
1744.000000	96.434828 
1743.000000	96.440462 
1742.000000	96.442281 
1741.000000	96.437860 
1740.000000	96.430056 
1739.000000	96.425202 
1738.000000	96.426619 
1737.000000	96.431221 
1736.000000	96.432776 
1735.000000	96.428105 
1734.000000	96.418456 
1733.000000	96.405576 
1732.000000	96.395472 
1731.000000	96.393501 
1730.000000	96.399378 
1729.000000	96.406735 
1728.000000	96.408351 
1727.000000	96.402591 
1726.000000	96.392064 
1725.000000	96.381139 
1724.000000	96.372324 
1723.000000	96.366713 
1722.000000	96.364830 
1721.000000	96.364356 
1720.000000	96.360506 
1719.000000	96.350568 
1718.000000	96.337704 
1717.000000	96.323747 
1716.000000	96.307121 
1715.000000	96.292092 
1714.000000	96.283414 
1713.000000	96.277276 
1712.000000	96.266801 
1711.000000	96.252813 
1710.000000	96.241355 
1709.000000	96.233861 
1708.000000	96.225586 
1707.000000	96.213044 
1706.000000	96.198971 
1705.000000	96.186147 
1704.000000	96.173807 
1703.000000	96.160302 
1702.000000	96.142966 
1701.000000	96.120300 
1700.000000	96.094622 
1699.000000	96.072791 
1698.000000	96.062753 
1697.000000	96.058358 
1696.000000	96.048207 
1695.000000	96.028165 
1694.000000	96.005659 
1693.000000	95.986379 
1692.000000	95.967084 
1691.000000	95.945568 
1690.000000	95.923863 
1689.000000	95.905897 
1688.000000	95.893418 
1687.000000	95.882196 
1686.000000	95.864936 
1685.000000	95.837530 
1684.000000	95.804897 
1683.000000	95.776216 
1682.000000	95.756790 
1681.000000	95.742667 
1680.000000	95.730929 
1679.000000	95.720200 
1678.000000	95.706907 
1677.000000	95.687715 
1676.000000	95.663205 
1675.000000	95.637284 
1674.000000	95.610655 
1673.000000	95.584619 
1672.000000	95.559948 
1671.000000	95.537237 
1670.000000	95.515823 
1669.000000	95.493412 
1668.000000	95.474679 
1667.000000	95.464586 
1666.000000	95.457924 
1665.000000	95.445594 
1664.000000	95.424158 
1663.000000	95.399821 
1662.000000	95.377189 
1661.000000	95.355120 
1660.000000	95.334829 
1659.000000	95.317786 
1658.000000	95.302815 
1657.000000	95.290718 
1656.000000	95.282982 
1655.000000	95.273134 
1654.000000	95.251823 
1653.000000	95.207289 
1652.000000	95.146634 
1651.000000	95.111795 
1650.000000	95.097839 
1649.000000	95.086716 
1648.000000	95.075240 
1647.000000	95.067131 
1646.000000	95.063793 
1645.000000	95.061722 
1644.000000	95.059137 
1643.000000	95.056547 
1642.000000	95.055060 
1641.000000	95.052965 
1640.000000	95.049656 
1639.000000	95.046932 
1638.000000	95.046232 
1637.000000	95.045971 
1636.000000	95.044192 
1635.000000	95.038944 
1634.000000	95.038143 
1633.000000	95.047971 
1632.000000	95.061496 
1631.000000	95.074255 
1630.000000	95.085425 
1629.000000	95.095803 
1628.000000	95.108365 
1627.000000	95.126577 
1626.000000	95.148196 
1625.000000	95.167725 
1624.000000	95.185348 
1623.000000	95.207304 
1622.000000	95.235026 
1621.000000	95.265822 
1620.000000	95.299449 
1619.000000	95.334989 
1618.000000	95.367188 
1617.000000	95.386747 
1616.000000	95.394866 
1615.000000	95.407224 
1614.000000	95.430869 
1613.000000	95.457733 
1612.000000	95.480661 
1611.000000	95.499561 
1610.000000	95.517039 
1609.000000	95.536411 
1608.000000	95.562034 
1607.000000	95.594215 
1606.000000	95.624743 
1605.000000	95.648090 
1604.000000	95.669032 
1603.000000	95.692394 
1602.000000	95.715703 
1601.000000	95.734977 
1600.000000	95.751583 
1599.000000	95.768241 
1598.000000	95.783809 
1597.000000	95.796612 
1596.000000	95.808484 
1595.000000	95.822569 
1594.000000	95.838734 
1593.000000	95.854696 
1592.000000	95.870170 
1591.000000	95.886311 
1590.000000	95.902490 
1589.000000	95.917459 
1588.000000	95.932279 
1587.000000	95.948842 
1586.000000	95.965464 
1585.000000	95.977932 
1584.000000	95.986985 
1583.000000	95.995844 
1582.000000	96.004213 
1581.000000	96.012051 
1580.000000	96.023800 
1579.000000	96.041635 
1578.000000	96.060459 
1577.000000	96.073238 
1576.000000	96.078589 
1575.000000	96.083077 
1574.000000	96.093055 
1573.000000	96.107360 
1572.000000	96.121194 
1571.000000	96.130976 
1570.000000	96.135754 
1569.000000	96.137791 
1568.000000	96.143380 
1567.000000	96.153465 
1566.000000	96.162882 
1565.000000	96.170086 
1564.000000	96.179865 
1563.000000	96.193706 
1562.000000	96.205537 
1561.000000	96.205201 
1560.000000	96.197328 
1559.000000	96.198610 
1558.000000	96.200993 
1557.000000	96.204093 
1556.000000	96.214279 
1555.000000	96.227428 
1554.000000	96.237885 
1553.000000	96.243483 
1552.000000	96.247375 
1551.000000	96.252095 
1550.000000	96.258280 
1549.000000	96.263858 
1548.000000	96.267444 
1547.000000	96.269900 
1546.000000	96.272018 
1545.000000	96.275105 
1544.000000	96.279729 
1543.000000	96.284089 
1542.000000	96.286944 
1541.000000	96.288664 
1540.000000	96.288225 
1539.000000	96.285819 
1538.000000	96.285564 
1537.000000	96.287987 
1536.000000	96.290519 
1535.000000	96.292562 
1534.000000	96.295293 
1533.000000	96.299682 
1532.000000	96.304356 
1531.000000	96.307832 
1530.000000	96.310044 
1529.000000	96.311549 
1528.000000	96.313021 
1527.000000	96.314998 
1526.000000	96.317421 
1525.000000	96.319750 
1524.000000	96.321594 
1523.000000	96.323017 
1522.000000	96.324751 
1521.000000	96.327015 
1520.000000	96.328605 
1519.000000	96.328876 
1518.000000	96.328806 
1517.000000	96.330245 
1516.000000	96.333782 
1515.000000	96.338081 
1514.000000	96.341875 
1513.000000	96.344856 
1512.000000	96.346733 
1511.000000	96.347260 
1510.000000	96.347026 
1509.000000	96.347134 
1508.000000	96.349480 
1507.000000	96.355222 
1506.000000	96.359931 
1505.000000	96.360739 
1504.000000	96.360621 
1503.000000	96.360524 
1502.000000	96.360577 
1501.000000	96.361253 
1500.000000	96.362864 
1499.000000	96.364856 
1498.000000	96.366459 
1497.000000	96.367957 
1496.000000	96.369221 
1495.000000	96.370552 
1494.000000	96.373092 
1493.000000	96.376534 
1492.000000	96.379144 
1491.000000	96.381288 
1490.000000	96.385843 
1489.000000	96.391737 
1488.000000	96.393583 
1487.000000	96.391596 
1486.000000	96.390536 
1485.000000	96.389989 
1484.000000	96.387409 
1483.000000	96.383535 
1482.000000	96.382067 
1481.000000	96.384183 
1480.000000	96.385690 
1479.000000	96.382967 
1478.000000	96.377166 
1477.000000	96.371609 
1476.000000	96.366833 
1475.000000	96.361271 
1474.000000	96.354572 
1473.000000	96.350156 
1472.000000	96.349200 
1471.000000	96.348034 
1470.000000	96.345730 
1469.000000	96.342822 
1468.000000	96.337944 
1467.000000	96.330366 
1466.000000	96.322499 
1465.000000	96.318926 
1464.000000	96.319983 
1463.000000	96.319299 
1462.000000	96.312911 
1461.000000	96.302893 
1460.000000	96.293977 
1459.000000	96.288179 
1458.000000	96.285100 
1457.000000	96.283419 
1456.000000	96.277858 
1455.000000	96.266901 
1454.000000	96.254435 
1453.000000	96.245278 
1452.000000	96.241818 
1451.000000	96.241205 
1450.000000	96.240351 
1449.000000	96.239627 
1448.000000	96.240026 
1447.000000	96.240537 
1446.000000	96.238462 
1445.000000	96.234723 
1444.000000	96.231689 
1443.000000	96.227404 
1442.000000	96.219523 
1441.000000	96.209730 
1440.000000	96.200960 
1439.000000	96.191840 
1438.000000	96.180856 
1437.000000	96.172804 
1436.000000	96.170083 
1435.000000	96.166252 
1434.000000	96.160089 
1433.000000	96.156235 
1432.000000	96.155711 
1431.000000	96.154941 
1430.000000	96.152099 
1429.000000	96.150140 
1428.000000	96.150117 
1427.000000	96.150046 
1426.000000	96.148090 
1425.000000	96.148006 
1424.000000	96.154967 
1423.000000	96.164634 
1422.000000	96.169783 
1421.000000	96.170362 
1420.000000	96.172125 
1419.000000	96.176337 
1418.000000	96.177100 
1417.000000	96.176167 
1416.000000	96.181270 
1415.000000	96.191402 
1414.000000	96.198870 
1413.000000	96.201537 
1412.000000	96.205212 
1411.000000	96.213276 
1410.000000	96.222477 
1409.000000	96.228633 
1408.000000	96.230365 
1407.000000	96.229905 
1406.000000	96.231294 
1405.000000	96.239527 
1404.000000	96.255731 
1403.000000	96.272264 
1402.000000	96.281970 
1401.000000	96.287277 
1400.000000	96.296784 
1399.000000	96.313120 
1398.000000	96.328958 
1397.000000	96.339403 
1396.000000	96.349230 
1395.000000	96.364360 
1394.000000	96.381423 
1393.000000	96.394053 
1392.000000	96.402659 
1391.000000	96.410091 
1390.000000	96.417423 
1389.000000	96.425550 
1388.000000	96.436121 
1387.000000	96.448711 
1386.000000	96.459159 
1385.000000	96.465816 
1384.000000	96.471691 
1383.000000	96.478397 
1382.000000	96.484557 
1381.000000	96.489038 
1380.000000	96.493072 
1379.000000	96.498328 
1378.000000	96.504223 
1377.000000	96.508829 
1376.000000	96.512223 
1375.000000	96.517515 
1374.000000	96.527073 
1373.000000	96.539124 
1372.000000	96.549805 
1371.000000	96.557396 
1370.000000	96.562528 
1369.000000	96.566910 
1368.000000	96.571970 
1367.000000	96.576586 
1366.000000	96.578448 
1365.000000	96.577771 
1364.000000	96.578106 
1363.000000	96.583122 
1362.000000	96.592220 
1361.000000	96.601498 
1360.000000	96.608944 
1359.000000	96.615072 
1358.000000	96.620470 
1357.000000	96.625467 
1356.000000	96.630872 
1355.000000	96.637059 
1354.000000	96.643453 
1353.000000	96.649605 
1352.000000	96.655352 
1351.000000	96.661310 
1350.000000	96.667784 
1349.000000	96.673566 
1348.000000	96.677367 
1347.000000	96.679289 
1346.000000	96.681079 
1345.000000	96.684034 
1344.000000	96.686913 
1343.000000	96.687095 
1342.000000	96.684058 
1341.000000	96.680899 
1340.000000	96.681415 
1339.000000	96.685587 
1338.000000	96.689924 
1337.000000	96.692320 
1336.000000	96.693127 
1335.000000	96.692622 
1334.000000	96.691003 
1333.000000	96.689961 
1332.000000	96.691440 
1331.000000	96.694973 
1330.000000	96.698160 
1329.000000	96.699835 
1328.000000	96.701005 
1327.000000	96.702571 
1326.000000	96.703394 
1325.000000	96.701429 
1324.000000	96.696318 
1323.000000	96.689459 
1322.000000	96.682618 
1321.000000	96.677468 
1320.000000	96.675492 
1319.000000	96.677151 
1318.000000	96.681274 
1317.000000	96.685946 
1316.000000	96.689389 
1315.000000	96.690224 
1314.000000	96.688551 
1313.000000	96.686917 
1312.000000	96.688005 
1311.000000	96.690836 
1310.000000	96.691588 
1309.000000	96.689010 
1308.000000	96.686815 
1307.000000	96.689428 
1306.000000	96.696442 
1305.000000	96.703188 
1304.000000	96.706042 
1303.000000	96.704689 
1302.000000	96.700456 
1301.000000	96.694955 
1300.000000	96.690353 
1299.000000	96.688930 
1298.000000	96.691094 
1297.000000	96.694487 
1296.000000	96.695891 
1295.000000	96.694318 
1294.000000	96.691988 
1293.000000	96.692116 
1292.000000	96.695562 
1291.000000	96.699875 
1290.000000	96.702009 
1289.000000	96.701341 
1288.000000	96.699131 
1287.000000	96.695870 
1286.000000	96.690937 
1285.000000	96.684927 
1284.000000	96.680283 
1283.000000	96.678609 
1282.000000	96.678767 
1281.000000	96.678559 
1280.000000	96.677313 
1279.000000	96.675947 
1278.000000	96.675762 
1277.000000	96.678094 
1276.000000	96.683558 
1275.000000	96.690552 
1274.000000	96.695733 
1273.000000	96.697283 
1272.000000	96.696765 
1271.000000	96.696591 
1270.000000	96.696745 
1269.000000	96.695402 
1268.000000	96.691786 
1267.000000	96.686584 
1266.000000	96.680404 
1265.000000	96.673939 
1264.000000	96.669164 
1263.000000	96.668289 
1262.000000	96.671385 
1261.000000	96.676445 
1260.000000	96.682129 
1259.000000	96.689013 
1258.000000	96.697402 
1257.000000	96.705083 
1256.000000	96.708317 
1255.000000	96.705707 
1254.000000	96.700875 
1253.000000	96.699692 
1252.000000	96.703712 
1251.000000	96.707767 
1250.000000	96.706015 
1249.000000	96.699210 
1248.000000	96.693472 
1247.000000	96.692454 
1246.000000	96.694109 
1245.000000	96.695494 
1244.000000	96.696715 
1243.000000	96.698395 
1242.000000	96.698944 
1241.000000	96.697229 
1240.000000	96.695448 
1239.000000	96.696389 
1238.000000	96.699395 
1237.000000	96.701561 
1236.000000	96.701336 
1235.000000	96.698503 
1234.000000	96.692403 
1233.000000	96.683244 
1232.000000	96.673919 
1231.000000	96.667270 
1230.000000	96.662104 
1229.000000	96.654625 
1228.000000	96.642775 
1227.000000	96.626131 
1226.000000	96.602553 
1225.000000	96.569033 
1224.000000	96.526603 
1223.000000	96.481054 
1222.000000	96.436950 
1221.000000	96.392825 
1220.000000	96.343659 
1219.000000	96.286255 
1218.000000	96.220876 
1217.000000	96.149371 
1216.000000	96.073349 
1215.000000	95.993655 
1214.000000	95.910771 
1213.000000	95.825886 
1212.000000	95.740840 
1211.000000	95.655641 
1210.000000	95.567039 
1209.000000	95.471928 
1208.000000	95.371619 
1207.000000	95.269887 
1206.000000	95.167210 
1205.000000	95.060478 
1204.000000	94.948516 
1203.000000	94.834331 
1202.000000	94.721432 
1201.000000	94.610794 
1200.000000	94.501854 
1199.000000	94.393308 
1198.000000	94.282270 
1197.000000	94.166142 
1196.000000	94.046333 
1195.000000	93.927186 
1194.000000	93.810508 
1193.000000	93.693952 
1192.000000	93.575193 
1191.000000	93.454278 
1190.000000	93.331197 
1189.000000	93.204579 
1188.000000	93.073895 
1187.000000	92.940186 
1186.000000	92.804114 
1185.000000	92.665915 
1184.000000	92.527028 
1183.000000	92.388609 
1182.000000	92.248918 
1181.000000	92.105610 
1180.000000	91.959532 
1179.000000	91.812044 
1178.000000	91.660009 
1177.000000	91.498949 
1176.000000	91.330186 
1175.000000	91.158883 
1174.000000	90.985777 
1173.000000	90.807537 
1172.000000	90.624800 
1171.000000	90.441767 
1170.000000	90.257394 
1169.000000	90.066108 
1168.000000	89.869912 
1167.000000	89.682191 
1166.000000	89.517488 
1165.000000	89.385796 
1164.000000	89.298697 
1163.000000	89.269901 
1162.000000	89.302439 
1161.000000	89.380133 
1160.000000	89.474808 
1159.000000	89.557580 
1158.000000	89.604014 
1157.000000	89.598343 
1156.000000	89.538579 
1155.000000	89.434735 
1154.000000	89.300117 
1153.000000	89.146264 
1152.000000	88.984047 
1151.000000	88.821781 
1150.000000	88.660459 
1149.000000	88.497266 
1148.000000	88.334641 
1147.000000	88.178604 
1146.000000	88.027530 
1145.000000	87.871548 
1144.000000	87.705522 
1143.000000	87.534751 
1142.000000	87.365692 
1141.000000	87.198809 
1140.000000	87.032696 
1139.000000	86.867224 
1138.000000	86.700300 
1137.000000	86.528894 
1136.000000	86.354629 
1135.000000	86.180872 
1134.000000	86.004294 
1133.000000	85.818326 
1132.000000	85.624927 
1131.000000	85.432774 
1130.000000	85.243564 
1129.000000	85.051148 
1128.000000	84.854606 
1127.000000	84.659863 
1126.000000	84.466897 
1125.000000	84.268134 
1124.000000	84.061829 
1123.000000	83.854521 
1122.000000	83.648035 
1121.000000	83.437355 
1120.000000	83.224171 
1119.000000	83.018456 
1118.000000	82.823052 
1117.000000	82.631163 
1116.000000	82.442564 
1115.000000	82.267178 
1114.000000	82.108366 
1113.000000	81.957630 
1112.000000	81.809872 
1111.000000	81.668323 
1110.000000	81.530505 
1109.000000	81.385886 
1108.000000	81.231717 
1107.000000	81.075414 
1106.000000	80.917878 
1105.000000	80.751116 
1104.000000	80.576224 
1103.000000	80.406105 
1102.000000	80.245524 
1101.000000	80.084826 
1100.000000	79.918413 
1099.000000	79.752150 
1098.000000	79.588941 
1097.000000	79.424757 
1096.000000	79.261840 
1095.000000	79.108088 
1094.000000	78.959294 
1093.000000	78.801595 
1092.000000	78.636004 
1091.000000	78.481047 
1090.000000	78.345952 
1089.000000	78.220495 
1088.000000	78.095894 
1087.000000	77.975197 
1086.000000	77.857659 
1085.000000	77.733882 
1084.000000	77.603407 
1083.000000	77.478005 
1082.000000	77.361431 
1081.000000	77.244325 
1080.000000	77.123503 
1079.000000	77.006015 
1078.000000	76.889179 
1077.000000	76.757411 
1076.000000	76.604452 
1075.000000	76.438354 
1074.000000	76.259888 
1073.000000	76.057468 
1072.000000	75.828336 
1071.000000	75.582366 
1070.000000	75.318769 
1069.000000	75.021224 
1068.000000	74.684014 
1067.000000	74.322672 
1066.000000	73.951960 
1065.000000	73.573409 
1064.000000	73.190878 
1063.000000	72.815697 
1062.000000	72.447514 
1061.000000	72.071330 
1060.000000	71.682077 
1059.000000	71.292116 
1058.000000	70.908023 
1057.000000	70.520896 
1056.000000	70.125336 
1055.000000	69.725618 
1054.000000	69.317212 
1053.000000	68.885766 
1052.000000	68.431996 
1051.000000	67.973552 
1050.000000	67.514631 
1049.000000	67.040934 
1048.000000	66.551008 
1047.000000	66.061468 
1046.000000	65.576290 
1045.000000	65.082419 
1044.000000	64.579359 
1043.000000	64.082626 
1042.000000	63.594054 
1041.000000	63.099101 
1040.000000	62.598777 
1039.000000	62.113221 
1038.000000	61.647521 
1037.000000	61.186037 
1036.000000	60.727262 
1035.000000	60.291426 
1034.000000	59.886357 
1033.000000	59.499256 
1032.000000	59.129242 
1031.000000	58.793236 
1030.000000	58.491368 
1029.000000	58.201519 
1028.000000	57.916989 
1027.000000	57.655357 
1026.000000	57.421901 
1025.000000	57.199404 
1024.000000	56.981729 
1023.000000	56.781376 
1022.000000	56.595396 
1021.000000	56.400594 
1020.000000	56.191852 
1019.000000	55.989512 
1018.000000	55.800565 
1017.000000	55.608920 
1016.000000	55.411292 
1015.000000	55.224481 
1014.000000	55.048414 
1013.000000	54.860892 
1012.000000	54.659325 
1011.000000	54.469598 
1010.000000	54.302929 
1009.000000	54.141735 
1008.000000	53.978645 
1007.000000	53.831595 
1006.000000	53.708807 
1005.000000	53.596345 
1004.000000	53.491803 
1003.000000	53.413467 
1002.000000	53.364446 
1001.000000	53.324201 
1000.000000	53.286887 
999.000000	 53.271773 
998.000000	 53.284263 
997.000000	 53.302917 
996.000000	 53.316949 
995.000000	 53.341889 
994.000000	 53.386551 
993.000000	 53.438532 
992.000000	 53.492696 
991.000000	 53.560450 
990.000000	 53.641327 
989.000000	 53.719006 
988.000000	 53.794219 
987.000000	 53.888199 
986.000000	 54.006335 
985.000000	 54.132536 
984.000000	 54.265543 
983.000000	 54.425036 
982.000000	 54.615079 
981.000000	 54.817733 
980.000000	 55.029485 
979.000000	 55.267408 
978.000000	 55.532556 
977.000000	 55.805026 
976.000000	 56.082815 
975.000000	 56.387964 
974.000000	 56.725932 
973.000000	 57.076074 
972.000000	 57.430603 
971.000000	 57.805987 
970.000000	 58.206492 
969.000000	 58.613091 
968.000000	 59.018376 
967.000000	 59.437184 
966.000000	 59.872836 
965.000000	 60.307399 
964.000000	 60.735184 
963.000000	 61.172211 
962.000000	 61.622449 
961.000000	 62.067082 
960.000000	 62.496712 
959.000000	 62.922640 
958.000000	 63.347421 
957.000000	 63.755588 
956.000000	 64.142996 
955.000000	 64.525258 
954.000000	 64.908061 
953.000000	 65.277780 
952.000000	 65.629246 
951.000000	 65.973515 
950.000000	 66.310583 
949.000000	 66.623418 
948.000000	 66.906782 
947.000000	 67.173847 
946.000000	 67.427658 
945.000000	 67.654458 
944.000000	 67.852358 
943.000000	 68.038378 
942.000000	 68.219765 
941.000000	 68.386247 
940.000000	 68.537865 
939.000000	 68.691802 
938.000000	 68.853434 
937.000000	 69.008515 
936.000000	 69.152139 
935.000000	 69.297647 
934.000000	 69.449324 
933.000000	 69.594651 
932.000000	 69.731788 
931.000000	 69.876495 
930.000000	 70.032836 
929.000000	 70.184118 
928.000000	 70.321516 
927.000000	 70.455431 
926.000000	 70.590928 
925.000000	 70.717950 
924.000000	 70.832682 
923.000000	 70.942340 
922.000000	 71.043059 
921.000000	 71.120625 
920.000000	 71.179242 
919.000000	 71.241474 
918.000000	 71.313174 
917.000000	 71.377259 
916.000000	 71.429385 
915.000000	 71.490564 
914.000000	 71.576217 
913.000000	 71.682269 
912.000000	 71.810773 
911.000000	 71.979666 
910.000000	 72.196667 
909.000000	 72.451378 
908.000000	 72.742097 
907.000000	 73.082336 
906.000000	 73.471949 
905.000000	 73.889307 
904.000000	 74.320058 
903.000000	 74.767709 
902.000000	 75.230775 
901.000000	 75.697768 
900.000000	 76.169692 
899.000000	 76.659086 
898.000000	 77.161030 
897.000000	 77.651621 
896.000000	 78.118679 
895.000000	 78.567533 
894.000000	 78.996291 
893.000000	 79.395550 
892.000000	 79.774897 
891.000000	 80.158285 
890.000000	 80.547417 
889.000000	 80.918804 
888.000000	 81.262388 
887.000000	 81.593907 
886.000000	 81.923719 
885.000000	 82.243308 
884.000000	 82.549698 
883.000000	 82.853362 
882.000000	 83.154333 
881.000000	 83.440814 
880.000000	 83.720039 
879.000000	 84.019036 
878.000000	 84.343595 
877.000000	 84.667472 
876.000000	 84.974386 
875.000000	 85.280174 
874.000000	 85.601766 
873.000000	 85.934845 
872.000000	 86.274645 
871.000000	 86.628602 
870.000000	 86.994531 
869.000000	 87.352903 
868.000000	 87.693254 
867.000000	 88.024901 
866.000000	 88.352959 
865.000000	 88.668605 
864.000000	 88.972690 
863.000000	 89.283736 
862.000000	 89.609605 
861.000000	 89.933206 
860.000000	 90.239081 
859.000000	 90.533661 
858.000000	 90.826732 
857.000000	 91.111569 
856.000000	 91.377050 
855.000000	 91.623906 
854.000000	 91.856614 
853.000000	 92.072451 
852.000000	 92.269141 
851.000000	 92.452020 
850.000000	 92.625650 
849.000000	 92.788533 
848.000000	 92.940052 
847.000000	 93.079978 
846.000000	 93.198912 
845.000000	 93.285036 
844.000000	 93.343079 
843.000000	 93.389589 
842.000000	 93.426359 
841.000000	 93.436877 
840.000000	 93.412862 
839.000000	 93.364418 
838.000000	 93.299088 
837.000000	 93.212252 
836.000000	 93.106906 
835.000000	 93.002995 
834.000000	 92.916067 
833.000000	 92.844080 
832.000000	 92.785534 
831.000000	 92.751988 
830.000000	 92.750049 
829.000000	 92.768667 
828.000000	 92.798957 
827.000000	 92.851353 
826.000000	 92.938470 
825.000000	 93.054527 
824.000000	 93.183865 
823.000000	 93.314883 
822.000000	 93.436388 
821.000000	 93.538590 
820.000000	 93.626267 
819.000000	 93.713376 
818.000000	 93.797402 
817.000000	 93.853868 
816.000000	 93.861372 
815.000000	 93.818210 
814.000000	 93.729929 
813.000000	 93.594421 
812.000000	 93.404341 
811.000000	 93.149522 
810.000000	 92.809981 
809.000000	 92.360064 
808.000000	 91.787801 
807.000000	 91.101931 
806.000000	 90.319603 
805.000000	 89.463653 
804.000000	 88.576256 
803.000000	 87.714072 
802.000000	 86.918265 
801.000000	 86.206504 
800.000000	 85.600767 
799.000000	 85.137565 
798.000000	 84.838839 
797.000000	 84.695718 
796.000000	 84.689019 
795.000000	 84.798661 
794.000000	 84.984752 
793.000000	 85.191206 
792.000000	 85.384134 
791.000000	 85.565024 
790.000000	 85.737517 
789.000000	 85.884470 
788.000000	 85.984763 
787.000000	 86.027559 
786.000000	 86.000703 
785.000000	 85.888589 
784.000000	 85.692570 
783.000000	 85.434958 
782.000000	 85.137871 
781.000000	 84.821603 
780.000000	 84.529056 
779.000000	 84.321461 
778.000000	 84.234773 
777.000000	 84.261921 
776.000000	 84.385031 
775.000000	 84.596878 
774.000000	 84.880844 
773.000000	 85.200400 
772.000000	 85.524583 
771.000000	 85.841882 
770.000000	 86.139969 
769.000000	 86.397655 
768.000000	 86.608062 
767.000000	 86.785582 
766.000000	 86.938807 
765.000000	 87.059508 
764.000000	 87.148450 
763.000000	 87.226958 
762.000000	 87.309984 
761.000000	 87.391432 
760.000000	 87.469157 
759.000000	 87.559982 
758.000000	 87.674857 
757.000000	 87.802538 
756.000000	 87.933872 
755.000000	 88.079763 
754.000000	 88.247355 
753.000000	 88.417776 
752.000000	 88.565943 
751.000000	 88.688424 
750.000000	 88.798681 
749.000000	 88.910353 
748.000000	 89.036723 
747.000000	 89.189417 
746.000000	 89.363934 
745.000000	 89.540470 
744.000000	 89.710833 
743.000000	 89.891598 
742.000000	 90.101683 
741.000000	 90.342071 
740.000000	 90.605183 
739.000000	 90.885290 
738.000000	 91.168878 
737.000000	 91.432108 
736.000000	 91.660973 
735.000000	 91.863756 
734.000000	 92.055780 
733.000000	 92.243189 
732.000000	 92.424981 
731.000000	 92.595236 
730.000000	 92.737454 
729.000000	 92.831897 
728.000000	 92.881951 
727.000000	 92.918207 
726.000000	 92.967359 
725.000000	 93.036569 
724.000000	 93.129232 
723.000000	 93.250282 
722.000000	 93.388931 
721.000000	 93.520899 
720.000000	 93.640723 
719.000000	 93.768842 
718.000000	 93.916350 
717.000000	 94.068841 
716.000000	 94.210881 
715.000000	 94.341487 
714.000000	 94.457697 
713.000000	 94.546407 
712.000000	 94.607547 
711.000000	 94.660197 
710.000000	 94.712210 
709.000000	 94.749089 
708.000000	 94.759676 
707.000000	 94.756095 
706.000000	 94.746248 
705.000000	 94.714014 
704.000000	 94.646252 
703.000000	 94.546754 
702.000000	 94.409354 
701.000000	 94.199790 
700.000000	 93.884563 
699.000000	 93.470754 
698.000000	 92.998236 
697.000000	 92.518898 
696.000000	 92.100847 
695.000000	 91.817300 
694.000000	 91.711857 
693.000000	 91.773748 
692.000000	 91.952843 
691.000000	 92.193775 
690.000000	 92.445251 
689.000000	 92.671271 
688.000000	 92.872649 
687.000000	 93.073675 
686.000000	 93.281744 
685.000000	 93.474754 
684.000000	 93.635982 
683.000000	 93.777721 
682.000000	 93.916823 
681.000000	 94.050588 
680.000000	 94.176181 
679.000000	 94.306549 
678.000000	 94.455975 
677.000000	 94.613963 
676.000000	 94.763027 
675.000000	 94.913416 
674.000000	 95.061892 
673.000000	 95.170349 
672.000000	 95.231717 
671.000000	 95.332442 
670.000000	 95.586538 
669.000000	 96.007550 
668.000000	 96.303888 
667.000000	 96.255590 
666.000000	 96.106505 
665.000000	 96.065968 
664.000000	 96.112349 
663.000000	 96.197584 
662.000000	 96.292320 
661.000000	 96.389861 
660.000000	 96.493082 
659.000000	 96.607582 
658.000000	 96.719124 
657.000000	 96.788976 
656.000000	 96.796024 
655.000000	 96.770519 
654.000000	 96.737147 
653.000000	 96.682945 
652.000000	 96.617109 
651.000000	 96.597268 
650.000000	 96.656184 

