4000.000000	96.872057 
3999.000000	96.871623 
3998.000000	96.870685 
3997.000000	96.869611 
3996.000000	96.868704 
3995.000000	96.868118 
3994.000000	96.867895 
3993.000000	96.867858 
3992.000000	96.867685 
3991.000000	96.867213 
3990.000000	96.866625 
3989.000000	96.866238 
3988.000000	96.866104 
3987.000000	96.866053 
3986.000000	96.866042 
3985.000000	96.866232 
3984.000000	96.866629 
3983.000000	96.866901 
3982.000000	96.866851 
3981.000000	96.866723 
3980.000000	96.866766 
3979.000000	96.866743 
3978.000000	96.866241 
3977.000000	96.865326 
3976.000000	96.864555 
3975.000000	96.864217 
3974.000000	96.863974 
3973.000000	96.863368 
3972.000000	96.862284 
3971.000000	96.860935 
3970.000000	96.859664 
3969.000000	96.858941 
3968.000000	96.859156 
3967.000000	96.860252 
3966.000000	96.861646 
3965.000000	96.862510 
3964.000000	96.862243 
3963.000000	96.860811 
3962.000000	96.858853 
3961.000000	96.857343 
3960.000000	96.856741 
3959.000000	96.856683 
3958.000000	96.856528 
3957.000000	96.856154 
3956.000000	96.855817 
3955.000000	96.855536 
3954.000000	96.855054 
3953.000000	96.854179 
3952.000000	96.852986 
3951.000000	96.851565 
3950.000000	96.849947 
3949.000000	96.848285 
3948.000000	96.846942 
3947.000000	96.846348 
3946.000000	96.846607 
3945.000000	96.847226 
3944.000000	96.847362 
3943.000000	96.846788 
3942.000000	96.846251 
3941.000000	96.846534 
3940.000000	96.847519 
3939.000000	96.848412 
3938.000000	96.848637 
3937.000000	96.848430 
3936.000000	96.848207 
3935.000000	96.847729 
3934.000000	96.846475 
3933.000000	96.844544 
3932.000000	96.842826 
3931.000000	96.841939 
3930.000000	96.841712 
3929.000000	96.841877 
3928.000000	96.842392 
3927.000000	96.843052 
3926.000000	96.843239 
3925.000000	96.842693 
3924.000000	96.841943 
3923.000000	96.841516 
3922.000000	96.841288 
3921.000000	96.840973 
3920.000000	96.840605 
3919.000000	96.840327 
3918.000000	96.840081 
3917.000000	96.839763 
3916.000000	96.839419 
3915.000000	96.839124 
3914.000000	96.838858 
3913.000000	96.838581 
3912.000000	96.838287 
3911.000000	96.837980 
3910.000000	96.837660 
3909.000000	96.837327 
3908.000000	96.836972 
3907.000000	96.836578 
3906.000000	96.836125 
3905.000000	96.835613 
3904.000000	96.835057 
3903.000000	96.834488 
3902.000000	96.833930 
3901.000000	96.833397 
3900.000000	96.832889 
3899.000000	96.832401 
3898.000000	96.831931 
3897.000000	96.831473 
3896.000000	96.831016 
3895.000000	96.830552 
3894.000000	96.830083 
3893.000000	96.829617 
3892.000000	96.829152 
3891.000000	96.828683 
3890.000000	96.828217 
3889.000000	96.827762 
3888.000000	96.827317 
3887.000000	96.826871 
3886.000000	96.826412 
3885.000000	96.825945 
3884.000000	96.825474 
3883.000000	96.824991 
3882.000000	96.824485 
3881.000000	96.823963 
3880.000000	96.823452 
3879.000000	96.822975 
3878.000000	96.822538 
3877.000000	96.822122 
3876.000000	96.821709 
3875.000000	96.821288 
3874.000000	96.820864 
3873.000000	96.820445 
3872.000000	96.820031 
3871.000000	96.819615 
3870.000000	96.819207 
3869.000000	96.818833 
3868.000000	96.818511 
3867.000000	96.818228 
3866.000000	96.817968 
3865.000000	96.817738 
3864.000000	96.817560 
3863.000000	96.817435 
3862.000000	96.817340 
3861.000000	96.817253 
3860.000000	96.817167 
3859.000000	96.817078 
3858.000000	96.816976 
3857.000000	96.816860 
3856.000000	96.816736 
3855.000000	96.816612 
3854.000000	96.816494 
3853.000000	96.816399 
3852.000000	96.816342 
3851.000000	96.816319 
3850.000000	96.816323 
3849.000000	96.816349 
3848.000000	96.816392 
3847.000000	96.816441 
3846.000000	96.816482 
3845.000000	96.816507 
3844.000000	96.816518 
3843.000000	96.816522 
3842.000000	96.816537 
3841.000000	96.816580 
3840.000000	96.816660 
3839.000000	96.816771 
3838.000000	96.816898 
3837.000000	96.817025 
3836.000000	96.817144 
3835.000000	96.817260 
3834.000000	96.817383 
3833.000000	96.817520 
3832.000000	96.817676 
3831.000000	96.817849 
3830.000000	96.818035 
3829.000000	96.818229 
3828.000000	96.818427 
3827.000000	96.818618 
3826.000000	96.818791 
3825.000000	96.818950 
3824.000000	96.819103 
3823.000000	96.819248 
3822.000000	96.819371 
3821.000000	96.819474 
3820.000000	96.819582 
3819.000000	96.819719 
3818.000000	96.819886 
3817.000000	96.820065 
3816.000000	96.820253 
3815.000000	96.820459 
3814.000000	96.820679 
3813.000000	96.820893 
3812.000000	96.821087 
3811.000000	96.821266 
3810.000000	96.821441 
3809.000000	96.821606 
3808.000000	96.821745 
3807.000000	96.821846 
3806.000000	96.821921 
3805.000000	96.821999 
3804.000000	96.822095 
3803.000000	96.822211 
3802.000000	96.822344 
3801.000000	96.822501 
3800.000000	96.822683 
3799.000000	96.822867 
3798.000000	96.823029 
3797.000000	96.823164 
3796.000000	96.823285 
3795.000000	96.823390 
3794.000000	96.823464 
3793.000000	96.823489 
3792.000000	96.823461 
3791.000000	96.823382 
3790.000000	96.823249 
3789.000000	96.823062 
3788.000000	96.822826 
3787.000000	96.822542 
3786.000000	96.822207 
3785.000000	96.821827 
3784.000000	96.821412 
3783.000000	96.820965 
3782.000000	96.820475 
3781.000000	96.819933 
3780.000000	96.819350 
3779.000000	96.818745 
3778.000000	96.818111 
3777.000000	96.817431 
3776.000000	96.816693 
3775.000000	96.815902 
3774.000000	96.815074 
3773.000000	96.814228 
3772.000000	96.813364 
3771.000000	96.812468 
3770.000000	96.811532 
3769.000000	96.810593 
3768.000000	96.809688 
3767.000000	96.808764 
3766.000000	96.807728 
3765.000000	96.806584 
3764.000000	96.805531 
3763.000000	96.804779 
3762.000000	96.804192 
3761.000000	96.803329 
3760.000000	96.802112 
3759.000000	96.801095 
3758.000000	96.800187 
3757.000000	96.798517 
3756.000000	96.796022 
3755.000000	96.793497 
3754.000000	96.790971 
3753.000000	96.787608 
3752.000000	96.784468 
3751.000000	96.783624 
3750.000000	96.783244 
3749.000000	96.780388 
3748.000000	96.777597 
3747.000000	96.778999 
3746.000000	96.781681 
3745.000000	96.778676 
3744.000000	96.774121 
3743.000000	96.775480 
3742.000000	96.778328 
3741.000000	96.775106 
3740.000000	96.766809 
3739.000000	96.762864 
3738.000000	96.767164 
3737.000000	96.770734 
3736.000000	96.766260 
3735.000000	96.760933 
3734.000000	96.763969 
3733.000000	96.770671 
3732.000000	96.772537 
3731.000000	96.770400 
3730.000000	96.769554 
3729.000000	96.770205 
3728.000000	96.767444 
3727.000000	96.759755 
3726.000000	96.753710 
3725.000000	96.754111 
3724.000000	96.756793 
3723.000000	96.756365 
3722.000000	96.754073 
3721.000000	96.753484 
3720.000000	96.753625 
3719.000000	96.751665 
3718.000000	96.745734 
3717.000000	96.737792 
3716.000000	96.732139 
3715.000000	96.728296 
3714.000000	96.720497 
3713.000000	96.705484 
3712.000000	96.688632 
3711.000000	96.677715 
3710.000000	96.672375 
3709.000000	96.667701 
3708.000000	96.660047 
3707.000000	96.648376 
3706.000000	96.634632 
3705.000000	96.621381 
3704.000000	96.608963 
3703.000000	96.595292 
3702.000000	96.578187 
3701.000000	96.557400 
3700.000000	96.534677 
3699.000000	96.512261 
3698.000000	96.490377 
3697.000000	96.469322 
3696.000000	96.454123 
3695.000000	96.448388 
3694.000000	96.447318 
3693.000000	96.444203 
3692.000000	96.439638 
3691.000000	96.439237 
3690.000000	96.442692 
3689.000000	96.444555 
3688.000000	96.442780 
3687.000000	96.439614 
3686.000000	96.435263 
3685.000000	96.425708 
3684.000000	96.410575 
3683.000000	96.397869 
3682.000000	96.393516 
3681.000000	96.389507 
3680.000000	96.375220 
3679.000000	96.353954 
3678.000000	96.337138 
3677.000000	96.320489 
3676.000000	96.292416 
3675.000000	96.261613 
3674.000000	96.241073 
3673.000000	96.227983 
3672.000000	96.210306 
3671.000000	96.182075 
3670.000000	96.156185 
3669.000000	96.146103 
3668.000000	96.141594 
3667.000000	96.127033 
3666.000000	96.102206 
3665.000000	96.075842 
3664.000000	96.053747 
3663.000000	96.034924 
3662.000000	96.014167 
3661.000000	95.988163 
3660.000000	95.959633 
3659.000000	95.932321 
3658.000000	95.905786 
3657.000000	95.874922 
3656.000000	95.840448 
3655.000000	95.809987 
3654.000000	95.787384 
3653.000000	95.767980 
3652.000000	95.741774 
3651.000000	95.704609 
3650.000000	95.666530 
3649.000000	95.637879 
3648.000000	95.615229 
3647.000000	95.594036 
3646.000000	95.577088 
3645.000000	95.566022 
3644.000000	95.556332 
3643.000000	95.543030 
3642.000000	95.525787 
3641.000000	95.508261 
3640.000000	95.491677 
3639.000000	95.473001 
3638.000000	95.451500 
3637.000000	95.429881 
3636.000000	95.407916 
3635.000000	95.379216 
3634.000000	95.341655 
3633.000000	95.304029 
3632.000000	95.275672 
3631.000000	95.252314 
3630.000000	95.222069 
3629.000000	95.192645 
3628.000000	95.181594 
3627.000000	95.181680 
3626.000000	95.173568 
3625.000000	95.153210 
3624.000000	95.131872 
3623.000000	95.122190 
3622.000000	95.124481 
3621.000000	95.126589 
3620.000000	95.119430 
3619.000000	95.108484 
3618.000000	95.104074 
3617.000000	95.110520 
3616.000000	95.127441 
3615.000000	95.150299 
3614.000000	95.173747 
3613.000000	95.196984 
3612.000000	95.221288 
3611.000000	95.243365 
3610.000000	95.257290 
3609.000000	95.263116 
3608.000000	95.268791 
3607.000000	95.280697 
3606.000000	95.296825 
3605.000000	95.313812 
3604.000000	95.332883 
3603.000000	95.355910 
3602.000000	95.380275 
3601.000000	95.399418 
3600.000000	95.410633 
3599.000000	95.416222 
3598.000000	95.419793 
3597.000000	95.424526 
3596.000000	95.433931 
3595.000000	95.447511 
3594.000000	95.460990 
3593.000000	95.469987 
3592.000000	95.473634 
3591.000000	95.474466 
3590.000000	95.473871 
3589.000000	95.470931 
3588.000000	95.467783 
3587.000000	95.470397 
3586.000000	95.480134 
3585.000000	95.492387 
3584.000000	95.503477 
3583.000000	95.512938 
3582.000000	95.522037 
3581.000000	95.530781 
3580.000000	95.537720 
3579.000000	95.541233 
3578.000000	95.541447 
3577.000000	95.540708 
3576.000000	95.541780 
3575.000000	95.545236 
3574.000000	95.548507 
3573.000000	95.548861 
3572.000000	95.545638 
3571.000000	95.540287 
3570.000000	95.533334 
3569.000000	95.522990 
3568.000000	95.510071 
3567.000000	95.501672 
3566.000000	95.503327 
3565.000000	95.512190 
3564.000000	95.521593 
3563.000000	95.527353 
3562.000000	95.529182 
3561.000000	95.529083 
3560.000000	95.529022 
3559.000000	95.529924 
3558.000000	95.531719 
3557.000000	95.534000 
3556.000000	95.536103 
3555.000000	95.537156 
3554.000000	95.536524 
3553.000000	95.534896 
3552.000000	95.534154 
3551.000000	95.535204 
3550.000000	95.536926 
3549.000000	95.537743 
3548.000000	95.537503 
3547.000000	95.537056 
3546.000000	95.536474 
3545.000000	95.535102 
3544.000000	95.533394 
3543.000000	95.532960 
3542.000000	95.534486 
3541.000000	95.537143 
3540.000000	95.539780 
3539.000000	95.541780 
3538.000000	95.542885 
3537.000000	95.543058 
3536.000000	95.542676 
3535.000000	95.542204 
3534.000000	95.541934 
3533.000000	95.541967 
3532.000000	95.542362 
3531.000000	95.543090 
3530.000000	95.543973 
3529.000000	95.544734 
3528.000000	95.545143 
3527.000000	95.545130 
3526.000000	95.544818 
3525.000000	95.544488 
3524.000000	95.544524 
3523.000000	95.545251 
3522.000000	95.546589 
3521.000000	95.548065 
3520.000000	95.549244 
3519.000000	95.550092 
3518.000000	95.550808 
3517.000000	95.551378 
3516.000000	95.551542 
3515.000000	95.551261 
3514.000000	95.551033 
3513.000000	95.551435 
3512.000000	95.552386 
3511.000000	95.553143 
3510.000000	95.553122 
3509.000000	95.552533 
3508.000000	95.552150 
3507.000000	95.552500 
3506.000000	95.553368 
3505.000000	95.554018 
3504.000000	95.553892 
3503.000000	95.553033 
3502.000000	95.551968 
3501.000000	95.551293 
3500.000000	95.551325 
3499.000000	95.551884 
3498.000000	95.552343 
3497.000000	95.552105 
3496.000000	95.551000 
3495.000000	95.549239 
3494.000000	95.547252 
3493.000000	95.545617 
3492.000000	95.544815 
3491.000000	95.544825 
3490.000000	95.545160 
3489.000000	95.545362 
3488.000000	95.545243 
3487.000000	95.544577 
3486.000000	95.542973 
3485.000000	95.540492 
3484.000000	95.538055 
3483.000000	95.536628 
3482.000000	95.536171 
3481.000000	95.535767 
3480.000000	95.534746 
3479.000000	95.533214 
3478.000000	95.531434 
3477.000000	95.529232 
3476.000000	95.526271 
3475.000000	95.522679 
3474.000000	95.519163 
3473.000000	95.516586 
3472.000000	95.515390 
3471.000000	95.515228 
3470.000000	95.515108 
3469.000000	95.514081 
3468.000000	95.511889 
3467.000000	95.509068 
3466.000000	95.506378 
3465.000000	95.503982 
3464.000000	95.501292 
3463.000000	95.497673 
3462.000000	95.493277 
3461.000000	95.489063 
3460.000000	95.485912 
3459.000000	95.483744 
3458.000000	95.481561 
3457.000000	95.478288 
3456.000000	95.473714 
3455.000000	95.468726 
3454.000000	95.464739 
3453.000000	95.462631 
3452.000000	95.462325 
3451.000000	95.463011 
3450.000000	95.463478 
3449.000000	95.462488 
3448.000000	95.459304 
3447.000000	95.454227 
3446.000000	95.448422 
3445.000000	95.443081 
3444.000000	95.438743 
3443.000000	95.435330 
3442.000000	95.432453 
3441.000000	95.429595 
3440.000000	95.426314 
3439.000000	95.422468 
3438.000000	95.418286 
3437.000000	95.414160 
3436.000000	95.410553 
3435.000000	95.408010 
3434.000000	95.406897 
3433.000000	95.406857 
3432.000000	95.406962 
3431.000000	95.406529 
3430.000000	95.405489 
3429.000000	95.404001 
3428.000000	95.401890 
3427.000000	95.398778 
3426.000000	95.394773 
3425.000000	95.390823 
3424.000000	95.388096 
3423.000000	95.386887 
3422.000000	95.386332 
3421.000000	95.385406 
3420.000000	95.383957 
3419.000000	95.382491 
3418.000000	95.381286 
3417.000000	95.380233 
3416.000000	95.379313 
3415.000000	95.378618 
3414.000000	95.377851 
3413.000000	95.376368 
3412.000000	95.374015 
3411.000000	95.371552 
3410.000000	95.369994 
3409.000000	95.369701 
3408.000000	95.370169 
3407.000000	95.370429 
3406.000000	95.369686 
3405.000000	95.367925 
3404.000000	95.366010 
3403.000000	95.364845 
3402.000000	95.364436 
3401.000000	95.363991 
3400.000000	95.362984 
3399.000000	95.361767 
3398.000000	95.361036 
3397.000000	95.361024 
3396.000000	95.361403 
3395.000000	95.361769 
3394.000000	95.361947 
3393.000000	95.361835 
3392.000000	95.361241 
3391.000000	95.360063 
3390.000000	95.358667 
3389.000000	95.357917 
3388.000000	95.358580 
3387.000000	95.360661 
3386.000000	95.363267 
3385.000000	95.365131 
3384.000000	95.365541 
3383.000000	95.364789 
3382.000000	95.364006 
3381.000000	95.364323 
3380.000000	95.365949 
3379.000000	95.368061 
3378.000000	95.369665 
3377.000000	95.370646 
3376.000000	95.371660 
3375.000000	95.373118 
3374.000000	95.374633 
3373.000000	95.375609 
3372.000000	95.376105 
3371.000000	95.376839 
3370.000000	95.378399 
3369.000000	95.380648 
3368.000000	95.382875 
3367.000000	95.384448 
3366.000000	95.385321 
3365.000000	95.385991 
3364.000000	95.386999 
3363.000000	95.388477 
3362.000000	95.390210 
3361.000000	95.392047 
3360.000000	95.394084 
3359.000000	95.396411 
3358.000000	95.398860 
3357.000000	95.401133 
3356.000000	95.403116 
3355.000000	95.404991 
3354.000000	95.407092 
3353.000000	95.409662 
3352.000000	95.412626 
3351.000000	95.415544 
3350.000000	95.417910 
3349.000000	95.419585 
3348.000000	95.420958 
3347.000000	95.422644 
3346.000000	95.424954 
3345.000000	95.427705 
3344.000000	95.430387 
3343.000000	95.432568 
3342.000000	95.434192 
3341.000000	95.435624 
3340.000000	95.437303 
3339.000000	95.439267 
3338.000000	95.441221 
3337.000000	95.442975 
3336.000000	95.444696 
3335.000000	95.446675 
3334.000000	95.448963 
3333.000000	95.451346 
3332.000000	95.453629 
3331.000000	95.455819 
3330.000000	95.457997 
3329.000000	95.460160 
3328.000000	95.462282 
3327.000000	95.464438 
3326.000000	95.466744 
3325.000000	95.469196 
3324.000000	95.471644 
3323.000000	95.473936 
3322.000000	95.476068 
3321.000000	95.478154 
3320.000000	95.480313 
3319.000000	95.482565 
3318.000000	95.484867 
3317.000000	95.487182 
3316.000000	95.489495 
3315.000000	95.491783 
3314.000000	95.494011 
3313.000000	95.496175 
3312.000000	95.498331 
3311.000000	95.500555 
3310.000000	95.502889 
3309.000000	95.505316 
3308.000000	95.507745 
3307.000000	95.510040 
3306.000000	95.512129 
3305.000000	95.514063 
3304.000000	95.515986 
3303.000000	95.518037 
3302.000000	95.520258 
3301.000000	95.522617 
3300.000000	95.525025 
3299.000000	95.527383 
3298.000000	95.529639 
3297.000000	95.531810 
3296.000000	95.533978 
3295.000000	95.536228 
3294.000000	95.538587 
3293.000000	95.541020 
3292.000000	95.543470 
3291.000000	95.545890 
3290.000000	95.548259 
3289.000000	95.550604 
3288.000000	95.552981 
3287.000000	95.555407 
3286.000000	95.557788 
3285.000000	95.559964 
3284.000000	95.561866 
3283.000000	95.563669 
3282.000000	95.565716 
3281.000000	95.568222 
3280.000000	95.571069 
3279.000000	95.573869 
3278.000000	95.576384 
3277.000000	95.578771 
3276.000000	95.581379 
3275.000000	95.584325 
3274.000000	95.587364 
3273.000000	95.590212 
3272.000000	95.592904 
3271.000000	95.595713 
3270.000000	95.598739 
3269.000000	95.601723 
3268.000000	95.604309 
3267.000000	95.606423 
3266.000000	95.608373 
3265.000000	95.610613 
3264.000000	95.613381 
3263.000000	95.616517 
3262.000000	95.619641 
3261.000000	95.622581 
3260.000000	95.625451 
3259.000000	95.628266 
3258.000000	95.630741 
3257.000000	95.632706 
3256.000000	95.634579 
3255.000000	95.637078 
3254.000000	95.640418 
3253.000000	95.644131 
3252.000000	95.647672 
3251.000000	95.650932 
3250.000000	95.654006 
3249.000000	95.656748 
3248.000000	95.658898 
3247.000000	95.660638 
3246.000000	95.662686 
3245.000000	95.665628 
3244.000000	95.669240 
3243.000000	95.672674 
3242.000000	95.675376 
3241.000000	95.677677 
3240.000000	95.680362 
3239.000000	95.683875 
3238.000000	95.688108 
3237.000000	95.692780 
3236.000000	95.697731 
3235.000000	95.702721 
3234.000000	95.707201 
3233.000000	95.710554 
3232.000000	95.712677 
3231.000000	95.714300 
3230.000000	95.716519 
3229.000000	95.719803 
3228.000000	95.723594 
3227.000000	95.727076 
3226.000000	95.730281 
3225.000000	95.734071 
3224.000000	95.738911 
3223.000000	95.744011 
3222.000000	95.748077 
3221.000000	95.750796 
3220.000000	95.752948 
3219.000000	95.755419 
3218.000000	95.758377 
3217.000000	95.761552 
3216.000000	95.764801 
3215.000000	95.768174 
3214.000000	95.771660 
3213.000000	95.775096 
3212.000000	95.778320 
3211.000000	95.781322 
3210.000000	95.784281 
3209.000000	95.787467 
3208.000000	95.791029 
3207.000000	95.794817 
3206.000000	95.798489 
3205.000000	95.801834 
3204.000000	95.804987 
3203.000000	95.808288 
3202.000000	95.811975 
3201.000000	95.815986 
3200.000000	95.820033 
3199.000000	95.823844 
3198.000000	95.827369 
3197.000000	95.830772 
3196.000000	95.834256 
3195.000000	95.837917 
3194.000000	95.841760 
3193.000000	95.845765 
3192.000000	95.849878 
3191.000000	95.853958 
3190.000000	95.857831 
3189.000000	95.861428 
3188.000000	95.864870 
3187.000000	95.868414 
3186.000000	95.872240 
3185.000000	95.876271 
3184.000000	95.880229 
3183.000000	95.883905 
3182.000000	95.887379 
3181.000000	95.890951 
3180.000000	95.894838 
3179.000000	95.898990 
3178.000000	95.903156 
3177.000000	95.907113 
3176.000000	95.910826 
3175.000000	95.914425 
3174.000000	95.918076 
3173.000000	95.921852 
3172.000000	95.925707 
3171.000000	95.929532 
3170.000000	95.933250 
3169.000000	95.936857 
3168.000000	95.940376 
3167.000000	95.943832 
3166.000000	95.947286 
3165.000000	95.950823 
3164.000000	95.954442 
3163.000000	95.958017 
3162.000000	95.961433 
3161.000000	95.964757 
3160.000000	95.968204 
3159.000000	95.971898 
3158.000000	95.975763 
3157.000000	95.979628 
3156.000000	95.983403 
3155.000000	95.987098 
3154.000000	95.990752 
3153.000000	95.994393 
3152.000000	95.998040 
3151.000000	96.001697 
3150.000000	96.005351 
3149.000000	96.008965 
3148.000000	96.012510 
3147.000000	96.015990 
3146.000000	96.019460 
3145.000000	96.022998 
3144.000000	96.026644 
3143.000000	96.030359 
3142.000000	96.034020 
3141.000000	96.037526 
3140.000000	96.040876 
3139.000000	96.044177 
3138.000000	96.047541 
3137.000000	96.050980 
3136.000000	96.054432 
3135.000000	96.057833 
3134.000000	96.061179 
3133.000000	96.064506 
3132.000000	96.067846 
3131.000000	96.071206 
3130.000000	96.074614 
3129.000000	96.078117 
3128.000000	96.081727 
3127.000000	96.085358 
3126.000000	96.088913 
3125.000000	96.092398 
3124.000000	96.095911 
3123.000000	96.099508 
3122.000000	96.103116 
3121.000000	96.106630 
3120.000000	96.110036 
3119.000000	96.113378 
3118.000000	96.116665 
3117.000000	96.119912 
3116.000000	96.123205 
3115.000000	96.126641 
3114.000000	96.130204 
3113.000000	96.133794 
3112.000000	96.137385 
3111.000000	96.141034 
3110.000000	96.144693 
3109.000000	96.148112 
3108.000000	96.151082 
3107.000000	96.153752 
3106.000000	96.156556 
3105.000000	96.159740 
3104.000000	96.163040 
3103.000000	96.165942 
3102.000000	96.168214 
3101.000000	96.170118 
3100.000000	96.172088 
3099.000000	96.174406 
3098.000000	96.177289 
3097.000000	96.180906 
3096.000000	96.185140 
3095.000000	96.189382 
3094.000000	96.192988 
3093.000000	96.195896 
3092.000000	96.198535 
3091.000000	96.201213 
3090.000000	96.203807 
3089.000000	96.206101 
3088.000000	96.208135 
3087.000000	96.210206 
3086.000000	96.212683 
3085.000000	96.215803 
3084.000000	96.219397 
3083.000000	96.222804 
3082.000000	96.225384 
3081.000000	96.227099 
3080.000000	96.228517 
3079.000000	96.230160 
3078.000000	96.232010 
3077.000000	96.233923 
3076.000000	96.236148 
3075.000000	96.238946 
3074.000000	96.241929 
3073.000000	96.244338 
3072.000000	96.246042 
3071.000000	96.247720 
3070.000000	96.250029 
3069.000000	96.252986 
3068.000000	96.256126 
3067.000000	96.258835 
3066.000000	96.260608 
3065.000000	96.261498 
3064.000000	96.262263 
3063.000000	96.263619 
3062.000000	96.265423 
3061.000000	96.266982 
3060.000000	96.267975 
3059.000000	96.268678 
3058.000000	96.269629 
3057.000000	96.271555 
3056.000000	96.275120 
3055.000000	96.279883 
3054.000000	96.283914 
3053.000000	96.285564 
3052.000000	96.285528 
3051.000000	96.286264 
3050.000000	96.289143 
3049.000000	96.293084 
3048.000000	96.296162 
3047.000000	96.297554 
3046.000000	96.297535 
3045.000000	96.296624 
3044.000000	96.295602 
3043.000000	96.295797 
3042.000000	96.298363 
3041.000000	96.302989 
3040.000000	96.307640 
3039.000000	96.310019 
3038.000000	96.309315 
3037.000000	96.306522 
3036.000000	96.303323 
3035.000000	96.300626 
3034.000000	96.298336 
3033.000000	96.296300 
3032.000000	96.294869 
3031.000000	96.294457 
3030.000000	96.294961 
3029.000000	96.295670 
3028.000000	96.295346 
3027.000000	96.292648 
3026.000000	96.287363 
3025.000000	96.281486 
3024.000000	96.278080 
3023.000000	96.278294 
3022.000000	96.280176 
3021.000000	96.281100 
3020.000000	96.280766 
3019.000000	96.280719 
3018.000000	96.281418 
3017.000000	96.281269 
3016.000000	96.278800 
3015.000000	96.274578 
3014.000000	96.270623 
3013.000000	96.268541 
3012.000000	96.268397 
3011.000000	96.268731 
3010.000000	96.267485 
3009.000000	96.263517 
3008.000000	96.257398 
3007.000000	96.250570 
3006.000000	96.243889 
3005.000000	96.237542 
3004.000000	96.232135 
3003.000000	96.228935 
3002.000000	96.228842 
3001.000000	96.231554 
3000.000000	96.235515 
2999.000000	96.238106 
2998.000000	96.236540 
2997.000000	96.229886 
2996.000000	96.220531 
2995.000000	96.212743 
2994.000000	96.209079 
2993.000000	96.208796 
2992.000000	96.209478 
2991.000000	96.209327 
2990.000000	96.207816 
2989.000000	96.205204 
2988.000000	96.202238 
2987.000000	96.199897 
2986.000000	96.198972 
2985.000000	96.200002 
2984.000000	96.203298 
2983.000000	96.208363 
2982.000000	96.213501 
2981.000000	96.216882 
2980.000000	96.218104 
2979.000000	96.217973 
2978.000000	96.216963 
2977.000000	96.215106 
2976.000000	96.213383 
2975.000000	96.213648 
2974.000000	96.216454 
2973.000000	96.220170 
2972.000000	96.223033 
2971.000000	96.225212 
2970.000000	96.227967 
2969.000000	96.231671 
2968.000000	96.235645 
2967.000000	96.239352 
2966.000000	96.242869 
2965.000000	96.246561 
2964.000000	96.250973 
2963.000000	96.256555 
2962.000000	96.262705 
2961.000000	96.267513 
2960.000000	96.269450 
2959.000000	96.269427 
2958.000000	96.270612 
2957.000000	96.275896 
2956.000000	96.285443 
2955.000000	96.296252 
2954.000000	96.304167 
2953.000000	96.307243 
2952.000000	96.307463 
2951.000000	96.308950 
2950.000000	96.313954 
2949.000000	96.321073 
2948.000000	96.327697 
2947.000000	96.332983 
2946.000000	96.337532 
2945.000000	96.341193 
2944.000000	96.342897 
2943.000000	96.342581 
2942.000000	96.341742 
2941.000000	96.341505 
2940.000000	96.341373 
2939.000000	96.340475 
2938.000000	96.339100 
2937.000000	96.338296 
2936.000000	96.338552 
2935.000000	96.339483 
2934.000000	96.340431 
2933.000000	96.340822 
2932.000000	96.340259 
2931.000000	96.338868 
2930.000000	96.337502 
2929.000000	96.337208 
2928.000000	96.338439 
2927.000000	96.340853 
2926.000000	96.343702 
2925.000000	96.346200 
2924.000000	96.347771 
2923.000000	96.348367 
2922.000000	96.348608 
2921.000000	96.349462 
2920.000000	96.351671 
2919.000000	96.355409 
2918.000000	96.360121 
2917.000000	96.364469 
2916.000000	96.366808 
2915.000000	96.366285 
2914.000000	96.363711 
2913.000000	96.361162 
2912.000000	96.360331 
2911.000000	96.361312 
2910.000000	96.362991 
2909.000000	96.364413 
2908.000000	96.365674 
2907.000000	96.367522 
2906.000000	96.370192 
2905.000000	96.372823 
2904.000000	96.373989 
2903.000000	96.373316 
2902.000000	96.372343 
2901.000000	96.373342 
2900.000000	96.377331 
2899.000000	96.383213 
2898.000000	96.388946 
2897.000000	96.393375 
2896.000000	96.396575 
2895.000000	96.398783 
2894.000000	96.400005 
2893.000000	96.400759 
2892.000000	96.402324 
2891.000000	96.405533 
2890.000000	96.409705 
2889.000000	96.413404 
2888.000000	96.416110 
2887.000000	96.418454 
2886.000000	96.420889 
2885.000000	96.423036 
2884.000000	96.424723 
2883.000000	96.426851 
2882.000000	96.430454 
2881.000000	96.435396 
2880.000000	96.440667 
2879.000000	96.445777 
2878.000000	96.451063 
2877.000000	96.456602 
2876.000000	96.461670 
2875.000000	96.465581 
2874.000000	96.468462 
2873.000000	96.470843 
2872.000000	96.473007 
2871.000000	96.475166 
2870.000000	96.477857 
2869.000000	96.481489 
2868.000000	96.485624 
2867.000000	96.489301 
2866.000000	96.492098 
2865.000000	96.494395 
2864.000000	96.496703 
2863.000000	96.499348 
2862.000000	96.502879 
2861.000000	96.507948 
2860.000000	96.514305 
2859.000000	96.520533 
2858.000000	96.525435 
2857.000000	96.529347 
2856.000000	96.533522 
2855.000000	96.538353 
2854.000000	96.542886 
2853.000000	96.546168 
2852.000000	96.548418 
2851.000000	96.550713 
2850.000000	96.553920 
2849.000000	96.558159 
2848.000000	96.562994 
2847.000000	96.567761 
2846.000000	96.571736 
2845.000000	96.574314 
2844.000000	96.575326 
2843.000000	96.575411 
2842.000000	96.576040 
2841.000000	96.578611 
2840.000000	96.583170 
2839.000000	96.588110 
2838.000000	96.591577 
2837.000000	96.593238 
2836.000000	96.594313 
2835.000000	96.596018 
2834.000000	96.598386 
2833.000000	96.600833 
2832.000000	96.603264 
2831.000000	96.606077 
2830.000000	96.609307 
2829.000000	96.612287 
2828.000000	96.614291 
2827.000000	96.615307 
2826.000000	96.616086 
2825.000000	96.617452 
2824.000000	96.619514 
2823.000000	96.621579 
2822.000000	96.622955 
2821.000000	96.623793 
2820.000000	96.624922 
2819.000000	96.626813 
2818.000000	96.628998 
2817.000000	96.630713 
2816.000000	96.631860 
2815.000000	96.633014 
2814.000000	96.634565 
2813.000000	96.636270 
2812.000000	96.637726 
2811.000000	96.638963 
2810.000000	96.640363 
2809.000000	96.642125 
2808.000000	96.644095 
2807.000000	96.646099 
2806.000000	96.648230 
2805.000000	96.650645 
2804.000000	96.653156 
2803.000000	96.655270 
2802.000000	96.656724 
2801.000000	96.657851 
2800.000000	96.659284 
2799.000000	96.661174 
2798.000000	96.662914 
2797.000000	96.663834 
2796.000000	96.663916 
2795.000000	96.663785 
2794.000000	96.664173 
2793.000000	96.665357 
2792.000000	96.667165 
2791.000000	96.669218 
2790.000000	96.671153 
2789.000000	96.672726 
2788.000000	96.673870 
2787.000000	96.674753 
2786.000000	96.675743 
2785.000000	96.677126 
2784.000000	96.678800 
2783.000000	96.680333 
2782.000000	96.681402 
2781.000000	96.682138 
2780.000000	96.682957 
2779.000000	96.684089 
2778.000000	96.685413 
2777.000000	96.686746 
2776.000000	96.688120 
2775.000000	96.689715 
2774.000000	96.691564 
2773.000000	96.693399 
2772.000000	96.694859 
2771.000000	96.695871 
2770.000000	96.696793 
2769.000000	96.698070 
2768.000000	96.699738 
2767.000000	96.701413 
2766.000000	96.702832 
2765.000000	96.704209 
2764.000000	96.705855 
2763.000000	96.707618 
2762.000000	96.708991 
2761.000000	96.709736 
2760.000000	96.710136 
2759.000000	96.710629 
2758.000000	96.711370 
2757.000000	96.712216 
2756.000000	96.712988 
2755.000000	96.713682 
2754.000000	96.714507 
2753.000000	96.715723 
2752.000000	96.717370 
2751.000000	96.719169 
2750.000000	96.720758 
2749.000000	96.721972 
2748.000000	96.722773 
2747.000000	96.723062 
2746.000000	96.722835 
2745.000000	96.722463 
2744.000000	96.722553 
2743.000000	96.723375 
2742.000000	96.724688 
2741.000000	96.726035 
2740.000000	96.727176 
2739.000000	96.728099 
2738.000000	96.728795 
2737.000000	96.729261 
2736.000000	96.729651 
2735.000000	96.730250 
2734.000000	96.731196 
2733.000000	96.732366 
2732.000000	96.733518 
2731.000000	96.734546 
2730.000000	96.735530 
2729.000000	96.736554 
2728.000000	96.737545 
2727.000000	96.738326 
2726.000000	96.738851 
2725.000000	96.739282 
2724.000000	96.739828 
2723.000000	96.740522 
2722.000000	96.741249 
2721.000000	96.741922 
2720.000000	96.742562 
2719.000000	96.743236 
2718.000000	96.743955 
2717.000000	96.744679 
2716.000000	96.745371 
2715.000000	96.746037 
2714.000000	96.746713 
2713.000000	96.747426 
2712.000000	96.748150 
2711.000000	96.748811 
2710.000000	96.749375 
2709.000000	96.749910 
2708.000000	96.750520 
2707.000000	96.751236 
2706.000000	96.752028 
2705.000000	96.752888 
2704.000000	96.753796 
2703.000000	96.754593 
2702.000000	96.755058 
2701.000000	96.755241 
2700.000000	96.755621 
2699.000000	96.756688 
2698.000000	96.758440 
2697.000000	96.760243 
2696.000000	96.761343 
2695.000000	96.761498 
2694.000000	96.761125 
2693.000000	96.760888 
2692.000000	96.761042 
2691.000000	96.761308 
2690.000000	96.761397 
2689.000000	96.761425 
2688.000000	96.761573 
2687.000000	96.761597 
2686.000000	96.761210 
2685.000000	96.760862 
2684.000000	96.761476 
2683.000000	96.763239 
2682.000000	96.765240 
2681.000000	96.766577 
2680.000000	96.767260 
2679.000000	96.767706 
2678.000000	96.767985 
2677.000000	96.768148 
2676.000000	96.768716 
2675.000000	96.770048 
2674.000000	96.771551 
2673.000000	96.772295 
2672.000000	96.772159 
2671.000000	96.771633 
2670.000000	96.770778 
2669.000000	96.769297 
2668.000000	96.767548 
2667.000000	96.766554 
2666.000000	96.766667 
2665.000000	96.766902 
2664.000000	96.766017 
2663.000000	96.763873 
2662.000000	96.761395 
2661.000000	96.759409 
2660.000000	96.757868 
2659.000000	96.756216 
2658.000000	96.754292 
2657.000000	96.752673 
2656.000000	96.752007 
2655.000000	96.752086 
2654.000000	96.751898 
2653.000000	96.750758 
2652.000000	96.749186 
2651.000000	96.748402 
2650.000000	96.749077 
2649.000000	96.750751 
2648.000000	96.752294 
2647.000000	96.752681 
2646.000000	96.751429 
2645.000000	96.748708 
2644.000000	96.745276 
2643.000000	96.742187 
2642.000000	96.740241 
2641.000000	96.739575 
2640.000000	96.739706 
2639.000000	96.739952 
2638.000000	96.739952 
2637.000000	96.739820 
2636.000000	96.739839 
2635.000000	96.740119 
2634.000000	96.740545 
2633.000000	96.740926 
2632.000000	96.741063 
2631.000000	96.740776 
2630.000000	96.740061 
2629.000000	96.739165 
2628.000000	96.738395 
2627.000000	96.737857 
2626.000000	96.737549 
2625.000000	96.737629 
2624.000000	96.738336 
2623.000000	96.739585 
2622.000000	96.740818 
2621.000000	96.741395 
2620.000000	96.741084 
2619.000000	96.740112 
2618.000000	96.738932 
2617.000000	96.737977 
2616.000000	96.737490 
2615.000000	96.737441 
2614.000000	96.737602 
2613.000000	96.737765 
2612.000000	96.737909 
2611.000000	96.738162 
2610.000000	96.738632 
2609.000000	96.739240 
2608.000000	96.739654 
2607.000000	96.739511 
2606.000000	96.738841 
2605.000000	96.738228 
2604.000000	96.738321 
2603.000000	96.739184 
2602.000000	96.740282 
2601.000000	96.741138 
2600.000000	96.741755 
2599.000000	96.742217 
2598.000000	96.742321 
2597.000000	96.741877 
2596.000000	96.741061 
2595.000000	96.740219 
2594.000000	96.739462 
2593.000000	96.738845 
2592.000000	96.738733 
2591.000000	96.739405 
2590.000000	96.740418 
2589.000000	96.740897 
2588.000000	96.740612 
2587.000000	96.740234 
2586.000000	96.740388 
2585.000000	96.740942 
2584.000000	96.741413 
2583.000000	96.741633 
2582.000000	96.741703 
2581.000000	96.741669 
2580.000000	96.741618 
2579.000000	96.741903 
2578.000000	96.742925 
2577.000000	96.744680 
2576.000000	96.746600 
2575.000000	96.747866 
2574.000000	96.747958 
2573.000000	96.747075 
2572.000000	96.746084 
2571.000000	96.745761 
2570.000000	96.746087 
2569.000000	96.746476 
2568.000000	96.746605 
2567.000000	96.746659 
2566.000000	96.746783 
2565.000000	96.746813 
2564.000000	96.746717 
2563.000000	96.746855 
2562.000000	96.747558 
2561.000000	96.748835 
2560.000000	96.750687 
2559.000000	96.753283 
2558.000000	96.756368 
2557.000000	96.758885 
2556.000000	96.759835 
2555.000000	96.759307 
2554.000000	96.758235 
2553.000000	96.757201 
2552.000000	96.756072 
2551.000000	96.754986 
2550.000000	96.754835 
2549.000000	96.756199 
2548.000000	96.758189 
2547.000000	96.759052 
2546.000000	96.758064 
2545.000000	96.756164 
2544.000000	96.754716 
2543.000000	96.753999 
2542.000000	96.753489 
2541.000000	96.753098 
2540.000000	96.753329 
2539.000000	96.754259 
2538.000000	96.755171 
2537.000000	96.755470 
2536.000000	96.755435 
2535.000000	96.755700 
2534.000000	96.756368 
2533.000000	96.757029 
2532.000000	96.757419 
2531.000000	96.757652 
2530.000000	96.757838 
2529.000000	96.757809 
2528.000000	96.757362 
2527.000000	96.756592 
2526.000000	96.755929 
2525.000000	96.755837 
2524.000000	96.756470 
2523.000000	96.757582 
2522.000000	96.758700 
2521.000000	96.759478 
2520.000000	96.759873 
2519.000000	96.759999 
2518.000000	96.759932 
2517.000000	96.759683 
2516.000000	96.759316 
2515.000000	96.758989 
2514.000000	96.758872 
2513.000000	96.759050 
2512.000000	96.759493 
2511.000000	96.760117 
2510.000000	96.760852 
2509.000000	96.761639 
2508.000000	96.762365 
2507.000000	96.762880 
2506.000000	96.763186 
2505.000000	96.763554 
2504.000000	96.764278 
2503.000000	96.765338 
2502.000000	96.766383 
2501.000000	96.767097 
2500.000000	96.767460 
2499.000000	96.767670 
2498.000000	96.767949 
2497.000000	96.768429 
2496.000000	96.769171 
2495.000000	96.770144 
2494.000000	96.771157 
2493.000000	96.771955 
2492.000000	96.772453 
2491.000000	96.772798 
2490.000000	96.773211 
2489.000000	96.773759 
2488.000000	96.774337 
2487.000000	96.774830 
2486.000000	96.775227 
2485.000000	96.775629 
2484.000000	96.776155 
2483.000000	96.776854 
2482.000000	96.777635 
2481.000000	96.778274 
2480.000000	96.778566 
2479.000000	96.778517 
2478.000000	96.778412 
2477.000000	96.778616 
2476.000000	96.779247 
2475.000000	96.780045 
2474.000000	96.780584 
2473.000000	96.780639 
2472.000000	96.780289 
2471.000000	96.779731 
2470.000000	96.779151 
2469.000000	96.778769 
2468.000000	96.778836 
2467.000000	96.779412 
2466.000000	96.780205 
2465.000000	96.780777 
2464.000000	96.780985 
2463.000000	96.781084 
2462.000000	96.781404 
2461.000000	96.782017 
2460.000000	96.782745 
2459.000000	96.783381 
2458.000000	96.783780 
2457.000000	96.783809 
2456.000000	96.783414 
2455.000000	96.782826 
2454.000000	96.782556 
2453.000000	96.782893 
2452.000000	96.783478 
2451.000000	96.783623 
2450.000000	96.783168 
2449.000000	96.782745 
2448.000000	96.782996 
2447.000000	96.783830 
2446.000000	96.784632 
2445.000000	96.785080 
2444.000000	96.785397 
2443.000000	96.785876 
2442.000000	96.786566 
2441.000000	96.787372 
2440.000000	96.788139 
2439.000000	96.788751 
2438.000000	96.789392 
2437.000000	96.790520 
2436.000000	96.792319 
2435.000000	96.794243 
2434.000000	96.795480 
2433.000000	96.795894 
2432.000000	96.796157 
2431.000000	96.796896 
2430.000000	96.798053 
2429.000000	96.799281 
2428.000000	96.800486 
2427.000000	96.801673 
2426.000000	96.802602 
2425.000000	96.802991 
2424.000000	96.802888 
2423.000000	96.802640 
2422.000000	96.802609 
2421.000000	96.803019 
2420.000000	96.803938 
2419.000000	96.805207 
2418.000000	96.806477 
2417.000000	96.807745 
2416.000000	96.809404 
2415.000000	96.811335 
2414.000000	96.812639 
2413.000000	96.813032 
2412.000000	96.813649 
2411.000000	96.815423 
2410.000000	96.817643 
2409.000000	96.819165 
2408.000000	96.820291 
2407.000000	96.822039 
2406.000000	96.824133 
2405.000000	96.825110 
2404.000000	96.824286 
2403.000000	96.822559 
2402.000000	96.821314 
2401.000000	96.821256 
2400.000000	96.822342 
2399.000000	96.824117 
2398.000000	96.826019 
2397.000000	96.827842 
2396.000000	96.829792 
2395.000000	96.831703 
2394.000000	96.832610 
2393.000000	96.831829 
2392.000000	96.830196 
2391.000000	96.829366 
2390.000000	96.829780 
2389.000000	96.830185 
2388.000000	96.829257 
2387.000000	96.826921 
2386.000000	96.823972 
2385.000000	96.821217 
2384.000000	96.819266 
2383.000000	96.818536 
2382.000000	96.819177 
2381.000000	96.821388 
2380.000000	96.825711 
2379.000000	96.832288 
2378.000000	96.839448 
2377.000000	96.843916 
2376.000000	96.843424 
2375.000000	96.838525 
2374.000000	96.831646 
2373.000000	96.824702 
2372.000000	96.818465 
2371.000000	96.813971 
2370.000000	96.812696 
2369.000000	96.814692 
2368.000000	96.817354 
2367.000000	96.817275 
2366.000000	96.813589 
2365.000000	96.808750 
2364.000000	96.805797 
2363.000000	96.805128 
2362.000000	96.804819 
2361.000000	96.803452 
2360.000000	96.800822 
2359.000000	96.797090 
2358.000000	96.793120 
2357.000000	96.791151 
2356.000000	96.792870 
2355.000000	96.797193 
2354.000000	96.801124 
2353.000000	96.801287 
2352.000000	96.796482 
2351.000000	96.787438 
2350.000000	96.775741 
2349.000000	96.764526 
2348.000000	96.757700 
2347.000000	96.755903 
2346.000000	96.753559 
2345.000000	96.746431 
2344.000000	96.736765 
2343.000000	96.728381 
2342.000000	96.724649 
2341.000000	96.728110 
2340.000000	96.737912 
2339.000000	96.747685 
2338.000000	96.751382 
2337.000000	96.748838 
2336.000000	96.744653 
2335.000000	96.742167 
2334.000000	96.740306 
2333.000000	96.735565 
2332.000000	96.727012 
2331.000000	96.717170 
2330.000000	96.706704 
2329.000000	96.692276 
2328.000000	96.670409 
2327.000000	96.644509 
2326.000000	96.620955 
2325.000000	96.604752 
2324.000000	96.597738 
2323.000000	96.599769 
2322.000000	96.607240 
2321.000000	96.613438 
2320.000000	96.615352 
2319.000000	96.617191 
2318.000000	96.624362 
2317.000000	96.636467 
2316.000000	96.648079 
2315.000000	96.654987 
2314.000000	96.655924 
2313.000000	96.652126 
2312.000000	96.645703 
2311.000000	96.639980 
2310.000000	96.636289 
2309.000000	96.633641 
2308.000000	96.631068 
2307.000000	96.630657 
2306.000000	96.633914 
2305.000000	96.638237 
2304.000000	96.639169 
2303.000000	96.636524 
2302.000000	96.634538 
2301.000000	96.636543 
2300.000000	96.641202 
2299.000000	96.644815 
2298.000000	96.644824 
2297.000000	96.641613 
2296.000000	96.637339 
2295.000000	96.635098 
2294.000000	96.636683 
2293.000000	96.641460 
2292.000000	96.646704 
2291.000000	96.650554 
2290.000000	96.653428 
2289.000000	96.657091 
2288.000000	96.662159 
2287.000000	96.667362 
2286.000000	96.670935 
2285.000000	96.672641 
2284.000000	96.673972 
2283.000000	96.676128 
2282.000000	96.678743 
2281.000000	96.680648 
2280.000000	96.681285 
2279.000000	96.680862 
2278.000000	96.679927 
2277.000000	96.679170 
2276.000000	96.679235 
2275.000000	96.680292 
2274.000000	96.681949 
2273.000000	96.683789 
2272.000000	96.685799 
2271.000000	96.687963 
2270.000000	96.689760 
2269.000000	96.690645 
2268.000000	96.690858 
2267.000000	96.691215 
2266.000000	96.692098 
2265.000000	96.693137 
2264.000000	96.693803 
2263.000000	96.693902 
2262.000000	96.693510 
2261.000000	96.692844 
2260.000000	96.692238 
2259.000000	96.691901 
2258.000000	96.691729 
2257.000000	96.691532 
2256.000000	96.691347 
2255.000000	96.691315 
2254.000000	96.691365 
2253.000000	96.691200 
2252.000000	96.690628 
2251.000000	96.689735 
2250.000000	96.688714 
2249.000000	96.687692 
2248.000000	96.686717 
2247.000000	96.685770 
2246.000000	96.684809 
2245.000000	96.683816 
2244.000000	96.682789 
2243.000000	96.681728 
2242.000000	96.680653 
2241.000000	96.679590 
2240.000000	96.678544 
2239.000000	96.677503 
2238.000000	96.676446 
2237.000000	96.675358 
2236.000000	96.674238 
2235.000000	96.673087 
2234.000000	96.671908 
2233.000000	96.670702 
2232.000000	96.669471 
2231.000000	96.668212 
2230.000000	96.666917 
2229.000000	96.665577 
2228.000000	96.664197 
2227.000000	96.662800 
2226.000000	96.661404 
2225.000000	96.660018 
2224.000000	96.658645 
2223.000000	96.657300 
2222.000000	96.656011 
2221.000000	96.654787 
2220.000000	96.653614 
2219.000000	96.652459 
2218.000000	96.651304 
2217.000000	96.650148 
2216.000000	96.649004 
2215.000000	96.647875 
2214.000000	96.646758 
2213.000000	96.645648 
2212.000000	96.644555 
2211.000000	96.643497 
2210.000000	96.642489 
2209.000000	96.641523 
2208.000000	96.640580 
2207.000000	96.639637 
2206.000000	96.638661 
2205.000000	96.637615 
2204.000000	96.636559 
2203.000000	96.635849 
2202.000000	96.636019 
2201.000000	96.636972 
2200.000000	96.637362 
2199.000000	96.635603 
2198.000000	96.631416 
2197.000000	96.626421 
2196.000000	96.622966 
2195.000000	96.621992 
2194.000000	96.622398 
2193.000000	96.622809 
2192.000000	96.623479 
2191.000000	96.625226 
2190.000000	96.626980 
2189.000000	96.626365 
2188.000000	96.623099 
2187.000000	96.619751 
2186.000000	96.618128 
2185.000000	96.617046 
2184.000000	96.615493 
2183.000000	96.615919 
2182.000000	96.621205 
2181.000000	96.629180 
2180.000000	96.633320 
2179.000000	96.629773 
2178.000000	96.621271 
2177.000000	96.614184 
2176.000000	96.612711 
2175.000000	96.616482 
2174.000000	96.622300 
2173.000000	96.627358 
2172.000000	96.631510 
2171.000000	96.636370 
2170.000000	96.641764 
2169.000000	96.644184 
2168.000000	96.640534 
2167.000000	96.632671 
2166.000000	96.625630 
2165.000000	96.621057 
2164.000000	96.615528 
2163.000000	96.607256 
2162.000000	96.601981 
2161.000000	96.608727 
2160.000000	96.630724 
2159.000000	96.661911 
2158.000000	96.691090 
2157.000000	96.710042 
2156.000000	96.717459 
2155.000000	96.717399 
2154.000000	96.716164 
2153.000000	96.718835 
2152.000000	96.726109 
2151.000000	96.733694 
2150.000000	96.736108 
2149.000000	96.732442 
2148.000000	96.727939 
2147.000000	96.728406 
2146.000000	96.733736 
2145.000000	96.739172 
2144.000000	96.742600 
2143.000000	96.747175 
2142.000000	96.755362 
2141.000000	96.763814 
2140.000000	96.767514 
2139.000000	96.767458 
2138.000000	96.770487 
2137.000000	96.781027 
2136.000000	96.795380 
2135.000000	96.805259 
2134.000000	96.805639 
2133.000000	96.798539 
2132.000000	96.790779 
2131.000000	96.788046 
2130.000000	96.790438 
2129.000000	96.793352 
2128.000000	96.792681 
2127.000000	96.788972 
2126.000000	96.786228 
2125.000000	96.787310 
2124.000000	96.791364 
2123.000000	96.795328 
2122.000000	96.796589 
2121.000000	96.794039 
2120.000000	96.787844 
2119.000000	96.779186 
2118.000000	96.770261 
2117.000000	96.763719 
2116.000000	96.760837 
2115.000000	96.760061 
2114.000000	96.757801 
2113.000000	96.751992 
2112.000000	96.745009 
2111.000000	96.741538 
2110.000000	96.743485 
2109.000000	96.748373 
2108.000000	96.753008 
2107.000000	96.756836 
2106.000000	96.760609 
2105.000000	96.764021 
2104.000000	96.766405 
2103.000000	96.768147 
2102.000000	96.769374 
2101.000000	96.768348 
2100.000000	96.763499 
2099.000000	96.756733 
2098.000000	96.752744 
2097.000000	96.754585 
2096.000000	96.761232 
2095.000000	96.769116 
2094.000000	96.774792 
2093.000000	96.776506 
2092.000000	96.774349 
2091.000000	96.770057 
2090.000000	96.766326 
2089.000000	96.765090 
2088.000000	96.766182 
2087.000000	96.767568 
2086.000000	96.766982 
2085.000000	96.763693 
2084.000000	96.759077 
2083.000000	96.755413 
2082.000000	96.753846 
2081.000000	96.753754 
2080.000000	96.754086 
2079.000000	96.754630 
2078.000000	96.755473 
2077.000000	96.755958 
2076.000000	96.755318 
2075.000000	96.754028 
2074.000000	96.753185 
2073.000000	96.752463 
2072.000000	96.750105 
2071.000000	96.745386 
2070.000000	96.739886 
2069.000000	96.735904 
2068.000000	96.734370 
2067.000000	96.734669 
2066.000000	96.735632 
2065.000000	96.735967 
2064.000000	96.734502 
2063.000000	96.731126 
2062.000000	96.727554 
2061.000000	96.726313 
2060.000000	96.728501 
2059.000000	96.732870 
2058.000000	96.736706 
2057.000000	96.737974 
2056.000000	96.736275 
2055.000000	96.732249 
2054.000000	96.726898 
2053.000000	96.721438 
2052.000000	96.717234 
2051.000000	96.715040 
2050.000000	96.714552 
2049.000000	96.714850 
2048.000000	96.715299 
2047.000000	96.715884 
2046.000000	96.716789 
2045.000000	96.718068 
2044.000000	96.719703 
2043.000000	96.721510 
2042.000000	96.723054 
2041.000000	96.724063 
2040.000000	96.724993 
2039.000000	96.726696 
2038.000000	96.729351 
2037.000000	96.732048 
2036.000000	96.733687 
2035.000000	96.734093 
2034.000000	96.734196 
2033.000000	96.735370 
2032.000000	96.738377 
2031.000000	96.742452 
2030.000000	96.745372 
2029.000000	96.745332 
2028.000000	96.742875 
2027.000000	96.740610 
2026.000000	96.740461 
2025.000000	96.742045 
2024.000000	96.744182 
2023.000000	96.747066 
2022.000000	96.751820 
2021.000000	96.757917 
2020.000000	96.762344 
2019.000000	96.762320 
2018.000000	96.757964 
2017.000000	96.752551 
2016.000000	96.749721 
2015.000000	96.750233 
2014.000000	96.751442 
2013.000000	96.749702 
2012.000000	96.744300 
2011.000000	96.739112 
2010.000000	96.739103 
2009.000000	96.745157 
2008.000000	96.753276 
2007.000000	96.759160 
2006.000000	96.762309 
2005.000000	96.764324 
2004.000000	96.765637 
2003.000000	96.765924 
2002.000000	96.766293 
2001.000000	96.768125 
2000.000000	96.769904 
1999.000000	96.767408 
1998.000000	96.757725 
1997.000000	96.742710 
1996.000000	96.728199 
1995.000000	96.719521 
1994.000000	96.718134 
1993.000000	96.721794 
1992.000000	96.726699 
1991.000000	96.730308 
1990.000000	96.732615 
1989.000000	96.734739 
1988.000000	96.736456 
1987.000000	96.735337 
1986.000000	96.728976 
1985.000000	96.718277 
1984.000000	96.707555 
1983.000000	96.700579 
1982.000000	96.697353 
1981.000000	96.695614 
1980.000000	96.694747 
1979.000000	96.696242 
1978.000000	96.700368 
1977.000000	96.705391 
1976.000000	96.710326 
1975.000000	96.716034 
1974.000000	96.723146 
1973.000000	96.731184 
1972.000000	96.740084 
1971.000000	96.750115 
1970.000000	96.759262 
1969.000000	96.762991 
1968.000000	96.758242 
1967.000000	96.747179 
1966.000000	96.736600 
1965.000000	96.732711 
1964.000000	96.737134 
1963.000000	96.747401 
1962.000000	96.759366 
1961.000000	96.769257 
1960.000000	96.774401 
1959.000000	96.773471 
1958.000000	96.767678 
1957.000000	96.761403 
1956.000000	96.759059 
1955.000000	96.760641 
1954.000000	96.762081 
1953.000000	96.760527 
1952.000000	96.757281 
1951.000000	96.754995 
1950.000000	96.754420 
1949.000000	96.755162 
1948.000000	96.757685 
1947.000000	96.762368 
1946.000000	96.767417 
1945.000000	96.769955 
1944.000000	96.769021 
1943.000000	96.766109 
1942.000000	96.763207 
1941.000000	96.761221 
1940.000000	96.760255 
1939.000000	96.760046 
1938.000000	96.760045 
1937.000000	96.760034 
1936.000000	96.760434 
1935.000000	96.761355 
1934.000000	96.761960 
1933.000000	96.761757 
1932.000000	96.761821 
1931.000000	96.763576 
1930.000000	96.766668 
1929.000000	96.768822 
1928.000000	96.768660 
1927.000000	96.767058 
1926.000000	96.765476 
1925.000000	96.764099 
1924.000000	96.762315 
1923.000000	96.760417 
1922.000000	96.759219 
1921.000000	96.758586 
1920.000000	96.757844 
1919.000000	96.756866 
1918.000000	96.755776 
1917.000000	96.754280 
1916.000000	96.752287 
1915.000000	96.750727 
1914.000000	96.750518 
1913.000000	96.751252 
1912.000000	96.751522 
1911.000000	96.750675 
1910.000000	96.749334 
1909.000000	96.748278 
1908.000000	96.747770 
1907.000000	96.747582 
1906.000000	96.746999 
1905.000000	96.745039 
1904.000000	96.741367 
1903.000000	96.737369 
1902.000000	96.734929 
1901.000000	96.734218 
1900.000000	96.733918 
1899.000000	96.733074 
1898.000000	96.731863 
1897.000000	96.730702 
1896.000000	96.729415 
1895.000000	96.727722 
1894.000000	96.725590 
1893.000000	96.722940 
1892.000000	96.720010 
1891.000000	96.717849 
1890.000000	96.717402 
1889.000000	96.718097 
1888.000000	96.718460 
1887.000000	96.718362 
1886.000000	96.718644 
1885.000000	96.718846 
1884.000000	96.717276 
1883.000000	96.713614 
1882.000000	96.709916 
1881.000000	96.708293 
1880.000000	96.708944 
1879.000000	96.710385 
1878.000000	96.710816 
1877.000000	96.709786 
1876.000000	96.708518 
1875.000000	96.708695 
1874.000000	96.710871 
1873.000000	96.713903 
1872.000000	96.716395 
1871.000000	96.718038 
1870.000000	96.718822 
1869.000000	96.718311 
1868.000000	96.717011 
1867.000000	96.717220 
1866.000000	96.719946 
1865.000000	96.722418 
1864.000000	96.721434 
1863.000000	96.718042 
1862.000000	96.716434 
1861.000000	96.718448 
1860.000000	96.722121 
1859.000000	96.725550 
1858.000000	96.728962 
1857.000000	96.732338 
1856.000000	96.734768 
1855.000000	96.736554 
1854.000000	96.738895 
1853.000000	96.741268 
1852.000000	96.742985 
1851.000000	96.745764 
1850.000000	96.751185 
1849.000000	96.757868 
1848.000000	96.762907 
1847.000000	96.765885 
1846.000000	96.768504 
1845.000000	96.771035 
1844.000000	96.772227 
1843.000000	96.772324 
1842.000000	96.773084 
1841.000000	96.774954 
1840.000000	96.777639 
1839.000000	96.781242 
1838.000000	96.785415 
1837.000000	96.788208 
1836.000000	96.788151 
1835.000000	96.787295 
1834.000000	96.788661 
1833.000000	96.791858 
1832.000000	96.794156 
1831.000000	96.793822 
1830.000000	96.791739 
1829.000000	96.790508 
1828.000000	96.791260 
1827.000000	96.793245 
1826.000000	96.795104 
1825.000000	96.795902 
1824.000000	96.795476 
1823.000000	96.794513 
1822.000000	96.794145 
1821.000000	96.794604 
1820.000000	96.795170 
1819.000000	96.795725 
1818.000000	96.797740 
1817.000000	96.801708 
1816.000000	96.804979 
1815.000000	96.805632 
1814.000000	96.805274 
1813.000000	96.806536 
1812.000000	96.808818 
1811.000000	96.808793 
1810.000000	96.806231 
1809.000000	96.804051 
1808.000000	96.803324 
1807.000000	96.803199 
1806.000000	96.803847 
1805.000000	96.805787 
1804.000000	96.807350 
1803.000000	96.806178 
1802.000000	96.802044 
1801.000000	96.797685 
1800.000000	96.795566 
1799.000000	96.795314 
1798.000000	96.795925 
1797.000000	96.796015 
1796.000000	96.794282 
1795.000000	96.791988 
1794.000000	96.792066 
1793.000000	96.795269 
1792.000000	96.797970 
1791.000000	96.796861 
1790.000000	96.794650 
1789.000000	96.795130 
1788.000000	96.798263 
1787.000000	96.802045 
1786.000000	96.805722 
1785.000000	96.809251 
1784.000000	96.811497 
1783.000000	96.812548 
1782.000000	96.813464 
1781.000000	96.814857 
1780.000000	96.816819 
1779.000000	96.819038 
1778.000000	96.822408 
1777.000000	96.827006 
1776.000000	96.831573 
1775.000000	96.834962 
1774.000000	96.836637 
1773.000000	96.837406 
1772.000000	96.838604 
1771.000000	96.838999 
1770.000000	96.837515 
1769.000000	96.835710 
1768.000000	96.835530 
1767.000000	96.837490 
1766.000000	96.840808 
1765.000000	96.845106 
1764.000000	96.850058 
1763.000000	96.854040 
1762.000000	96.855335 
1761.000000	96.855303 
1760.000000	96.856341 
1759.000000	96.858143 
1758.000000	96.858664 
1757.000000	96.856931 
1756.000000	96.855916 
1755.000000	96.857496 
1754.000000	96.859126 
1753.000000	96.857717 
1752.000000	96.853921 
1751.000000	96.851736 
1750.000000	96.853219 
1749.000000	96.856193 
1748.000000	96.858214 
1747.000000	96.859648 
1746.000000	96.860828 
1745.000000	96.862408 
1744.000000	96.865671 
1743.000000	96.869592 
1742.000000	96.871622 
1741.000000	96.871593 
1740.000000	96.871577 
1739.000000	96.872385 
1738.000000	96.872270 
1737.000000	96.869913 
1736.000000	96.865837 
1735.000000	96.862334 
1734.000000	96.863549 
1733.000000	96.867959 
1732.000000	96.871641 
1731.000000	96.874997 
1730.000000	96.878398 
1729.000000	96.878997 
1728.000000	96.875541 
1727.000000	96.870280 
1726.000000	96.865242 
1725.000000	96.861482 
1724.000000	96.858971 
1723.000000	96.857299 
1722.000000	96.857188 
1721.000000	96.858070 
1720.000000	96.857548 
1719.000000	96.853175 
1718.000000	96.846225 
1717.000000	96.840533 
1716.000000	96.834066 
1715.000000	96.826131 
1714.000000	96.821835 
1713.000000	96.822366 
1712.000000	96.822842 
1711.000000	96.821228 
1710.000000	96.819483 
1709.000000	96.817747 
1708.000000	96.814129 
1707.000000	96.809111 
1706.000000	96.805798 
1705.000000	96.803719 
1704.000000	96.797099 
1703.000000	96.784624 
1702.000000	96.771134 
1701.000000	96.762775 
1700.000000	96.759462 
1699.000000	96.752046 
1698.000000	96.742847 
1697.000000	96.737097 
1696.000000	96.732673 
1695.000000	96.726694 
1694.000000	96.720354 
1693.000000	96.715274 
1692.000000	96.710115 
1691.000000	96.703403 
1690.000000	96.695639 
1689.000000	96.687936 
1688.000000	96.680910 
1687.000000	96.674230 
1686.000000	96.667766 
1685.000000	96.662348 
1684.000000	96.656869 
1683.000000	96.648931 
1682.000000	96.639551 
1681.000000	96.629936 
1680.000000	96.621786 
1679.000000	96.615587 
1678.000000	96.609665 
1677.000000	96.602382 
1676.000000	96.594817 
1675.000000	96.589039 
1674.000000	96.581727 
1673.000000	96.570834 
1672.000000	96.560076 
1671.000000	96.553552 
1670.000000	96.550936 
1669.000000	96.546941 
1668.000000	96.540881 
1667.000000	96.536399 
1666.000000	96.532779 
1665.000000	96.528035 
1664.000000	96.522738 
1663.000000	96.518974 
1662.000000	96.514107 
1661.000000	96.502678 
1660.000000	96.488461 
1659.000000	96.478973 
1658.000000	96.474019 
1657.000000	96.467999 
1656.000000	96.457813 
1655.000000	96.444990 
1654.000000	96.433988 
1653.000000	96.431906 
1652.000000	96.425557 
1651.000000	96.412842 
1650.000000	96.399198 
1649.000000	96.388988 
1648.000000	96.382464 
1647.000000	96.379641 
1646.000000	96.378273 
1645.000000	96.374880 
1644.000000	96.368992 
1643.000000	96.362935 
1642.000000	96.359064 
1641.000000	96.355981 
1640.000000	96.352228 
1639.000000	96.346831 
1638.000000	96.340808 
1637.000000	96.336725 
1636.000000	96.336895 
1635.000000	96.340848 
1634.000000	96.343394 
1633.000000	96.342937 
1632.000000	96.339973 
1631.000000	96.338299 
1630.000000	96.341595 
1629.000000	96.349032 
1628.000000	96.356520 
1627.000000	96.362661 
1626.000000	96.367640 
1625.000000	96.371569 
1624.000000	96.377332 
1623.000000	96.388746 
1622.000000	96.402812 
1621.000000	96.411928 
1620.000000	96.416514 
1619.000000	96.423169 
1618.000000	96.436431 
1617.000000	96.451683 
1616.000000	96.460318 
1615.000000	96.462923 
1614.000000	96.464534 
1613.000000	96.465405 
1612.000000	96.465573 
1611.000000	96.468965 
1610.000000	96.477766 
1609.000000	96.488930 
1608.000000	96.500392 
1607.000000	96.513275 
1606.000000	96.525752 
1605.000000	96.534816 
1604.000000	96.543269 
1603.000000	96.554759 
1602.000000	96.567368 
1601.000000	96.577036 
1600.000000	96.583855 
1599.000000	96.590520 
1598.000000	96.596976 
1597.000000	96.602097 
1596.000000	96.607517 
1595.000000	96.616185 
1594.000000	96.627746 
1593.000000	96.638381 
1592.000000	96.645803 
1591.000000	96.651127 
1590.000000	96.655776 
1589.000000	96.659957 
1588.000000	96.664915 
1587.000000	96.672589 
1586.000000	96.681958 
1585.000000	96.688711 
1584.000000	96.692382 
1583.000000	96.697073 
1582.000000	96.703723 
1581.000000	96.709708 
1580.000000	96.715085 
1579.000000	96.722773 
1578.000000	96.733620 
1577.000000	96.745895 
1576.000000	96.756898 
1575.000000	96.764461 
1574.000000	96.767956 
1573.000000	96.769578 
1572.000000	96.773807 
1571.000000	96.783221 
1570.000000	96.792997 
1569.000000	96.793463 
1568.000000	96.786805 
1567.000000	96.782917 
1566.000000	96.783952 
1565.000000	96.786436 
1564.000000	96.790145 
1563.000000	96.794209 
1562.000000	96.796564 
1561.000000	96.790933 
1560.000000	96.785930 
1559.000000	96.792940 
1558.000000	96.799661 
1557.000000	96.797697 
1556.000000	96.794423 
1555.000000	96.794280 
1554.000000	96.794919 
1553.000000	96.794208 
1552.000000	96.793547 
1551.000000	96.791665 
1550.000000	96.787019 
1549.000000	96.781077 
1548.000000	96.776885 
1547.000000	96.775435 
1546.000000	96.773647 
1545.000000	96.769131 
1544.000000	96.764103 
1543.000000	96.761526 
1542.000000	96.762434 
1541.000000	96.766302 
1540.000000	96.765437 
1539.000000	96.755200 
1538.000000	96.740044 
1537.000000	96.724248 
1536.000000	96.709348 
1535.000000	96.698055 
1534.000000	96.692305 
1533.000000	96.690186 
1532.000000	96.686663 
1531.000000	96.679672 
1530.000000	96.671750 
1529.000000	96.664914 
1528.000000	96.658014 
1527.000000	96.649959 
1526.000000	96.641211 
1525.000000	96.633020 
1524.000000	96.626422 
1523.000000	96.621635 
1522.000000	96.617663 
1521.000000	96.611044 
1520.000000	96.599152 
1519.000000	96.584330 
1518.000000	96.569966 
1517.000000	96.557826 
1516.000000	96.547836 
1515.000000	96.539524 
1514.000000	96.532689 
1513.000000	96.526812 
1512.000000	96.520194 
1511.000000	96.510378 
1510.000000	96.497720 
1509.000000	96.484452 
1508.000000	96.473887 
1507.000000	96.466634 
1506.000000	96.460616 
1505.000000	96.452584 
1504.000000	96.442117 
1503.000000	96.430192 
1502.000000	96.417841 
1501.000000	96.405987 
1500.000000	96.395344 
1499.000000	96.385271 
1498.000000	96.374398 
1497.000000	96.363666 
1496.000000	96.354425 
1495.000000	96.346248 
1494.000000	96.338807 
1493.000000	96.332479 
1492.000000	96.327069 
1491.000000	96.321586 
1490.000000	96.315088 
1489.000000	96.307507 
1488.000000	96.297715 
1487.000000	96.284950 
1486.000000	96.271508 
1485.000000	96.257731 
1484.000000	96.243082 
1483.000000	96.229186 
1482.000000	96.217576 
1481.000000	96.208159 
1480.000000	96.198824 
1479.000000	96.188587 
1478.000000	96.178396 
1477.000000	96.168810 
1476.000000	96.157416 
1475.000000	96.142222 
1474.000000	96.126044 
1473.000000	96.114639 
1472.000000	96.109768 
1471.000000	96.105861 
1470.000000	96.099026 
1469.000000	96.089563 
1468.000000	96.077668 
1467.000000	96.063769 
1466.000000	96.051090 
1465.000000	96.043036 
1464.000000	96.038191 
1463.000000	96.029875 
1462.000000	96.015368 
1461.000000	95.998705 
1460.000000	95.984975 
1459.000000	95.974735 
1458.000000	95.963611 
1457.000000	95.950978 
1456.000000	95.940744 
1455.000000	95.930852 
1454.000000	95.917273 
1453.000000	95.903275 
1452.000000	95.894930 
1451.000000	95.893211 
1450.000000	95.895100 
1449.000000	95.899328 
1448.000000	95.903793 
1447.000000	95.904077 
1446.000000	95.897596 
1445.000000	95.888198 
1444.000000	95.882243 
1443.000000	95.878493 
1442.000000	95.872241 
1441.000000	95.863036 
1440.000000	95.854234 
1439.000000	95.845782 
1438.000000	95.835767 
1437.000000	95.828354 
1436.000000	95.828294 
1435.000000	95.829103 
1434.000000	95.824468 
1433.000000	95.818300 
1432.000000	95.816573 
1431.000000	95.819727 
1430.000000	95.823440 
1429.000000	95.826704 
1428.000000	95.830595 
1427.000000	95.834992 
1426.000000	95.838974 
1425.000000	95.844031 
1424.000000	95.854185 
1423.000000	95.865022 
1422.000000	95.869006 
1421.000000	95.868635 
1420.000000	95.874577 
1419.000000	95.886439 
1418.000000	95.890617 
1417.000000	95.888150 
1416.000000	95.892607 
1415.000000	95.906450 
1414.000000	95.920070 
1413.000000	95.926826 
1412.000000	95.931375 
1411.000000	95.939235 
1410.000000	95.948459 
1409.000000	95.957015 
1408.000000	95.966295 
1407.000000	95.977582 
1406.000000	95.989940 
1405.000000	96.003628 
1404.000000	96.021747 
1403.000000	96.041273 
1402.000000	96.055906 
1401.000000	96.067441 
1400.000000	96.084253 
1399.000000	96.107968 
1398.000000	96.128541 
1397.000000	96.139362 
1396.000000	96.146228 
1395.000000	96.159011 
1394.000000	96.178721 
1393.000000	96.200243 
1392.000000	96.222907 
1391.000000	96.246891 
1390.000000	96.269298 
1389.000000	96.287250 
1388.000000	96.300527 
1387.000000	96.310665 
1386.000000	96.319262 
1385.000000	96.328978 
1384.000000	96.343233 
1383.000000	96.361573 
1382.000000	96.379487 
1381.000000	96.393914 
1380.000000	96.405914 
1379.000000	96.418729 
1378.000000	96.434025 
1377.000000	96.450879 
1376.000000	96.467450 
1375.000000	96.482532 
1374.000000	96.495382 
1373.000000	96.506919 
1372.000000	96.519375 
1371.000000	96.534375 
1370.000000	96.550991 
1369.000000	96.566089 
1368.000000	96.578743 
1367.000000	96.589908 
1366.000000	96.600202 
1365.000000	96.610330 
1364.000000	96.620623 
1363.000000	96.629940 
1362.000000	96.637070 
1361.000000	96.643246 
1360.000000	96.651656 
1359.000000	96.664561 
1358.000000	96.681030 
1357.000000	96.697880 
1356.000000	96.712779 
1355.000000	96.725326 
1354.000000	96.735929 
1353.000000	96.745908 
1352.000000	96.755517 
1351.000000	96.765109 
1350.000000	96.775474 
1349.000000	96.785323 
1348.000000	96.793409 
1347.000000	96.800269 
1346.000000	96.807654 
1345.000000	96.816255 
1344.000000	96.824889 
1343.000000	96.832249 
1342.000000	96.838148 
1341.000000	96.842448 
1340.000000	96.844105 
1339.000000	96.842854 
1338.000000	96.840748 
1337.000000	96.840984 
1336.000000	96.844733 
1335.000000	96.849963 
1334.000000	96.854196 
1333.000000	96.857329 
1332.000000	96.860419 
1331.000000	96.863503 
1330.000000	96.865726 
1329.000000	96.867223 
1328.000000	96.869116 
1327.000000	96.872156 
1326.000000	96.875405 
1325.000000	96.876746 
1324.000000	96.875606 
1323.000000	96.872870 
1322.000000	96.869473 
1321.000000	96.866441 
1320.000000	96.865038 
1319.000000	96.865447 
1318.000000	96.866376 
1317.000000	96.867053 
1316.000000	96.867756 
1315.000000	96.867906 
1314.000000	96.866064 
1313.000000	96.863217 
1312.000000	96.862992 
1311.000000	96.866786 
1310.000000	96.871111 
1309.000000	96.872348 
1308.000000	96.871438 
1307.000000	96.872077 
1306.000000	96.875419 
1305.000000	96.879083 
1304.000000	96.881212 
1303.000000	96.881576 
1302.000000	96.879849 
1301.000000	96.875847 
1300.000000	96.871550 
1299.000000	96.870061 
1298.000000	96.871848 
1297.000000	96.873924 
1296.000000	96.873501 
1295.000000	96.871370 
1294.000000	96.870600 
1293.000000	96.872787 
1292.000000	96.876192 
1291.000000	96.877441 
1290.000000	96.875151 
1289.000000	96.871571 
1288.000000	96.870002 
1287.000000	96.870853 
1286.000000	96.871605 
1285.000000	96.870853 
1284.000000	96.870284 
1283.000000	96.871359 
1282.000000	96.872268 
1281.000000	96.870070 
1280.000000	96.865036 
1279.000000	96.860977 
1278.000000	96.861365 
1277.000000	96.866322 
1276.000000	96.872916 
1275.000000	96.877594 
1274.000000	96.878668 
1273.000000	96.877402 
1272.000000	96.876366 
1271.000000	96.876245 
1270.000000	96.875307 
1269.000000	96.872495 
1268.000000	96.869518 
1267.000000	96.868281 
1266.000000	96.867834 
1265.000000	96.866313 
1264.000000	96.864443 
1263.000000	96.864404 
1262.000000	96.866242 
1261.000000	96.867843 
1260.000000	96.868621 
1259.000000	96.870769 
1258.000000	96.875885 
1257.000000	96.882187 
1256.000000	96.885849 
1255.000000	96.884710 
1254.000000	96.880548 
1253.000000	96.877368 
1252.000000	96.876938 
1251.000000	96.876811 
1250.000000	96.873947 
1249.000000	96.869420 
1248.000000	96.867433 
1247.000000	96.869606 
1246.000000	96.872952 
1245.000000	96.874450 
1244.000000	96.874475 
1243.000000	96.874406 
1242.000000	96.874167 
1241.000000	96.874129 
1240.000000	96.876298 
1239.000000	96.880807 
1238.000000	96.883681 
1237.000000	96.880983 
1236.000000	96.873313 
1235.000000	96.863818 
1234.000000	96.853873 
1233.000000	96.843449 
1232.000000	96.833646 
1231.000000	96.825380 
1230.000000	96.817013 
1229.000000	96.806389 
1228.000000	96.793559 
1227.000000	96.778324 
1226.000000	96.756988 
1225.000000	96.725603 
1224.000000	96.685725 
1223.000000	96.643143 
1222.000000	96.600793 
1221.000000	96.556192 
1220.000000	96.506292 
1219.000000	96.451604 
1218.000000	96.394590 
1217.000000	96.336422 
1216.000000	96.275996 
1215.000000	96.210549 
1214.000000	96.137636 
1213.000000	96.058674 
1212.000000	95.979516 
1211.000000	95.904306 
1210.000000	95.829562 
1209.000000	95.748140 
1208.000000	95.658546 
1207.000000	95.566155 
1206.000000	95.475118 
1205.000000	95.383446 
1204.000000	95.287411 
1203.000000	95.187170 
1202.000000	95.086329 
1201.000000	94.988197 
1200.000000	94.893623 
1199.000000	94.800585 
1198.000000	94.705175 
1197.000000	94.605010 
1196.000000	94.501803 
1195.000000	94.398804 
1194.000000	94.296410 
1193.000000	94.192441 
1192.000000	94.085759 
1191.000000	93.976671 
1190.000000	93.864685 
1189.000000	93.749181 
1188.000000	93.631637 
1187.000000	93.514046 
1186.000000	93.395893 
1185.000000	93.275630 
1184.000000	93.153628 
1183.000000	93.030299 
1182.000000	92.903422 
1181.000000	92.771359 
1180.000000	92.636686 
1179.000000	92.501865 
1178.000000	92.363479 
1177.000000	92.216470 
1176.000000	92.062078 
1175.000000	91.905454 
1174.000000	91.747314 
1173.000000	91.584936 
1172.000000	91.419942 
1171.000000	91.256852 
1170.000000	91.094553 
1169.000000	90.928243 
1168.000000	90.760864 
1167.000000	90.604614 
1166.000000	90.470564 
1165.000000	90.365312 
1164.000000	90.297955 
1163.000000	90.279128 
1162.000000	90.308898 
1161.000000	90.372223 
1160.000000	90.447897 
1159.000000	90.515414 
1158.000000	90.554366 
1157.000000	90.548590 
1156.000000	90.495286 
1155.000000	90.404457 
1154.000000	90.287810 
1153.000000	90.153391 
1152.000000	90.010452 
1151.000000	89.869993 
1150.000000	89.736793 
1149.000000	89.607898 
1148.000000	89.481339 
1147.000000	89.358941 
1146.000000	89.238828 
1145.000000	89.113977 
1144.000000	88.981714 
1143.000000	88.847385 
1142.000000	88.715644 
1141.000000	88.585014 
1140.000000	88.453477 
1139.000000	88.322100 
1138.000000	88.190798 
1137.000000	88.057508 
1136.000000	87.923099 
1135.000000	87.789756 
1134.000000	87.653825 
1133.000000	87.508907 
1132.000000	87.357014 
1131.000000	87.207291 
1130.000000	87.062182 
1129.000000	86.914639 
1128.000000	86.760899 
1127.000000	86.605587 
1126.000000	86.451436 
1125.000000	86.294263 
1124.000000	86.131665 
1123.000000	85.967213 
1122.000000	85.802768 
1121.000000	85.636105 
1120.000000	85.469129 
1119.000000	85.308374 
1118.000000	85.154314 
1117.000000	85.000751 
1116.000000	84.847704 
1115.000000	84.704038 
1114.000000	84.573991 
1113.000000	84.451779 
1112.000000	84.332238 
1111.000000	84.215645 
1110.000000	84.099752 
1109.000000	83.979138 
1108.000000	83.854271 
1107.000000	83.729679 
1106.000000	83.603132 
1105.000000	83.469024 
1104.000000	83.331631 
1103.000000	83.200931 
1102.000000	83.074703 
1101.000000	82.941424 
1100.000000	82.800407 
1099.000000	82.663701 
1098.000000	82.537246 
1097.000000	82.414999 
1096.000000	82.293957 
1095.000000	82.177385 
1094.000000	82.061573 
1093.000000	81.937175 
1092.000000	81.807293 
1091.000000	81.687373 
1090.000000	81.583367 
1089.000000	81.485678 
1088.000000	81.387094 
1087.000000	81.289925 
1086.000000	81.193347 
1085.000000	81.091451 
1084.000000	80.986827 
1083.000000	80.888890 
1082.000000	80.796162 
1081.000000	80.697550 
1080.000000	80.592943 
1079.000000	80.493694 
1078.000000	80.400074 
1077.000000	80.297346 
1076.000000	80.177301 
1075.000000	80.044364 
1074.000000	79.897674 
1073.000000	79.727185 
1072.000000	79.531149 
1071.000000	79.317375 
1070.000000	79.082870 
1069.000000	78.812500 
1068.000000	78.503717 
1067.000000	78.174145 
1066.000000	77.839484 
1065.000000	77.502178 
1064.000000	77.166447 
1063.000000	76.842722 
1062.000000	76.529316 
1061.000000	76.210047 
1060.000000	75.878290 
1059.000000	75.545247 
1058.000000	75.218487 
1057.000000	74.891542 
1056.000000	74.560608 
1055.000000	74.231340 
1054.000000	73.902334 
1053.000000	73.561627 
1052.000000	73.207066 
1051.000000	72.850240 
1050.000000	72.493328 
1049.000000	72.124743 
1048.000000	71.743957 
1047.000000	71.365636 
1046.000000	70.994377 
1045.000000	70.619921 
1044.000000	70.239918 
1043.000000	69.863495 
1042.000000	69.490359 
1041.000000	69.110890 
1040.000000	68.729941 
1039.000000	68.365638 
1038.000000	68.021156 
1037.000000	67.683180 
1036.000000	67.351203 
1035.000000	67.041225 
1034.000000	66.756907 
1033.000000	66.485083 
1032.000000	66.223690 
1031.000000	65.985769 
1030.000000	65.771869 
1029.000000	65.567886 
1028.000000	65.374481 
1027.000000	65.208607 
1026.000000	65.070900 
1025.000000	64.941156 
1024.000000	64.810527 
1023.000000	64.688028 
1022.000000	64.571139 
1021.000000	64.442249 
1020.000000	64.300120 
1019.000000	64.163785 
1018.000000	64.039460 
1017.000000	63.913776 
1016.000000	63.784011 
1015.000000	63.663305 
1014.000000	63.550799 
1013.000000	63.428957 
1012.000000	63.296489 
1011.000000	63.172267 
1010.000000	63.061136 
1009.000000	62.948235 
1008.000000	62.832861 
1007.000000	62.734964 
1006.000000	62.661509 
1005.000000	62.599032 
1004.000000	62.545547 
1003.000000	62.516197 
1002.000000	62.510088 
1001.000000	62.505445 
1000.000000	62.496246 
999.000000	 62.500894 
998.000000	 62.526129 
997.000000	 62.555294 
996.000000	 62.581184 
995.000000	 62.618181 
994.000000	 62.671997 
993.000000	 62.728833 
992.000000	 62.784155 
991.000000	 62.851671 
990.000000	 62.934205 
989.000000	 63.015681 
988.000000	 63.091345 
987.000000	 63.177184 
986.000000	 63.281189 
985.000000	 63.394364 
984.000000	 63.517177 
983.000000	 63.664786 
982.000000	 63.838024 
981.000000	 64.018508 
980.000000	 64.200116 
979.000000	 64.396406 
978.000000	 64.610253 
977.000000	 64.826901 
976.000000	 65.044840 
975.000000	 65.283195 
974.000000	 65.549396 
973.000000	 65.828310 
972.000000	 66.111545 
971.000000	 66.409240 
970.000000	 66.724105 
969.000000	 67.041635 
968.000000	 67.355113 
967.000000	 67.674458 
966.000000	 68.002640 
965.000000	 68.329057 
964.000000	 68.653033 
963.000000	 68.987815 
962.000000	 69.333948 
961.000000	 69.673645 
960.000000	 69.998282 
959.000000	 70.317379 
958.000000	 70.635083 
957.000000	 70.942753 
956.000000	 71.240648 
955.000000	 71.541858 
954.000000	 71.847967 
953.000000	 72.144299 
952.000000	 72.424897 
951.000000	 72.698786 
950.000000	 72.966943 
949.000000	 73.217302 
948.000000	 73.447972 
947.000000	 73.671439 
946.000000	 73.889998 
945.000000	 74.090072 
944.000000	 74.266803 
943.000000	 74.432083 
942.000000	 74.593140 
941.000000	 74.745205 
940.000000	 74.890440 
939.000000	 75.041244 
938.000000	 75.198982 
937.000000	 75.351689 
936.000000	 75.498251 
935.000000	 75.652512 
934.000000	 75.818066 
933.000000	 75.981654 
932.000000	 76.137343 
931.000000	 76.294907 
930.000000	 76.458317 
929.000000	 76.617917 
928.000000	 76.770333 
927.000000	 76.924823 
926.000000	 77.083227 
925.000000	 77.233422 
924.000000	 77.368300 
923.000000	 77.492393 
922.000000	 77.606042 
921.000000	 77.703077 
920.000000	 77.787695 
919.000000	 77.872960 
918.000000	 77.958558 
917.000000	 78.030794 
916.000000	 78.089035 
915.000000	 78.152209 
914.000000	 78.235514 
913.000000	 78.340819 
912.000000	 78.472125 
911.000000	 78.637983 
910.000000	 78.835224 
909.000000	 79.052743 
908.000000	 79.294650 
907.000000	 79.577195 
906.000000	 79.900471 
905.000000	 80.246017 
904.000000	 80.604037 
903.000000	 80.979094 
902.000000	 81.367217 
901.000000	 81.752958 
900.000000	 82.132977 
899.000000	 82.519342 
898.000000	 82.915764 
897.000000	 83.311492 
896.000000	 83.699654 
895.000000	 84.079689 
894.000000	 84.441743 
893.000000	 84.772338 
892.000000	 85.077003 
891.000000	 85.374955 
890.000000	 85.669659 
889.000000	 85.946320 
888.000000	 86.199290 
887.000000	 86.438849 
886.000000	 86.669126 
885.000000	 86.882459 
884.000000	 87.078335 
883.000000	 87.265207 
882.000000	 87.441566 
881.000000	 87.599704 
880.000000	 87.751229 
879.000000	 87.922564 
878.000000	 88.119372 
877.000000	 88.321324 
876.000000	 88.518163 
875.000000	 88.724937 
874.000000	 88.955665 
873.000000	 89.208543 
872.000000	 89.483317 
871.000000	 89.785895 
870.000000	 90.107442 
869.000000	 90.423703 
868.000000	 90.723396 
867.000000	 91.016256 
866.000000	 91.307977 
865.000000	 91.589402 
864.000000	 91.856864 
863.000000	 92.121399 
862.000000	 92.388702 
861.000000	 92.648169 
860.000000	 92.890410 
859.000000	 93.119335 
858.000000	 93.339907 
857.000000	 93.549532 
856.000000	 93.748137 
855.000000	 93.941548 
854.000000	 94.128114 
853.000000	 94.295966 
852.000000	 94.439712 
851.000000	 94.567560 
850.000000	 94.688196 
849.000000	 94.803419 
848.000000	 94.915902 
847.000000	 95.028729 
846.000000	 95.133475 
845.000000	 95.214051 
844.000000	 95.266745 
843.000000	 95.303018 
842.000000	 95.330061 
841.000000	 95.342963 
840.000000	 95.338251 
839.000000	 95.319387 
838.000000	 95.286162 
837.000000	 95.234746 
836.000000	 95.172096 
835.000000	 95.114960 
834.000000	 95.070255 
833.000000	 95.031357 
832.000000	 94.997282 
831.000000	 94.978815 
830.000000	 94.981001 
829.000000	 94.997077 
828.000000	 95.026053 
827.000000	 95.078196 
826.000000	 95.155279 
825.000000	 95.243322 
824.000000	 95.332111 
823.000000	 95.422869 
822.000000	 95.511650 
821.000000	 95.586938 
820.000000	 95.647928 
819.000000	 95.703591 
818.000000	 95.749994 
817.000000	 95.767761 
816.000000	 95.745736 
815.000000	 95.689814 
814.000000	 95.603625 
813.000000	 95.476300 
812.000000	 95.294194 
811.000000	 95.048610 
810.000000	 94.726109 
809.000000	 94.307823 
808.000000	 93.787852 
807.000000	 93.181325 
806.000000	 92.509356 
805.000000	 91.789784 
804.000000	 91.048261 
803.000000	 90.321522 
802.000000	 89.641154 
801.000000	 89.029857 
800.000000	 88.517998 
799.000000	 88.140392 
798.000000	 87.906325 
797.000000	 87.792553 
796.000000	 87.772426 
795.000000	 87.830124 
794.000000	 87.942869 
793.000000	 88.077617 
792.000000	 88.214852 
791.000000	 88.352307 
790.000000	 88.478531 
789.000000	 88.566755 
788.000000	 88.601301 
787.000000	 88.586174 
786.000000	 88.520840 
785.000000	 88.391544 
784.000000	 88.195674 
783.000000	 87.953608 
782.000000	 87.689449 
781.000000	 87.422511 
780.000000	 87.183823 
779.000000	 87.013974 
778.000000	 86.932712 
777.000000	 86.932685 
776.000000	 87.009750 
775.000000	 87.171872 
774.000000	 87.408210 
773.000000	 87.677962 
772.000000	 87.944257 
771.000000	 88.197119 
770.000000	 88.433867 
769.000000	 88.642453 
768.000000	 88.816294 
767.000000	 88.962643 
766.000000	 89.084337 
765.000000	 89.174614 
764.000000	 89.240552 
763.000000	 89.308800 
762.000000	 89.395107 
761.000000	 89.488568 
760.000000	 89.577376 
759.000000	 89.668549 
758.000000	 89.770353 
757.000000	 89.878091 
756.000000	 89.991807 
755.000000	 90.126312 
754.000000	 90.286263 
753.000000	 90.448459 
752.000000	 90.585049 
751.000000	 90.691750 
750.000000	 90.783055 
749.000000	 90.874648 
748.000000	 90.980115 
747.000000	 91.108167 
746.000000	 91.251300 
745.000000	 91.391273 
744.000000	 91.525520 
743.000000	 91.673926 
742.000000	 91.851791 
741.000000	 92.052444 
740.000000	 92.263935 
739.000000	 92.484235 
738.000000	 92.709763 
737.000000	 92.925931 
736.000000	 93.121232 
735.000000	 93.297953 
734.000000	 93.459917 
733.000000	 93.602510 
732.000000	 93.721458 
731.000000	 93.818726 
730.000000	 93.894707 
729.000000	 93.948076 
728.000000	 93.989779 
727.000000	 94.041250 
726.000000	 94.112005 
725.000000	 94.194850 
724.000000	 94.285059 
723.000000	 94.385447 
722.000000	 94.490479 
721.000000	 94.587239 
720.000000	 94.678259 
719.000000	 94.780254 
718.000000	 94.893193 
717.000000	 94.995470 
716.000000	 95.074939 
715.000000	 95.142092 
714.000000	 95.207152 
713.000000	 95.266368 
712.000000	 95.320909 
711.000000	 95.385431 
710.000000	 95.463510 
709.000000	 95.535877 
708.000000	 95.585376 
707.000000	 95.614442 
706.000000	 95.626015 
705.000000	 95.609619 
704.000000	 95.558262 
703.000000	 95.475392 
702.000000	 95.353987 
701.000000	 95.169139 
700.000000	 94.903738 
699.000000	 94.566844 
698.000000	 94.178818 
697.000000	 93.767519 
696.000000	 93.392289 
695.000000	 93.136294 
694.000000	 93.051257 
693.000000	 93.121478 
692.000000	 93.291945 
691.000000	 93.516169 
690.000000	 93.763052 
689.000000	 94.003653 
688.000000	 94.217667 
687.000000	 94.401754 
686.000000	 94.558229 
685.000000	 94.686436 
684.000000	 94.794325 
683.000000	 94.900359 
682.000000	 95.009853 
681.000000	 95.108515 
680.000000	 95.189908 
679.000000	 95.273931 
678.000000	 95.380375 
677.000000	 95.505403 
676.000000	 95.642066 
675.000000	 95.786894 
674.000000	 95.918013 
673.000000	 96.002826 
672.000000	 96.038862 
671.000000	 96.078320 
670.000000	 96.195467 
669.000000	 96.437946 
668.000000	 96.700741 
667.000000	 96.804362 
666.000000	 96.775962 
665.000000	 96.719338 
664.000000	 96.677407 
663.000000	 96.675671 
662.000000	 96.722758 
661.000000	 96.788156 
660.000000	 96.848257 
659.000000	 96.907247 
658.000000	 96.959901 
657.000000	 96.972869 
656.000000	 96.941230 
655.000000	 96.904503 
654.000000	 96.886106 
653.000000	 96.862765 
652.000000	 96.821926 
651.000000	 96.798525 
650.000000	 96.817810 

