4000.000000	97.002566 
3999.000000	97.001764 
3998.000000	97.000921 
3997.000000	97.000136 
3996.000000	96.999461 
3995.000000	96.998885 
3994.000000	96.998384 
3993.000000	96.997898 
3992.000000	96.997339 
3991.000000	96.996639 
3990.000000	96.995824 
3989.000000	96.995052 
3988.000000	96.994413 
3987.000000	96.993876 
3986.000000	96.993377 
3985.000000	96.992899 
3984.000000	96.992449 
3983.000000	96.991981 
3982.000000	96.991450 
3981.000000	96.990863 
3980.000000	96.990249 
3979.000000	96.989594 
3978.000000	96.988866 
3977.000000	96.988130 
3976.000000	96.987539 
3975.000000	96.987152 
3974.000000	96.986873 
3973.000000	96.986528 
3972.000000	96.986009 
3971.000000	96.985308 
3970.000000	96.984516 
3969.000000	96.983785 
3968.000000	96.983234 
3967.000000	96.982854 
3966.000000	96.982517 
3965.000000	96.982074 
3964.000000	96.981451 
3963.000000	96.980664 
3962.000000	96.979825 
3961.000000	96.979101 
3960.000000	96.978572 
3959.000000	96.978188 
3958.000000	96.977856 
3957.000000	96.977560 
3956.000000	96.977313 
3955.000000	96.977069 
3954.000000	96.976759 
3953.000000	96.976362 
3952.000000	96.975903 
3951.000000	96.975392 
3950.000000	96.974816 
3949.000000	96.974188 
3948.000000	96.973570 
3947.000000	96.973051 
3946.000000	96.972658 
3945.000000	96.972312 
3944.000000	96.971875 
3943.000000	96.971313 
3942.000000	96.970743 
3941.000000	96.970306 
3940.000000	96.970015 
3939.000000	96.969761 
3938.000000	96.969471 
3937.000000	96.969201 
3936.000000	96.969009 
3935.000000	96.968824 
3934.000000	96.968520 
3933.000000	96.968084 
3932.000000	96.967648 
3931.000000	96.967321 
3930.000000	96.967085 
3929.000000	96.966911 
3928.000000	96.966764 
3927.000000	96.966574 
3926.000000	96.966293 
3925.000000	96.965979 
3924.000000	96.965691 
3923.000000	96.965420 
3922.000000	96.965140 
3921.000000	96.964837 
3920.000000	96.964513 
3919.000000	96.964180 
3918.000000	96.963849 
3917.000000	96.963523 
3916.000000	96.963208 
3915.000000	96.962918 
3914.000000	96.962663 
3913.000000	96.962442 
3912.000000	96.962237 
3911.000000	96.962031 
3910.000000	96.961825 
3909.000000	96.961629 
3908.000000	96.961441 
3907.000000	96.961242 
3906.000000	96.961012 
3905.000000	96.960742 
3904.000000	96.960444 
3903.000000	96.960139 
3902.000000	96.959841 
3901.000000	96.959559 
3900.000000	96.959292 
3899.000000	96.959039 
3898.000000	96.958804 
3897.000000	96.958576 
3896.000000	96.958332 
3895.000000	96.958049 
3894.000000	96.957725 
3893.000000	96.957365 
3892.000000	96.956976 
3891.000000	96.956567 
3890.000000	96.956159 
3889.000000	96.955769 
3888.000000	96.955396 
3887.000000	96.955026 
3886.000000	96.954656 
3885.000000	96.954308 
3884.000000	96.953999 
3883.000000	96.953713 
3882.000000	96.953423 
3881.000000	96.953117 
3880.000000	96.952819 
3879.000000	96.952558 
3878.000000	96.952342 
3877.000000	96.952149 
3876.000000	96.951948 
3875.000000	96.951722 
3874.000000	96.951473 
3873.000000	96.951208 
3872.000000	96.950918 
3871.000000	96.950590 
3870.000000	96.950240 
3869.000000	96.949910 
3868.000000	96.949626 
3867.000000	96.949371 
3866.000000	96.949122 
3865.000000	96.948885 
3864.000000	96.948688 
3863.000000	96.948531 
3862.000000	96.948388 
3861.000000	96.948244 
3860.000000	96.948100 
3859.000000	96.947953 
3858.000000	96.947791 
3857.000000	96.947606 
3856.000000	96.947402 
3855.000000	96.947186 
3854.000000	96.946974 
3853.000000	96.946800 
3852.000000	96.946685 
3851.000000	96.946626 
3850.000000	96.946606 
3849.000000	96.946608 
3848.000000	96.946618 
3847.000000	96.946625 
3846.000000	96.946620 
3845.000000	96.946595 
3844.000000	96.946542 
3843.000000	96.946452 
3842.000000	96.946328 
3841.000000	96.946189 
3840.000000	96.946055 
3839.000000	96.945935 
3838.000000	96.945826 
3837.000000	96.945718 
3836.000000	96.945605 
3835.000000	96.945491 
3834.000000	96.945386 
3833.000000	96.945296 
3832.000000	96.945221 
3831.000000	96.945160 
3830.000000	96.945110 
3829.000000	96.945068 
3828.000000	96.945031 
3827.000000	96.944982 
3826.000000	96.944909 
3825.000000	96.944814 
3824.000000	96.944705 
3823.000000	96.944571 
3822.000000	96.944390 
3821.000000	96.944165 
3820.000000	96.943935 
3819.000000	96.943727 
3818.000000	96.943535 
3817.000000	96.943338 
3816.000000	96.943140 
3815.000000	96.942970 
3814.000000	96.942837 
3813.000000	96.942718 
3812.000000	96.942594 
3811.000000	96.942466 
3810.000000	96.942340 
3809.000000	96.942211 
3808.000000	96.942058 
3807.000000	96.941874 
3806.000000	96.941681 
3805.000000	96.941506 
3804.000000	96.941356 
3803.000000	96.941218 
3802.000000	96.941092 
3801.000000	96.941003 
3800.000000	96.940962 
3799.000000	96.940942 
3798.000000	96.940903 
3797.000000	96.940830 
3796.000000	96.940736 
3795.000000	96.940626 
3794.000000	96.940488 
3793.000000	96.940308 
3792.000000	96.940087 
3791.000000	96.939830 
3790.000000	96.939539 
3789.000000	96.939218 
3788.000000	96.938873 
3787.000000	96.938494 
3786.000000	96.938068 
3785.000000	96.937600 
3784.000000	96.937107 
3783.000000	96.936600 
3782.000000	96.936071 
3781.000000	96.935520 
3780.000000	96.934969 
3779.000000	96.934445 
3778.000000	96.933941 
3777.000000	96.933428 
3776.000000	96.932894 
3775.000000	96.932348 
3774.000000	96.931803 
3773.000000	96.931250 
3772.000000	96.930667 
3771.000000	96.930044 
3770.000000	96.929387 
3769.000000	96.928707 
3768.000000	96.927992 
3767.000000	96.927227 
3766.000000	96.926413 
3765.000000	96.925574 
3764.000000	96.924726 
3763.000000	96.923864 
3762.000000	96.922963 
3761.000000	96.922007 
3760.000000	96.920999 
3759.000000	96.919939 
3758.000000	96.918820 
3757.000000	96.917644 
3756.000000	96.916436 
3755.000000	96.915216 
3754.000000	96.913982 
3753.000000	96.912726 
3752.000000	96.911436 
3751.000000	96.910123 
3750.000000	96.908784 
3749.000000	96.907272 
3748.000000	96.905703 
3747.000000	96.904477 
3746.000000	96.903294 
3745.000000	96.901089 
3744.000000	96.898442 
3743.000000	96.897081 
3742.000000	96.896738 
3741.000000	96.895471 
3740.000000	96.892811 
3739.000000	96.891098 
3738.000000	96.891780 
3737.000000	96.891955 
3736.000000	96.888912 
3735.000000	96.885412 
3734.000000	96.885023 
3733.000000	96.884886 
3732.000000	96.881033 
3731.000000	96.875027 
3730.000000	96.870961 
3729.000000	96.869248 
3728.000000	96.866144 
3727.000000	96.859758 
3726.000000	96.853887 
3725.000000	96.851681 
3724.000000	96.850532 
3723.000000	96.847201 
3722.000000	96.843119 
3721.000000	96.840846 
3720.000000	96.839472 
3719.000000	96.836712 
3718.000000	96.831161 
3717.000000	96.824938 
3716.000000	96.821574 
3715.000000	96.819938 
3714.000000	96.814807 
3713.000000	96.804585 
3712.000000	96.795291 
3711.000000	96.791424 
3710.000000	96.788183 
3709.000000	96.779489 
3708.000000	96.764119 
3707.000000	96.745096 
3706.000000	96.727589 
3705.000000	96.715118 
3704.000000	96.706947 
3703.000000	96.698757 
3702.000000	96.686018 
3701.000000	96.667067 
3700.000000	96.644703 
3699.000000	96.623668 
3698.000000	96.605209 
3697.000000	96.589127 
3696.000000	96.579352 
3695.000000	96.577995 
3694.000000	96.579233 
3693.000000	96.576859 
3692.000000	96.572916 
3691.000000	96.573221 
3690.000000	96.575630 
3689.000000	96.572823 
3688.000000	96.564070 
3687.000000	96.555453 
3686.000000	96.549096 
3685.000000	96.539934 
3684.000000	96.526197 
3683.000000	96.515077 
3682.000000	96.510867 
3681.000000	96.504230 
3680.000000	96.486602 
3679.000000	96.466047 
3678.000000	96.455483 
3677.000000	96.445707 
3676.000000	96.421511 
3675.000000	96.392365 
3674.000000	96.373213 
3673.000000	96.362203 
3672.000000	96.345697 
3671.000000	96.316395 
3670.000000	96.289119 
3669.000000	96.277704 
3668.000000	96.270484 
3667.000000	96.253096 
3666.000000	96.227595 
3665.000000	96.203540 
3664.000000	96.185616 
3663.000000	96.170539 
3662.000000	96.151328 
3661.000000	96.124968 
3660.000000	96.095733 
3659.000000	96.068522 
3658.000000	96.042418 
3657.000000	96.011264 
3656.000000	95.975856 
3655.000000	95.944182 
3654.000000	95.920028 
3653.000000	95.898355 
3652.000000	95.870563 
3651.000000	95.838399 
3650.000000	95.817510 
3649.000000	95.811923 
3648.000000	95.804429 
3647.000000	95.785029 
3646.000000	95.760936 
3645.000000	95.740147 
3644.000000	95.722413 
3643.000000	95.704609 
3642.000000	95.686086 
3641.000000	95.668257 
3640.000000	95.649063 
3639.000000	95.624441 
3638.000000	95.596536 
3637.000000	95.572058 
3636.000000	95.551516 
3635.000000	95.525292 
3634.000000	95.488316 
3633.000000	95.449466 
3632.000000	95.420444 
3631.000000	95.399513 
3630.000000	95.377707 
3629.000000	95.363680 
3628.000000	95.366455 
3627.000000	95.369735 
3626.000000	95.355861 
3625.000000	95.327737 
3624.000000	95.301597 
3623.000000	95.291129 
3622.000000	95.295480 
3621.000000	95.302807 
3620.000000	95.306357 
3619.000000	95.309450 
3618.000000	95.313831 
3617.000000	95.318610 
3616.000000	95.326379 
3615.000000	95.338556 
3614.000000	95.353706 
3613.000000	95.370783 
3612.000000	95.388097 
3611.000000	95.400776 
3610.000000	95.404631 
3609.000000	95.402725 
3608.000000	95.403701 
3607.000000	95.410945 
3606.000000	95.419246 
3605.000000	95.425306 
3604.000000	95.432743 
3603.000000	95.446198 
3602.000000	95.464880 
3601.000000	95.482980 
3600.000000	95.497270 
3599.000000	95.507456 
3598.000000	95.513789 
3597.000000	95.518436 
3596.000000	95.525992 
3595.000000	95.536626 
3594.000000	95.545487 
3593.000000	95.547293 
3592.000000	95.542063 
3591.000000	95.535313 
3590.000000	95.531814 
3589.000000	95.532864 
3588.000000	95.539406 
3587.000000	95.550691 
3586.000000	95.560784 
3585.000000	95.564934 
3584.000000	95.565322 
3583.000000	95.566887 
3582.000000	95.571648 
3581.000000	95.576614 
3580.000000	95.577778 
3579.000000	95.574203 
3578.000000	95.568512 
3577.000000	95.564246 
3576.000000	95.563232 
3575.000000	95.564737 
3574.000000	95.566614 
3573.000000	95.567863 
3572.000000	95.569185 
3571.000000	95.572403 
3570.000000	95.577725 
3569.000000	95.582529 
3568.000000	95.585255 
3567.000000	95.587424 
3566.000000	95.588484 
3565.000000	95.585344 
3564.000000	95.577640 
3563.000000	95.568481 
3562.000000	95.561380 
3561.000000	95.557981 
3560.000000	95.557827 
3559.000000	95.559589 
3558.000000	95.561742 
3557.000000	95.563133 
3556.000000	95.563388 
3555.000000	95.562895 
3554.000000	95.562124 
3553.000000	95.561524 
3552.000000	95.561497 
3551.000000	95.561793 
3550.000000	95.561484 
3549.000000	95.560024 
3548.000000	95.558256 
3547.000000	95.557628 
3546.000000	95.558232 
3545.000000	95.558745 
3544.000000	95.558460 
3543.000000	95.557915 
3542.000000	95.557570 
3541.000000	95.557283 
3540.000000	95.556906 
3539.000000	95.556562 
3538.000000	95.556273 
3537.000000	95.555888 
3536.000000	95.555341 
3535.000000	95.554542 
3534.000000	95.553385 
3533.000000	95.551985 
3532.000000	95.550902 
3531.000000	95.550641 
3530.000000	95.550970 
3529.000000	95.550990 
3528.000000	95.550067 
3527.000000	95.548402 
3526.000000	95.546627 
3525.000000	95.545203 
3524.000000	95.544338 
3523.000000	95.544180 
3522.000000	95.544727 
3521.000000	95.545621 
3520.000000	95.546327 
3519.000000	95.546494 
3518.000000	95.546088 
3517.000000	95.545156 
3516.000000	95.543680 
3515.000000	95.541769 
3514.000000	95.539898 
3513.000000	95.538533 
3512.000000	95.537518 
3511.000000	95.536168 
3510.000000	95.534067 
3509.000000	95.531601 
3508.000000	95.529661 
3507.000000	95.528814 
3506.000000	95.528864 
3505.000000	95.529038 
3504.000000	95.528644 
3503.000000	95.527489 
3502.000000	95.525751 
3501.000000	95.523738 
3500.000000	95.521818 
3499.000000	95.520402 
3498.000000	95.519817 
3497.000000	95.520136 
3496.000000	95.520910 
3495.000000	95.521167 
3494.000000	95.520063 
3493.000000	95.517581 
3492.000000	95.514405 
3491.000000	95.511214 
3490.000000	95.508326 
3489.000000	95.505845 
3488.000000	95.503770 
3487.000000	95.501805 
3486.000000	95.499425 
3485.000000	95.496472 
3484.000000	95.493455 
3483.000000	95.491046 
3482.000000	95.489534 
3481.000000	95.488810 
3480.000000	95.488629 
3479.000000	95.488570 
3478.000000	95.487963 
3477.000000	95.486252 
3476.000000	95.483452 
3475.000000	95.480055 
3474.000000	95.476534 
3473.000000	95.473175 
3472.000000	95.470242 
3471.000000	95.467960 
3470.000000	95.466326 
3469.000000	95.465108 
3468.000000	95.464100 
3467.000000	95.463317 
3466.000000	95.462775 
3465.000000	95.462037 
3464.000000	95.460219 
3463.000000	95.456712 
3462.000000	95.451876 
3461.000000	95.446935 
3460.000000	95.443027 
3459.000000	95.440252 
3458.000000	95.437734 
3457.000000	95.434482 
3456.000000	95.430243 
3455.000000	95.425649 
3454.000000	95.421683 
3453.000000	95.418897 
3452.000000	95.417259 
3451.000000	95.416339 
3450.000000	95.415409 
3449.000000	95.413574 
3448.000000	95.410131 
3447.000000	95.405026 
3446.000000	95.398911 
3445.000000	95.392830 
3444.000000	95.387800 
3443.000000	95.384470 
3442.000000	95.382773 
3441.000000	95.381843 
3440.000000	95.380574 
3439.000000	95.378418 
3438.000000	95.375530 
3437.000000	95.372233 
3436.000000	95.368700 
3435.000000	95.365190 
3434.000000	95.362157 
3433.000000	95.359750 
3432.000000	95.357566 
3431.000000	95.355098 
3430.000000	95.352309 
3429.000000	95.349597 
3428.000000	95.347203 
3427.000000	95.344922 
3426.000000	95.342530 
3425.000000	95.340342 
3424.000000	95.338891 
3423.000000	95.337891 
3422.000000	95.336034 
3421.000000	95.332306 
3420.000000	95.327320 
3419.000000	95.322790 
3418.000000	95.319737 
3417.000000	95.317795 
3416.000000	95.316211 
3415.000000	95.314760 
3414.000000	95.313402 
3413.000000	95.311718 
3412.000000	95.309333 
3411.000000	95.306595 
3410.000000	95.304351 
3409.000000	95.303113 
3408.000000	95.302707 
3407.000000	95.302623 
3406.000000	95.302716 
3405.000000	95.303579 
3404.000000	95.305894 
3403.000000	95.309146 
3402.000000	95.311419 
3401.000000	95.310975 
3400.000000	95.307847 
3399.000000	95.303592 
3398.000000	95.299807 
3397.000000	95.297191 
3396.000000	95.295842 
3395.000000	95.295711 
3394.000000	95.296586 
3393.000000	95.298029 
3392.000000	95.299529 
3391.000000	95.300643 
3390.000000	95.301034 
3389.000000	95.300657 
3388.000000	95.299985 
3387.000000	95.299796 
3386.000000	95.300491 
3385.000000	95.301576 
3384.000000	95.301973 
3383.000000	95.301073 
3382.000000	95.299622 
3381.000000	95.299211 
3380.000000	95.300568 
3379.000000	95.302677 
3378.000000	95.304048 
3377.000000	95.304733 
3376.000000	95.306099 
3375.000000	95.308646 
3374.000000	95.311072 
3373.000000	95.311899 
3372.000000	95.311300 
3371.000000	95.310750 
3370.000000	95.311266 
3369.000000	95.312716 
3368.000000	95.314608 
3367.000000	95.316736 
3366.000000	95.318847 
3365.000000	95.320326 
3364.000000	95.320710 
3363.000000	95.320261 
3362.000000	95.319746 
3361.000000	95.319779 
3360.000000	95.320555 
3359.000000	95.322012 
3358.000000	95.323875 
3357.000000	95.325632 
3356.000000	95.326915 
3355.000000	95.328034 
3354.000000	95.329964 
3353.000000	95.333575 
3352.000000	95.338785 
3351.000000	95.344433 
3350.000000	95.349095 
3349.000000	95.352060 
3348.000000	95.353562 
3347.000000	95.354438 
3346.000000	95.355644 
3345.000000	95.357733 
3344.000000	95.360456 
3343.000000	95.362881 
3342.000000	95.364336 
3341.000000	95.365143 
3340.000000	95.365998 
3339.000000	95.366776 
3338.000000	95.366668 
3337.000000	95.365584 
3336.000000	95.364656 
3335.000000	95.365004 
3334.000000	95.366553 
3333.000000	95.368468 
3332.000000	95.370426 
3331.000000	95.372972 
3330.000000	95.376655 
3329.000000	95.381254 
3328.000000	95.385970 
3327.000000	95.390103 
3326.000000	95.393459 
3325.000000	95.396181 
3324.000000	95.398302 
3323.000000	95.399554 
3322.000000	95.399786 
3321.000000	95.399484 
3320.000000	95.399587 
3319.000000	95.400713 
3318.000000	95.402787 
3317.000000	95.405402 
3316.000000	95.408272 
3315.000000	95.411200 
3314.000000	95.413874 
3313.000000	95.415988 
3312.000000	95.417541 
3311.000000	95.418897 
3310.000000	95.420558 
3309.000000	95.422867 
3308.000000	95.425793 
3307.000000	95.428836 
3306.000000	95.431298 
3305.000000	95.432890 
3304.000000	95.434093 
3303.000000	95.435835 
3302.000000	95.438666 
3301.000000	95.442230 
3300.000000	95.445474 
3299.000000	95.447454 
3298.000000	95.448023 
3297.000000	95.447939 
3296.000000	95.448353 
3295.000000	95.450006 
3294.000000	95.452890 
3293.000000	95.456422 
3292.000000	95.459739 
3291.000000	95.462027 
3290.000000	95.462886 
3289.000000	95.462601 
3288.000000	95.461988 
3287.000000	95.461726 
3286.000000	95.461875 
3285.000000	95.462170 
3284.000000	95.462673 
3283.000000	95.463946 
3282.000000	95.466581 
3281.000000	95.470570 
3280.000000	95.475009 
3279.000000	95.478617 
3278.000000	95.480944 
3277.000000	95.482911 
3276.000000	95.485781 
3275.000000	95.489600 
3274.000000	95.493219 
3273.000000	95.495976 
3272.000000	95.498618 
3271.000000	95.502149 
3270.000000	95.506256 
3269.000000	95.509495 
3268.000000	95.510881 
3267.000000	95.510786 
3266.000000	95.510521 
3265.000000	95.511360 
3264.000000	95.513641 
3263.000000	95.516370 
3262.000000	95.517930 
3261.000000	95.517580 
3260.000000	95.516037 
3259.000000	95.514603 
3258.000000	95.514141 
3257.000000	95.515125 
3256.000000	95.517956 
3255.000000	95.522407 
3254.000000	95.527306 
3253.000000	95.531751 
3252.000000	95.536434 
3251.000000	95.542812 
3250.000000	95.550949 
3249.000000	95.558819 
3248.000000	95.564074 
3247.000000	95.566176 
3246.000000	95.566587 
3245.000000	95.567251 
3244.000000	95.568972 
3243.000000	95.571152 
3242.000000	95.572886 
3241.000000	95.574019 
3240.000000	95.575008 
3239.000000	95.576147 
3238.000000	95.577430 
3237.000000	95.579082 
3236.000000	95.581542 
3235.000000	95.584507 
3234.000000	95.586501 
3233.000000	95.586242 
3232.000000	95.584524 
3231.000000	95.584073 
3230.000000	95.587185 
3229.000000	95.593821 
3228.000000	95.601985 
3227.000000	95.609842 
3226.000000	95.617210 
3225.000000	95.624833 
3224.000000	95.632736 
3223.000000	95.639888 
3222.000000	95.645518 
3221.000000	95.650138 
3220.000000	95.654672 
3219.000000	95.659044 
3218.000000	95.662239 
3217.000000	95.663585 
3216.000000	95.663424 
3215.000000	95.662781 
3214.000000	95.662727 
3213.000000	95.663791 
3212.000000	95.665637 
3211.000000	95.667387 
3210.000000	95.668728 
3209.000000	95.670558 
3208.000000	95.674046 
3207.000000	95.679057 
3206.000000	95.683993 
3205.000000	95.687394 
3204.000000	95.689440 
3203.000000	95.691784 
3202.000000	95.696149 
3201.000000	95.703075 
3200.000000	95.711633 
3199.000000	95.720222 
3198.000000	95.727756 
3197.000000	95.734044 
3196.000000	95.739139 
3195.000000	95.742983 
3194.000000	95.746057 
3193.000000	95.749818 
3192.000000	95.755593 
3191.000000	95.762893 
3190.000000	95.769381 
3189.000000	95.772908 
3188.000000	95.773378 
3187.000000	95.772805 
3186.000000	95.773643 
3185.000000	95.776704 
3184.000000	95.780609 
3183.000000	95.783479 
3182.000000	95.785188 
3181.000000	95.787472 
3180.000000	95.791743 
3179.000000	95.797532 
3178.000000	95.803467 
3177.000000	95.809070 
3176.000000	95.814840 
3175.000000	95.821163 
3174.000000	95.828074 
3173.000000	95.835694 
3172.000000	95.843811 
3171.000000	95.851248 
3170.000000	95.856857 
3169.000000	95.861168 
3168.000000	95.866002 
3167.000000	95.872216 
3166.000000	95.878712 
3165.000000	95.883899 
3164.000000	95.887177 
3163.000000	95.888767 
3162.000000	95.888974 
3161.000000	95.888188 
3160.000000	95.887118 
3159.000000	95.886564 
3158.000000	95.887198 
3157.000000	95.889666 
3156.000000	95.894456 
3155.000000	95.901337 
3154.000000	95.909197 
3153.000000	95.916744 
3152.000000	95.923235 
3151.000000	95.928556 
3150.000000	95.933006 
3149.000000	95.937093 
3148.000000	95.941197 
3147.000000	95.945415 
3146.000000	95.950042 
3145.000000	95.955875 
3144.000000	95.963356 
3143.000000	95.971451 
3142.000000	95.978247 
3141.000000	95.982943 
3140.000000	95.986525 
3139.000000	95.990355 
3138.000000	95.994695 
3137.000000	95.998768 
3136.000000	96.001635 
3135.000000	96.002820 
3134.000000	96.002746 
3133.000000	96.002801 
3132.000000	96.004385 
3131.000000	96.007759 
3130.000000	96.012258 
3129.000000	96.017492 
3128.000000	96.023688 
3127.000000	96.030773 
3126.000000	96.037838 
3125.000000	96.043906 
3124.000000	96.048754 
3123.000000	96.052686 
3122.000000	96.055994 
3121.000000	96.059207 
3120.000000	96.063311 
3119.000000	96.068957 
3118.000000	96.075624 
3117.000000	96.082013 
3116.000000	96.087228 
3115.000000	96.091258 
3114.000000	96.094557 
3113.000000	96.097719 
3112.000000	96.101502 
3111.000000	96.106539 
3110.000000	96.112590 
3109.000000	96.118359 
3108.000000	96.122569 
3107.000000	96.125231 
3106.000000	96.127534 
3105.000000	96.130452 
3104.000000	96.133782 
3103.000000	96.136677 
3102.000000	96.138682 
3101.000000	96.140040 
3100.000000	96.141099 
3099.000000	96.142051 
3098.000000	96.143505 
3097.000000	96.146683 
3096.000000	96.152272 
3095.000000	96.159258 
3094.000000	96.165656 
3093.000000	96.170514 
3092.000000	96.174537 
3091.000000	96.178658 
3090.000000	96.182793 
3089.000000	96.186387 
3088.000000	96.189591 
3087.000000	96.193281 
3086.000000	96.198076 
3085.000000	96.203628 
3084.000000	96.208815 
3083.000000	96.212657 
3082.000000	96.215189 
3081.000000	96.217486 
3080.000000	96.220437 
3079.000000	96.223559 
3078.000000	96.225658 
3077.000000	96.226475 
3076.000000	96.227006 
3075.000000	96.228199 
3074.000000	96.230068 
3073.000000	96.232316 
3072.000000	96.235098 
3071.000000	96.238617 
3070.000000	96.242529 
3069.000000	96.246313 
3068.000000	96.249905 
3067.000000	96.253458 
3066.000000	96.256739 
3065.000000	96.259336 
3064.000000	96.261291 
3063.000000	96.263021 
3062.000000	96.264778 
3061.000000	96.266641 
3060.000000	96.268867 
3059.000000	96.271793 
3058.000000	96.275477 
3057.000000	96.279661 
3056.000000	96.283845 
3055.000000	96.287165 
3054.000000	96.288692 
3053.000000	96.288349 
3052.000000	96.287486 
3051.000000	96.287927 
3050.000000	96.290251 
3049.000000	96.293551 
3048.000000	96.296610 
3047.000000	96.298926 
3046.000000	96.300509 
3045.000000	96.301386 
3044.000000	96.301791 
3043.000000	96.302509 
3042.000000	96.304436 
3041.000000	96.307661 
3040.000000	96.311111 
3039.000000	96.313413 
3038.000000	96.314154 
3037.000000	96.314151 
3036.000000	96.314499 
3035.000000	96.315382 
3034.000000	96.316171 
3033.000000	96.316513 
3032.000000	96.316744 
3031.000000	96.317210 
3030.000000	96.317736 
3029.000000	96.318064 
3028.000000	96.318297 
3027.000000	96.318499 
3026.000000	96.318224 
3025.000000	96.316999 
3024.000000	96.315150 
3023.000000	96.313606 
3022.000000	96.312961 
3021.000000	96.313254 
3020.000000	96.314514 
3019.000000	96.316725 
3018.000000	96.319098 
3017.000000	96.320137 
3016.000000	96.318933 
3015.000000	96.316139 
3014.000000	96.313595 
3013.000000	96.313032 
3012.000000	96.314899 
3011.000000	96.317862 
3010.000000	96.319463 
3009.000000	96.318057 
3008.000000	96.314189 
3007.000000	96.309972 
3006.000000	96.306905 
3005.000000	96.304822 
3004.000000	96.303009 
3003.000000	96.301545 
3002.000000	96.301226 
3001.000000	96.302635 
3000.000000	96.305537 
2999.000000	96.308657 
2998.000000	96.310027 
2997.000000	96.308237 
2996.000000	96.303781 
2995.000000	96.298941 
2994.000000	96.295834 
2993.000000	96.294640 
2992.000000	96.293781 
2991.000000	96.291539 
2990.000000	96.287571 
2989.000000	96.283319 
2988.000000	96.280997 
2987.000000	96.281799 
2986.000000	96.284995 
2985.000000	96.288923 
2984.000000	96.292679 
2983.000000	96.296460 
2982.000000	96.300528 
2981.000000	96.304555 
2980.000000	96.307939 
2979.000000	96.310090 
2978.000000	96.310462 
2977.000000	96.309082 
2976.000000	96.307121 
2975.000000	96.306247 
2974.000000	96.307262 
2973.000000	96.309898 
2972.000000	96.313762 
2971.000000	96.318589 
2970.000000	96.323551 
2969.000000	96.327424 
2968.000000	96.329834 
2967.000000	96.331494 
2966.000000	96.332959 
2965.000000	96.334073 
2964.000000	96.334974 
2963.000000	96.336615 
2962.000000	96.339642 
2961.000000	96.343545 
2960.000000	96.347680 
2959.000000	96.352519 
2958.000000	96.359026 
2957.000000	96.367041 
2956.000000	96.374886 
2955.000000	96.380474 
2954.000000	96.382722 
2953.000000	96.382423 
2952.000000	96.382081 
2951.000000	96.384237 
2950.000000	96.389122 
2949.000000	96.394312 
2948.000000	96.397297 
2947.000000	96.398031 
2946.000000	96.398506 
2945.000000	96.400206 
2944.000000	96.402757 
2943.000000	96.404865 
2942.000000	96.405544 
2941.000000	96.404351 
2940.000000	96.401487 
2939.000000	96.398253 
2938.000000	96.396703 
2937.000000	96.398027 
2936.000000	96.401332 
2935.000000	96.404389 
2934.000000	96.405643 
2933.000000	96.405293 
2932.000000	96.404636 
2931.000000	96.404831 
2930.000000	96.406298 
2929.000000	96.408777 
2928.000000	96.411540 
2927.000000	96.413681 
2926.000000	96.414658 
2925.000000	96.414773 
2924.000000	96.414966 
2923.000000	96.415947 
2922.000000	96.417554 
2921.000000	96.419084 
2920.000000	96.420255 
2919.000000	96.421612 
2918.000000	96.423790 
2917.000000	96.426417 
2916.000000	96.428062 
2915.000000	96.427568 
2914.000000	96.425391 
2913.000000	96.423410 
2912.000000	96.423131 
2911.000000	96.424278 
2910.000000	96.425415 
2909.000000	96.425903 
2908.000000	96.426747 
2907.000000	96.429189 
2906.000000	96.432955 
2905.000000	96.436357 
2904.000000	96.437941 
2903.000000	96.438021 
2902.000000	96.438291 
2901.000000	96.440060 
2900.000000	96.443339 
2899.000000	96.447198 
2898.000000	96.450962 
2897.000000	96.454571 
2896.000000	96.457820 
2895.000000	96.459906 
2894.000000	96.460379 
2893.000000	96.460356 
2892.000000	96.461876 
2891.000000	96.465716 
2890.000000	96.470512 
2889.000000	96.474502 
2888.000000	96.477567 
2887.000000	96.480631 
2886.000000	96.483580 
2885.000000	96.485152 
2884.000000	96.485133 
2883.000000	96.485322 
2882.000000	96.487477 
2881.000000	96.491251 
2880.000000	96.495233 
2879.000000	96.499393 
2878.000000	96.504998 
2877.000000	96.512166 
2876.000000	96.518990 
2875.000000	96.523654 
2874.000000	96.526327 
2873.000000	96.528290 
2872.000000	96.530091 
2871.000000	96.531436 
2870.000000	96.532289 
2869.000000	96.532970 
2868.000000	96.533373 
2867.000000	96.533108 
2866.000000	96.532414 
2865.000000	96.532105 
2864.000000	96.532570 
2863.000000	96.533707 
2862.000000	96.535978 
2861.000000	96.540390 
2860.000000	96.546948 
2859.000000	96.554085 
2858.000000	96.560298 
2857.000000	96.565661 
2856.000000	96.570967 
2855.000000	96.575993 
2854.000000	96.579634 
2853.000000	96.581531 
2852.000000	96.582663 
2851.000000	96.584272 
2850.000000	96.586848 
2849.000000	96.590256 
2848.000000	96.594204 
2847.000000	96.598198 
2846.000000	96.601517 
2845.000000	96.603709 
2844.000000	96.605068 
2843.000000	96.606454 
2842.000000	96.608570 
2841.000000	96.611321 
2840.000000	96.613783 
2839.000000	96.615031 
2838.000000	96.615242 
2837.000000	96.615836 
2836.000000	96.618194 
2835.000000	96.622331 
2834.000000	96.627025 
2833.000000	96.631081 
2832.000000	96.634097 
2831.000000	96.636088 
2830.000000	96.637002 
2829.000000	96.636913 
2828.000000	96.636418 
2827.000000	96.636471 
2826.000000	96.637818 
2825.000000	96.640645 
2824.000000	96.644553 
2823.000000	96.648739 
2822.000000	96.652399 
2821.000000	96.655151 
2820.000000	96.657051 
2819.000000	96.658311 
2818.000000	96.659138 
2817.000000	96.659800 
2816.000000	96.660556 
2815.000000	96.661447 
2814.000000	96.662302 
2813.000000	96.662992 
2812.000000	96.663563 
2811.000000	96.664140 
2810.000000	96.664901 
2809.000000	96.666142 
2808.000000	96.668130 
2807.000000	96.670792 
2806.000000	96.673732 
2805.000000	96.676563 
2804.000000	96.679033 
2803.000000	96.680887 
2802.000000	96.681983 
2801.000000	96.682648 
2800.000000	96.683624 
2799.000000	96.685362 
2798.000000	96.687559 
2797.000000	96.689524 
2796.000000	96.690931 
2795.000000	96.692029 
2794.000000	96.693245 
2793.000000	96.694785 
2792.000000	96.696565 
2791.000000	96.698314 
2790.000000	96.699712 
2789.000000	96.700621 
2788.000000	96.701227 
2787.000000	96.701934 
2786.000000	96.703037 
2785.000000	96.704552 
2784.000000	96.706298 
2783.000000	96.708041 
2782.000000	96.709595 
2781.000000	96.710914 
2780.000000	96.712129 
2779.000000	96.713442 
2778.000000	96.714910 
2777.000000	96.716366 
2776.000000	96.717589 
2775.000000	96.718523 
2774.000000	96.719315 
2773.000000	96.720164 
2772.000000	96.721163 
2771.000000	96.722292 
2770.000000	96.723537 
2769.000000	96.724932 
2768.000000	96.726460 
2767.000000	96.728007 
2766.000000	96.729434 
2765.000000	96.730676 
2764.000000	96.731752 
2763.000000	96.732710 
2762.000000	96.733595 
2761.000000	96.734468 
2760.000000	96.735411 
2759.000000	96.736484 
2758.000000	96.737675 
2757.000000	96.738889 
2756.000000	96.739970 
2755.000000	96.740833 
2754.000000	96.741540 
2753.000000	96.742262 
2752.000000	96.743086 
2751.000000	96.743942 
2750.000000	96.744745 
2749.000000	96.745532 
2748.000000	96.746388 
2747.000000	96.747296 
2746.000000	96.748148 
2745.000000	96.748903 
2744.000000	96.749653 
2743.000000	96.750497 
2742.000000	96.751422 
2741.000000	96.752334 
2740.000000	96.753181 
2739.000000	96.753984 
2738.000000	96.754774 
2737.000000	96.755562 
2736.000000	96.756348 
2735.000000	96.757135 
2734.000000	96.757925 
2733.000000	96.758713 
2732.000000	96.759498 
2731.000000	96.760280 
2730.000000	96.761058 
2729.000000	96.761828 
2728.000000	96.762584 
2727.000000	96.763319 
2726.000000	96.764030 
2725.000000	96.764724 
2724.000000	96.765414 
2723.000000	96.766113 
2722.000000	96.766826 
2721.000000	96.767555 
2720.000000	96.768294 
2719.000000	96.769044 
2718.000000	96.769804 
2717.000000	96.770569 
2716.000000	96.771326 
2715.000000	96.772065 
2714.000000	96.772789 
2713.000000	96.773509 
2712.000000	96.774235 
2711.000000	96.774966 
2710.000000	96.775695 
2709.000000	96.776424 
2708.000000	96.777157 
2707.000000	96.777882 
2706.000000	96.778586 
2705.000000	96.779262 
2704.000000	96.779901 
2703.000000	96.780465 
2702.000000	96.780905 
2701.000000	96.781263 
2700.000000	96.781717 
2699.000000	96.782443 
2698.000000	96.783447 
2697.000000	96.784457 
2696.000000	96.785122 
2695.000000	96.785327 
2694.000000	96.785345 
2693.000000	96.785599 
2692.000000	96.786194 
2691.000000	96.786836 
2690.000000	96.787204 
2689.000000	96.787310 
2688.000000	96.787383 
2687.000000	96.787477 
2686.000000	96.787459 
2685.000000	96.787350 
2684.000000	96.787419 
2683.000000	96.787823 
2682.000000	96.788358 
2681.000000	96.788675 
2680.000000	96.788621 
2679.000000	96.788273 
2678.000000	96.787814 
2677.000000	96.787469 
2676.000000	96.787342 
2675.000000	96.787178 
2674.000000	96.786543 
2673.000000	96.785427 
2672.000000	96.784426 
2671.000000	96.784062 
2670.000000	96.784164 
2669.000000	96.784223 
2668.000000	96.784130 
2667.000000	96.784085 
2666.000000	96.783901 
2665.000000	96.783015 
2664.000000	96.781316 
2663.000000	96.779498 
2662.000000	96.778353 
2661.000000	96.777887 
2660.000000	96.777378 
2659.000000	96.776156 
2658.000000	96.774200 
2657.000000	96.772137 
2656.000000	96.770768 
2655.000000	96.770393 
2654.000000	96.770527 
2653.000000	96.770291 
2652.000000	96.769299 
2651.000000	96.768033 
2650.000000	96.767228 
2649.000000	96.767064 
2648.000000	96.767102 
2647.000000	96.766832 
2646.000000	96.766073 
2645.000000	96.764915 
2644.000000	96.763562 
2643.000000	96.762297 
2642.000000	96.761397 
2641.000000	96.760955 
2640.000000	96.760828 
2639.000000	96.760795 
2638.000000	96.760707 
2637.000000	96.760472 
2636.000000	96.760042 
2635.000000	96.759483 
2634.000000	96.758971 
2633.000000	96.758609 
2632.000000	96.758300 
2631.000000	96.757882 
2630.000000	96.757349 
2629.000000	96.756834 
2628.000000	96.756415 
2627.000000	96.756051 
2626.000000	96.755734 
2625.000000	96.755565 
2624.000000	96.755633 
2623.000000	96.755901 
2622.000000	96.756213 
2621.000000	96.756337 
2620.000000	96.755999 
2619.000000	96.755024 
2618.000000	96.753563 
2617.000000	96.752209 
2616.000000	96.751569 
2615.000000	96.751709 
2614.000000	96.752150 
2613.000000	96.752394 
2612.000000	96.752392 
2611.000000	96.752392 
2610.000000	96.752587 
2609.000000	96.752995 
2608.000000	96.753476 
2607.000000	96.753783 
2606.000000	96.753720 
2605.000000	96.753347 
2604.000000	96.752919 
2603.000000	96.752607 
2602.000000	96.752413 
2601.000000	96.752375 
2600.000000	96.752545 
2599.000000	96.752689 
2598.000000	96.752386 
2597.000000	96.751655 
2596.000000	96.751138 
2595.000000	96.751297 
2594.000000	96.751739 
2593.000000	96.751765 
2592.000000	96.751422 
2591.000000	96.751389 
2590.000000	96.751893 
2589.000000	96.752370 
2588.000000	96.752340 
2587.000000	96.752102 
2586.000000	96.752320 
2585.000000	96.753230 
2584.000000	96.754444 
2583.000000	96.755283 
2582.000000	96.755198 
2581.000000	96.754144 
2580.000000	96.752733 
2579.000000	96.751877 
2578.000000	96.752080 
2577.000000	96.753121 
2576.000000	96.754251 
2575.000000	96.754615 
2574.000000	96.753650 
2573.000000	96.751432 
2572.000000	96.748749 
2571.000000	96.746501 
2570.000000	96.745020 
2569.000000	96.744162 
2568.000000	96.743871 
2567.000000	96.744256 
2566.000000	96.745114 
2565.000000	96.745898 
2564.000000	96.746273 
2563.000000	96.746347 
2562.000000	96.746300 
2561.000000	96.746193 
2560.000000	96.746257 
2559.000000	96.746893 
2558.000000	96.748109 
2557.000000	96.749230 
2556.000000	96.749535 
2555.000000	96.748990 
2554.000000	96.748122 
2553.000000	96.747380 
2552.000000	96.746862 
2551.000000	96.746630 
2550.000000	96.746833 
2549.000000	96.747360 
2548.000000	96.747663 
2547.000000	96.747269 
2546.000000	96.746333 
2545.000000	96.745494 
2544.000000	96.745130 
2543.000000	96.745032 
2542.000000	96.744832 
2541.000000	96.744531 
2540.000000	96.744425 
2539.000000	96.744619 
2538.000000	96.744870 
2537.000000	96.744921 
2536.000000	96.744831 
2535.000000	96.744859 
2534.000000	96.745106 
2533.000000	96.745420 
2532.000000	96.745593 
2531.000000	96.745567 
2530.000000	96.745421 
2529.000000	96.745256 
2528.000000	96.745125 
2527.000000	96.745054 
2526.000000	96.745087 
2525.000000	96.745264 
2524.000000	96.745564 
2523.000000	96.745895 
2522.000000	96.746141 
2521.000000	96.746252 
2520.000000	96.746272 
2519.000000	96.746303 
2518.000000	96.746406 
2517.000000	96.746548 
2516.000000	96.746614 
2515.000000	96.746504 
2514.000000	96.746245 
2513.000000	96.746054 
2512.000000	96.746170 
2511.000000	96.746651 
2510.000000	96.747361 
2509.000000	96.748091 
2508.000000	96.748674 
2507.000000	96.748990 
2506.000000	96.749037 
2505.000000	96.749052 
2504.000000	96.749391 
2503.000000	96.750145 
2502.000000	96.750948 
2501.000000	96.751329 
2500.000000	96.751182 
2499.000000	96.750721 
2498.000000	96.750176 
2497.000000	96.749687 
2496.000000	96.749457 
2495.000000	96.749674 
2494.000000	96.750191 
2493.000000	96.750531 
2492.000000	96.750402 
2491.000000	96.750073 
2490.000000	96.750090 
2489.000000	96.750636 
2488.000000	96.751329 
2487.000000	96.751660 
2486.000000	96.751503 
2485.000000	96.751114 
2484.000000	96.750843 
2483.000000	96.750945 
2482.000000	96.751538 
2481.000000	96.752497 
2480.000000	96.753385 
2479.000000	96.753675 
2478.000000	96.753228 
2477.000000	96.752443 
2476.000000	96.751754 
2475.000000	96.751012 
2474.000000	96.749634 
2473.000000	96.747445 
2472.000000	96.745155 
2471.000000	96.743773 
2470.000000	96.743690 
2469.000000	96.744474 
2468.000000	96.745301 
2467.000000	96.745457 
2466.000000	96.744655 
2465.000000	96.743262 
2464.000000	96.742230 
2463.000000	96.742386 
2462.000000	96.743714 
2461.000000	96.745558 
2460.000000	96.747508 
2459.000000	96.749704 
2458.000000	96.751950 
2457.000000	96.752992 
2456.000000	96.751353 
2455.000000	96.746976 
2454.000000	96.741722 
2453.000000	96.737737 
2452.000000	96.735411 
2451.000000	96.733636 
2450.000000	96.731973 
2449.000000	96.731563 
2448.000000	96.733368 
2447.000000	96.736453 
2446.000000	96.738728 
2445.000000	96.739064 
2444.000000	96.737807 
2443.000000	96.735713 
2442.000000	96.733498 
2441.000000	96.732228 
2440.000000	96.732992 
2439.000000	96.735972 
2438.000000	96.740497 
2437.000000	96.745928 
2436.000000	96.751635 
2435.000000	96.756282 
2434.000000	96.758377 
2433.000000	96.757806 
2432.000000	96.756145 
2431.000000	96.755115 
2430.000000	96.755283 
2429.000000	96.756401 
2428.000000	96.757977 
2427.000000	96.759194 
2426.000000	96.759169 
2425.000000	96.757850 
2424.000000	96.756185 
2423.000000	96.755142 
2422.000000	96.755092 
2421.000000	96.756179 
2420.000000	96.758449 
2419.000000	96.761326 
2418.000000	96.763724 
2417.000000	96.765260 
2416.000000	96.766701 
2415.000000	96.768788 
2414.000000	96.771242 
2413.000000	96.773632 
2412.000000	96.776353 
2411.000000	96.779593 
2410.000000	96.782176 
2409.000000	96.782898 
2408.000000	96.782459 
2407.000000	96.782727 
2406.000000	96.784331 
2405.000000	96.786043 
2404.000000	96.786394 
2403.000000	96.784976 
2402.000000	96.782504 
2401.000000	96.780521 
2400.000000	96.780712 
2399.000000	96.783658 
2398.000000	96.788369 
2397.000000	96.793545 
2396.000000	96.798637 
2395.000000	96.802974 
2394.000000	96.804967 
2393.000000	96.803699 
2392.000000	96.800893 
2391.000000	96.799725 
2390.000000	96.801504 
2389.000000	96.804564 
2388.000000	96.806341 
2387.000000	96.805538 
2386.000000	96.802571 
2385.000000	96.799210 
2384.000000	96.797867 
2383.000000	96.800089 
2382.000000	96.805651 
2381.000000	96.813792 
2380.000000	96.824849 
2379.000000	96.839087 
2378.000000	96.853842 
2377.000000	96.863937 
2376.000000	96.866189 
2375.000000	96.862069 
2374.000000	96.855101 
2373.000000	96.846751 
2372.000000	96.837047 
2371.000000	96.828132 
2370.000000	96.823862 
2369.000000	96.825190 
2368.000000	96.827976 
2367.000000	96.827112 
2366.000000	96.822585 
2365.000000	96.819775 
2364.000000	96.822635 
2363.000000	96.828463 
2362.000000	96.831961 
2361.000000	96.831399 
2360.000000	96.828239 
2359.000000	96.824046 
2358.000000	96.819457 
2357.000000	96.817215 
2356.000000	96.819576 
2355.000000	96.824724 
2354.000000	96.828202 
2353.000000	96.826672 
2352.000000	96.822617 
2351.000000	96.818009 
2350.000000	96.811546 
2349.000000	96.804073 
2348.000000	96.800125 
2347.000000	96.802040 
2346.000000	96.802104 
2345.000000	96.795379 
2344.000000	96.786301 
2343.000000	96.780500 
2342.000000	96.781656 
2341.000000	96.790343 
2340.000000	96.804928 
2339.000000	96.818952 
2338.000000	96.826827 
2337.000000	96.827407 
2336.000000	96.824392 
2335.000000	96.820980 
2334.000000	96.817008 
2333.000000	96.808478 
2332.000000	96.794364 
2331.000000	96.776623 
2330.000000	96.756870 
2329.000000	96.734368 
2328.000000	96.708041 
2327.000000	96.683055 
2326.000000	96.663213 
2325.000000	96.650777 
2324.000000	96.646012 
2323.000000	96.649220 
2322.000000	96.657393 
2321.000000	96.662857 
2320.000000	96.663579 
2319.000000	96.665051 
2318.000000	96.672975 
2317.000000	96.683774 
2316.000000	96.689891 
2315.000000	96.688416 
2314.000000	96.682096 
2313.000000	96.674803 
2312.000000	96.668481 
2311.000000	96.664788 
2310.000000	96.662816 
2309.000000	96.659563 
2308.000000	96.653126 
2307.000000	96.647214 
2306.000000	96.646034 
2305.000000	96.648614 
2304.000000	96.650271 
2303.000000	96.649995 
2302.000000	96.651485 
2301.000000	96.656986 
2300.000000	96.663449 
2299.000000	96.666125 
2298.000000	96.663294 
2297.000000	96.657321 
2296.000000	96.651731 
2295.000000	96.649635 
2294.000000	96.651577 
2293.000000	96.655630 
2292.000000	96.658781 
2291.000000	96.660394 
2290.000000	96.662046 
2289.000000	96.665029 
2288.000000	96.668239 
2287.000000	96.669812 
2286.000000	96.669544 
2285.000000	96.669209 
2284.000000	96.670529 
2283.000000	96.673359 
2282.000000	96.676070 
2281.000000	96.677162 
2280.000000	96.676359 
2279.000000	96.674252 
2278.000000	96.671730 
2277.000000	96.669660 
2276.000000	96.668756 
2275.000000	96.669178 
2274.000000	96.670376 
2273.000000	96.671637 
2272.000000	96.672694 
2271.000000	96.673491 
2270.000000	96.673572 
2269.000000	96.672493 
2268.000000	96.670748 
2267.000000	96.669502 
2266.000000	96.669176 
2265.000000	96.669065 
2264.000000	96.668403 
2263.000000	96.667185 
2262.000000	96.665742 
2261.000000	96.664152 
2260.000000	96.662388 
2259.000000	96.660609 
2258.000000	96.659032 
2257.000000	96.657791 
2256.000000	96.657117 
2255.000000	96.657239 
2254.000000	96.657863 
2253.000000	96.658005 
2252.000000	96.656825 
2251.000000	96.654349 
2250.000000	96.651187 
2249.000000	96.647945 
2248.000000	96.645090 
2247.000000	96.643014 
2246.000000	96.641792 
2245.000000	96.640983 
2244.000000	96.639889 
2243.000000	96.638194 
2242.000000	96.636090 
2241.000000	96.634049 
2240.000000	96.632464 
2239.000000	96.631388 
2238.000000	96.630553 
2237.000000	96.629602 
2236.000000	96.628423 
2235.000000	96.627155 
2234.000000	96.625953 
2233.000000	96.624813 
2232.000000	96.623650 
2231.000000	96.622439 
2230.000000	96.621180 
2229.000000	96.619809 
2228.000000	96.618297 
2227.000000	96.616782 
2226.000000	96.615451 
2225.000000	96.614323 
2224.000000	96.613167 
2223.000000	96.611732 
2222.000000	96.610043 
2221.000000	96.608411 
2220.000000	96.606989 
2219.000000	96.605611 
2218.000000	96.604102 
2217.000000	96.602571 
2216.000000	96.601290 
2215.000000	96.600326 
2214.000000	96.599416 
2213.000000	96.598243 
2212.000000	96.596803 
2211.000000	96.595406 
2210.000000	96.594290 
2209.000000	96.593349 
2208.000000	96.592324 
2207.000000	96.591121 
2206.000000	96.589893 
2205.000000	96.588947 
2204.000000	96.588651 
2203.000000	96.589299 
2202.000000	96.590853 
2201.000000	96.592528 
2200.000000	96.592624 
2199.000000	96.589519 
2198.000000	96.583338 
2197.000000	96.576500 
2196.000000	96.571806 
2195.000000	96.569776 
2194.000000	96.568655 
2193.000000	96.567274 
2192.000000	96.566847 
2191.000000	96.568693 
2190.000000	96.571325 
2189.000000	96.571807 
2188.000000	96.569574 
2187.000000	96.566334 
2186.000000	96.562167 
2185.000000	96.555075 
2184.000000	96.546099 
2183.000000	96.541690 
2182.000000	96.547408 
2181.000000	96.560651 
2180.000000	96.571947 
2179.000000	96.574467 
2178.000000	96.569682 
2177.000000	96.564122 
2176.000000	96.562786 
2175.000000	96.565845 
2174.000000	96.570259 
2173.000000	96.573674 
2172.000000	96.577078 
2171.000000	96.583148 
2170.000000	96.591310 
2169.000000	96.595709 
2168.000000	96.590292 
2167.000000	96.575718 
2166.000000	96.559319 
2165.000000	96.547369 
2164.000000	96.539218 
2163.000000	96.530928 
2162.000000	96.523540 
2161.000000	96.524772 
2160.000000	96.541304 
2159.000000	96.570927 
2158.000000	96.603039 
2157.000000	96.627616 
2156.000000	96.642466 
2155.000000	96.651319 
2154.000000	96.658744 
2153.000000	96.667869 
2152.000000	96.679266 
2151.000000	96.689439 
2150.000000	96.692768 
2149.000000	96.688268 
2148.000000	96.683132 
2147.000000	96.685731 
2146.000000	96.695752 
2145.000000	96.705385 
2144.000000	96.710065 
2143.000000	96.713206 
2142.000000	96.719142 
2141.000000	96.726514 
2140.000000	96.731687 
2139.000000	96.735179 
2138.000000	96.740863 
2137.000000	96.750350 
2136.000000	96.761009 
2135.000000	96.768604 
2134.000000	96.770254 
2133.000000	96.766484 
2132.000000	96.761890 
2131.000000	96.761799 
2130.000000	96.766945 
2129.000000	96.773080 
2128.000000	96.776832 
2127.000000	96.779973 
2126.000000	96.786209 
2125.000000	96.795463 
2124.000000	96.803518 
2123.000000	96.806249 
2122.000000	96.802321 
2121.000000	96.793061 
2120.000000	96.781797 
2119.000000	96.772865 
2118.000000	96.769344 
2117.000000	96.770963 
2116.000000	96.774273 
2115.000000	96.774944 
2114.000000	96.770322 
2113.000000	96.761242 
2112.000000	96.751938 
2111.000000	96.746952 
2110.000000	96.747350 
2109.000000	96.750506 
2108.000000	96.753660 
2107.000000	96.756325 
2106.000000	96.758967 
2105.000000	96.761745 
2104.000000	96.765417 
2103.000000	96.770852 
2102.000000	96.776114 
2101.000000	96.776448 
2100.000000	96.769712 
2099.000000	96.760547 
2098.000000	96.756787 
2097.000000	96.762128 
2096.000000	96.774169 
2095.000000	96.787867 
2094.000000	96.799089 
2093.000000	96.805618 
2092.000000	96.807276 
2091.000000	96.806049 
2090.000000	96.804885 
2089.000000	96.805430 
2088.000000	96.807140 
2087.000000	96.808335 
2086.000000	96.807498 
2085.000000	96.804102 
2084.000000	96.799252 
2083.000000	96.795261 
2082.000000	96.793827 
2081.000000	96.794913 
2080.000000	96.797718 
2079.000000	96.801814 
2078.000000	96.806399 
2077.000000	96.809628 
2076.000000	96.810359 
2075.000000	96.810011 
2074.000000	96.810834 
2073.000000	96.812461 
2072.000000	96.811976 
2071.000000	96.807620 
2070.000000	96.800927 
2069.000000	96.795000 
2068.000000	96.791835 
2067.000000	96.791329 
2066.000000	96.791767 
2065.000000	96.790802 
2064.000000	96.787020 
2063.000000	96.781299 
2062.000000	96.776500 
2061.000000	96.775342 
2060.000000	96.778434 
2059.000000	96.784222 
2058.000000	96.789917 
2057.000000	96.793019 
2056.000000	96.792737 
2055.000000	96.789910 
2054.000000	96.786017 
2053.000000	96.782081 
2052.000000	96.778484 
2051.000000	96.775383 
2050.000000	96.772957 
2049.000000	96.771418 
2048.000000	96.770909 
2047.000000	96.771356 
2046.000000	96.772400 
2045.000000	96.773606 
2044.000000	96.774728 
2043.000000	96.775548 
2042.000000	96.775637 
2041.000000	96.774757 
2040.000000	96.773601 
2039.000000	96.773520 
2038.000000	96.775097 
2037.000000	96.777384 
2036.000000	96.778843 
2035.000000	96.778928 
2034.000000	96.778322 
2033.000000	96.778089 
2032.000000	96.778778 
2031.000000	96.780084 
2030.000000	96.780937 
2029.000000	96.780259 
2028.000000	96.778040 
2027.000000	96.775584 
2026.000000	96.774203 
2025.000000	96.773973 
2024.000000	96.774318 
2023.000000	96.775420 
2022.000000	96.778132 
2021.000000	96.782341 
2020.000000	96.786230 
2019.000000	96.787791 
2018.000000	96.786469 
2017.000000	96.783465 
2016.000000	96.780875 
2015.000000	96.780165 
2014.000000	96.780981 
2013.000000	96.781158 
2012.000000	96.778967 
2011.000000	96.775678 
2010.000000	96.774729 
2009.000000	96.777758 
2008.000000	96.782778 
2007.000000	96.786729 
2006.000000	96.789031 
2005.000000	96.791096 
2004.000000	96.793659 
2003.000000	96.796287 
2002.000000	96.798860 
2001.000000	96.801452 
2000.000000	96.802827 
1999.000000	96.800821 
1998.000000	96.794779 
1997.000000	96.786912 
1996.000000	96.780797 
1995.000000	96.778607 
1994.000000	96.780041 
1993.000000	96.783134 
1992.000000	96.785650 
1991.000000	96.786612 
1990.000000	96.786853 
1989.000000	96.787884 
1988.000000	96.789979 
1987.000000	96.791476 
1986.000000	96.790459 
1985.000000	96.787172 
1984.000000	96.784209 
1983.000000	96.783898 
1982.000000	96.786105 
1981.000000	96.789087 
1980.000000	96.791997 
1979.000000	96.795511 
1978.000000	96.799990 
1977.000000	96.804367 
1976.000000	96.807185 
1975.000000	96.808178 
1974.000000	96.808455 
1973.000000	96.809586 
1972.000000	96.812409 
1971.000000	96.816405 
1970.000000	96.820059 
1969.000000	96.822080 
1968.000000	96.822367 
1967.000000	96.821775 
1966.000000	96.821409 
1965.000000	96.821990 
1964.000000	96.823767 
1963.000000	96.826613 
1962.000000	96.830032 
1961.000000	96.833206 
1960.000000	96.835419 
1959.000000	96.836525 
1958.000000	96.837027 
1957.000000	96.837807 
1956.000000	96.839419 
1955.000000	96.841696 
1954.000000	96.843928 
1953.000000	96.845542 
1952.000000	96.846531 
1951.000000	96.847203 
1950.000000	96.847818 
1949.000000	96.848601 
1948.000000	96.849829 
1947.000000	96.851571 
1946.000000	96.853393 
1945.000000	96.854596 
1944.000000	96.854831 
1943.000000	96.854281 
1942.000000	96.853474 
1941.000000	96.852926 
1940.000000	96.852930 
1939.000000	96.853455 
1938.000000	96.854119 
1937.000000	96.854491 
1936.000000	96.854526 
1935.000000	96.854443 
1934.000000	96.854297 
1933.000000	96.854112 
1932.000000	96.854326 
1931.000000	96.855487 
1930.000000	96.857452 
1929.000000	96.859177 
1928.000000	96.859935 
1927.000000	96.859950 
1926.000000	96.859564 
1925.000000	96.858601 
1924.000000	96.856945 
1923.000000	96.855354 
1922.000000	96.854670 
1921.000000	96.854628 
1920.000000	96.854360 
1919.000000	96.853538 
1918.000000	96.852431 
1917.000000	96.851225 
1916.000000	96.850094 
1915.000000	96.849544 
1914.000000	96.849648 
1913.000000	96.849626 
1912.000000	96.848826 
1911.000000	96.847623 
1910.000000	96.846706 
1909.000000	96.846028 
1908.000000	96.845227 
1907.000000	96.844252 
1906.000000	96.843046 
1905.000000	96.841235 
1904.000000	96.838757 
1903.000000	96.836600 
1902.000000	96.835781 
1901.000000	96.836041 
1900.000000	96.836369 
1899.000000	96.836297 
1898.000000	96.835890 
1897.000000	96.835108 
1896.000000	96.833821 
1895.000000	96.832250 
1894.000000	96.830771 
1893.000000	96.829483 
1892.000000	96.828346 
1891.000000	96.827459 
1890.000000	96.826866 
1889.000000	96.826332 
1888.000000	96.825689 
1887.000000	96.825145 
1886.000000	96.824842 
1885.000000	96.824497 
1884.000000	96.823790 
1883.000000	96.822748 
1882.000000	96.821679 
1881.000000	96.820893 
1880.000000	96.820501 
1879.000000	96.820417 
1878.000000	96.820354 
1877.000000	96.820057 
1876.000000	96.819566 
1875.000000	96.819267 
1874.000000	96.819516 
1873.000000	96.820189 
1872.000000	96.820801 
1871.000000	96.821056 
1870.000000	96.820944 
1869.000000	96.820489 
1868.000000	96.819745 
1867.000000	96.819081 
1866.000000	96.818781 
1865.000000	96.818509 
1864.000000	96.818011 
1863.000000	96.817946 
1862.000000	96.819059 
1861.000000	96.820956 
1860.000000	96.822484 
1859.000000	96.823271 
1858.000000	96.823825 
1857.000000	96.824415 
1856.000000	96.824927 
1855.000000	96.825527 
1854.000000	96.826566 
1853.000000	96.827849 
1852.000000	96.829077 
1851.000000	96.830449 
1850.000000	96.831988 
1849.000000	96.833161 
1848.000000	96.833552 
1847.000000	96.833640 
1846.000000	96.834243 
1845.000000	96.835483 
1844.000000	96.836899 
1843.000000	96.838320 
1842.000000	96.840038 
1841.000000	96.841968 
1840.000000	96.843774 
1839.000000	96.845406 
1838.000000	96.846836 
1837.000000	96.847518 
1836.000000	96.847025 
1835.000000	96.846127 
1834.000000	96.846066 
1833.000000	96.847018 
1832.000000	96.848206 
1831.000000	96.848749 
1830.000000	96.848407 
1829.000000	96.847765 
1828.000000	96.847680 
1827.000000	96.848640 
1826.000000	96.850468 
1825.000000	96.852454 
1824.000000	96.853802 
1823.000000	96.854408 
1822.000000	96.854859 
1821.000000	96.855423 
1820.000000	96.855758 
1819.000000	96.855711 
1818.000000	96.856052 
1817.000000	96.857402 
1816.000000	96.859015 
1815.000000	96.860248 
1814.000000	96.861618 
1813.000000	96.863563 
1812.000000	96.864905 
1811.000000	96.863988 
1810.000000	96.861439 
1809.000000	96.859422 
1808.000000	96.858752 
1807.000000	96.859028 
1806.000000	96.860069 
1805.000000	96.861579 
1804.000000	96.862323 
1803.000000	96.861341 
1802.000000	96.858997 
1801.000000	96.856740 
1800.000000	96.855480 
1799.000000	96.855103 
1798.000000	96.855671 
1797.000000	96.856488 
1796.000000	96.856224 
1795.000000	96.855161 
1794.000000	96.855091 
1793.000000	96.856925 
1792.000000	96.858864 
1791.000000	96.859028 
1790.000000	96.859065 
1789.000000	96.860692 
1788.000000	96.862926 
1787.000000	96.864122 
1786.000000	96.864273 
1785.000000	96.864210 
1784.000000	96.864052 
1783.000000	96.864415 
1782.000000	96.865819 
1781.000000	96.868059 
1780.000000	96.870476 
1779.000000	96.872256 
1778.000000	96.873856 
1777.000000	96.875801 
1776.000000	96.878053 
1775.000000	96.880021 
1774.000000	96.880770 
1773.000000	96.880651 
1772.000000	96.881038 
1771.000000	96.881908 
1770.000000	96.882877 
1769.000000	96.883998 
1768.000000	96.885191 
1767.000000	96.886446 
1766.000000	96.887859 
1765.000000	96.889500 
1764.000000	96.891018 
1763.000000	96.891803 
1762.000000	96.891738 
1761.000000	96.891650 
1760.000000	96.892308 
1759.000000	96.893506 
1758.000000	96.894508 
1757.000000	96.894955 
1756.000000	96.895737 
1755.000000	96.897269 
1754.000000	96.898417 
1753.000000	96.897792 
1752.000000	96.895590 
1751.000000	96.893913 
1750.000000	96.894338 
1749.000000	96.896141 
1748.000000	96.897494 
1747.000000	96.897698 
1746.000000	96.896958 
1745.000000	96.896534 
1744.000000	96.897722 
1743.000000	96.899628 
1742.000000	96.900215 
1741.000000	96.899268 
1740.000000	96.898552 
1739.000000	96.899549 
1738.000000	96.901934 
1737.000000	96.904141 
1736.000000	96.903623 
1735.000000	96.898558 
1734.000000	96.891616 
1733.000000	96.885351 
1732.000000	96.882005 
1731.000000	96.883010 
1730.000000	96.886757 
1729.000000	96.889687 
1728.000000	96.890217 
1727.000000	96.889257 
1726.000000	96.887345 
1725.000000	96.884934 
1724.000000	96.882413 
1723.000000	96.880557 
1722.000000	96.881367 
1721.000000	96.884460 
1720.000000	96.886061 
1719.000000	96.882375 
1718.000000	96.875138 
1717.000000	96.867980 
1716.000000	96.859370 
1715.000000	96.850122 
1714.000000	96.843997 
1713.000000	96.840287 
1712.000000	96.835217 
1711.000000	96.829305 
1710.000000	96.825771 
1709.000000	96.823790 
1708.000000	96.819639 
1707.000000	96.813103 
1706.000000	96.808265 
1705.000000	96.806028 
1704.000000	96.801191 
1703.000000	96.791790 
1702.000000	96.779246 
1701.000000	96.766867 
1700.000000	96.757255 
1699.000000	96.746943 
1698.000000	96.740253 
1697.000000	96.737286 
1696.000000	96.731076 
1695.000000	96.719946 
1694.000000	96.709640 
1693.000000	96.703414 
1692.000000	96.698444 
1691.000000	96.692098 
1690.000000	96.684783 
1689.000000	96.677428 
1688.000000	96.670294 
1687.000000	96.662851 
1686.000000	96.654322 
1685.000000	96.645783 
1684.000000	96.636752 
1683.000000	96.623947 
1682.000000	96.611098 
1681.000000	96.601312 
1680.000000	96.594672 
1679.000000	96.589473 
1678.000000	96.582558 
1677.000000	96.571963 
1676.000000	96.560227 
1675.000000	96.551393 
1674.000000	96.542406 
1673.000000	96.531591 
1672.000000	96.522287 
1671.000000	96.516191 
1670.000000	96.510378 
1669.000000	96.499051 
1668.000000	96.484899 
1667.000000	96.475306 
1666.000000	96.469437 
1665.000000	96.462536 
1664.000000	96.453355 
1663.000000	96.445121 
1662.000000	96.436719 
1661.000000	96.423793 
1660.000000	96.411228 
1659.000000	96.404816 
1658.000000	96.402412 
1657.000000	96.398947 
1656.000000	96.392351 
1655.000000	96.380976 
1654.000000	96.365890 
1653.000000	96.353405 
1652.000000	96.329820 
1651.000000	96.308923 
1650.000000	96.300441 
1649.000000	96.298565 
1648.000000	96.297429 
1647.000000	96.296432 
1646.000000	96.291774 
1645.000000	96.281547 
1644.000000	96.270962 
1643.000000	96.264907 
1642.000000	96.264321 
1641.000000	96.265541 
1640.000000	96.266244 
1639.000000	96.264948 
1638.000000	96.261975 
1637.000000	96.259524 
1636.000000	96.261181 
1635.000000	96.263433 
1634.000000	96.261158 
1633.000000	96.258792 
1632.000000	96.257915 
1631.000000	96.259479 
1630.000000	96.265247 
1629.000000	96.274351 
1628.000000	96.283440 
1627.000000	96.290988 
1626.000000	96.296805 
1625.000000	96.301919 
1624.000000	96.310913 
1623.000000	96.326773 
1622.000000	96.343163 
1621.000000	96.353483 
1620.000000	96.361482 
1619.000000	96.372992 
1618.000000	96.388616 
1617.000000	96.402904 
1616.000000	96.410601 
1615.000000	96.415559 
1614.000000	96.422920 
1613.000000	96.430133 
1612.000000	96.434660 
1611.000000	96.439898 
1610.000000	96.448653 
1609.000000	96.460081 
1608.000000	96.474780 
1607.000000	96.493001 
1606.000000	96.508820 
1605.000000	96.517686 
1604.000000	96.524946 
1603.000000	96.536042 
1602.000000	96.548174 
1601.000000	96.557054 
1600.000000	96.564337 
1599.000000	96.573327 
1598.000000	96.582566 
1597.000000	96.589739 
1596.000000	96.596418 
1595.000000	96.605028 
1594.000000	96.614111 
1593.000000	96.620705 
1592.000000	96.625577 
1591.000000	96.631714 
1590.000000	96.639320 
1589.000000	96.646374 
1588.000000	96.653165 
1587.000000	96.661592 
1586.000000	96.670878 
1585.000000	96.677660 
1584.000000	96.682340 
1583.000000	96.688375 
1582.000000	96.695721 
1581.000000	96.702424 
1580.000000	96.709325 
1579.000000	96.717930 
1578.000000	96.726477 
1577.000000	96.732755 
1576.000000	96.737181 
1575.000000	96.740778 
1574.000000	96.744526 
1573.000000	96.749207 
1572.000000	96.755092 
1571.000000	96.762084 
1570.000000	96.768486 
1569.000000	96.770699 
1568.000000	96.771021 
1567.000000	96.774105 
1566.000000	96.779115 
1565.000000	96.783318 
1564.000000	96.787321 
1563.000000	96.791192 
1562.000000	96.792702 
1561.000000	96.787668 
1560.000000	96.783684 
1559.000000	96.792130 
1558.000000	96.798559 
1557.000000	96.798181 
1556.000000	96.800302 
1555.000000	96.805069 
1554.000000	96.808681 
1553.000000	96.810281 
1552.000000	96.811782 
1551.000000	96.812278 
1550.000000	96.810903 
1549.000000	96.809295 
1548.000000	96.809719 
1547.000000	96.812242 
1546.000000	96.813969 
1545.000000	96.813083 
1544.000000	96.811168 
1543.000000	96.810016 
1542.000000	96.810496 
1541.000000	96.812797 
1540.000000	96.812434 
1539.000000	96.805452 
1538.000000	96.796298 
1537.000000	96.789923 
1536.000000	96.785928 
1535.000000	96.783655 
1534.000000	96.783332 
1533.000000	96.783647 
1532.000000	96.782083 
1531.000000	96.778753 
1530.000000	96.775519 
1529.000000	96.772773 
1528.000000	96.769312 
1527.000000	96.764926 
1526.000000	96.760627 
1525.000000	96.757232 
1524.000000	96.754908 
1523.000000	96.753085 
1522.000000	96.750802 
1521.000000	96.745721 
1520.000000	96.736774 
1519.000000	96.727163 
1518.000000	96.719457 
1517.000000	96.713941 
1516.000000	96.709673 
1515.000000	96.706357 
1514.000000	96.704447 
1513.000000	96.703277 
1512.000000	96.700758 
1511.000000	96.695160 
1510.000000	96.687364 
1509.000000	96.679173 
1508.000000	96.672750 
1507.000000	96.669411 
1506.000000	96.666865 
1505.000000	96.662296 
1504.000000	96.656972 
1503.000000	96.651303 
1502.000000	96.644978 
1501.000000	96.638573 
1500.000000	96.632977 
1499.000000	96.627635 
1498.000000	96.621133 
1497.000000	96.614124 
1496.000000	96.607863 
1495.000000	96.603326 
1494.000000	96.601677 
1493.000000	96.602443 
1492.000000	96.603112 
1491.000000	96.601581 
1490.000000	96.598039 
1489.000000	96.593621 
1488.000000	96.587935 
1487.000000	96.581250 
1486.000000	96.575558 
1485.000000	96.569540 
1484.000000	96.561635 
1483.000000	96.553510 
1482.000000	96.547419 
1481.000000	96.543538 
1480.000000	96.539371 
1479.000000	96.533780 
1478.000000	96.528040 
1477.000000	96.523144 
1476.000000	96.517064 
1475.000000	96.507984 
1474.000000	96.497823 
1473.000000	96.490682 
1472.000000	96.487574 
1471.000000	96.485318 
1470.000000	96.482800 
1469.000000	96.479508 
1468.000000	96.473015 
1467.000000	96.462543 
1466.000000	96.451607 
1465.000000	96.444500 
1464.000000	96.441166 
1463.000000	96.436948 
1462.000000	96.430040 
1461.000000	96.422296 
1460.000000	96.414863 
1459.000000	96.405380 
1458.000000	96.390758 
1457.000000	96.374845 
1456.000000	96.363692 
1455.000000	96.358305 
1454.000000	96.355697 
1453.000000	96.354238 
1452.000000	96.354365 
1451.000000	96.355156 
1450.000000	96.355964 
1449.000000	96.358484 
1448.000000	96.361958 
1447.000000	96.362667 
1446.000000	96.358185 
1445.000000	96.351412 
1444.000000	96.347330 
1443.000000	96.344626 
1442.000000	96.340022 
1441.000000	96.333704 
1440.000000	96.326943 
1439.000000	96.317137 
1438.000000	96.302948 
1437.000000	96.292654 
1436.000000	96.293299 
1435.000000	96.298257 
1434.000000	96.300911 
1433.000000	96.303011 
1432.000000	96.307390 
1431.000000	96.313003 
1430.000000	96.316605 
1429.000000	96.318642 
1428.000000	96.320399 
1427.000000	96.322012 
1426.000000	96.323017 
1425.000000	96.325493 
1424.000000	96.333485 
1423.000000	96.342377 
1422.000000	96.344886 
1421.000000	96.342502 
1420.000000	96.343711 
1419.000000	96.349413 
1418.000000	96.351165 
1417.000000	96.351500 
1416.000000	96.359393 
1415.000000	96.373574 
1414.000000	96.385502 
1413.000000	96.391453 
1412.000000	96.396104 
1411.000000	96.403012 
1410.000000	96.410327 
1409.000000	96.416836 
1408.000000	96.422904 
1407.000000	96.428816 
1406.000000	96.434945 
1405.000000	96.443901 
1404.000000	96.458831 
1403.000000	96.475462 
1402.000000	96.487292 
1401.000000	96.495609 
1400.000000	96.507626 
1399.000000	96.525518 
1398.000000	96.542357 
1397.000000	96.553108 
1396.000000	96.560533 
1395.000000	96.570101 
1394.000000	96.582745 
1393.000000	96.597312 
1392.000000	96.614968 
1391.000000	96.634470 
1390.000000	96.651438 
1389.000000	96.662722 
1388.000000	96.668760 
1387.000000	96.672673 
1386.000000	96.678034 
1385.000000	96.687745 
1384.000000	96.702591 
1383.000000	96.718917 
1382.000000	96.731486 
1381.000000	96.738767 
1380.000000	96.743318 
1379.000000	96.748741 
1378.000000	96.756700 
1377.000000	96.766541 
1376.000000	96.776553 
1375.000000	96.785326 
1374.000000	96.792368 
1373.000000	96.799418 
1372.000000	96.808933 
1371.000000	96.821182 
1370.000000	96.833615 
1369.000000	96.843673 
1368.000000	96.852444 
1367.000000	96.861595 
1366.000000	96.870190 
1365.000000	96.876516 
1364.000000	96.880136 
1363.000000	96.882041 
1362.000000	96.884139 
1361.000000	96.888706 
1360.000000	96.897032 
1359.000000	96.908048 
1358.000000	96.918582 
1357.000000	96.926168 
1356.000000	96.931467 
1355.000000	96.936676 
1354.000000	96.942495 
1353.000000	96.948649 
1352.000000	96.954563 
1351.000000	96.961121 
1350.000000	96.969091 
1349.000000	96.976134 
1348.000000	96.979700 
1347.000000	96.979954 
1346.000000	96.979921 
1345.000000	96.982542 
1344.000000	96.988048 
1343.000000	96.994352 
1342.000000	96.999063 
1341.000000	97.000701 
1340.000000	96.998897 
1339.000000	96.994710 
1338.000000	96.990546 
1337.000000	96.989003 
1336.000000	96.990706 
1335.000000	96.993584 
1334.000000	96.995263 
1333.000000	96.995715 
1332.000000	96.996559 
1331.000000	96.998801 
1330.000000	97.001867 
1329.000000	97.004772 
1328.000000	97.007049 
1327.000000	97.008809 
1326.000000	97.009866 
1325.000000	97.009401 
1324.000000	97.007159 
1323.000000	97.003351 
1322.000000	96.998515 
1321.000000	96.993977 
1320.000000	96.991427 
1319.000000	96.991427 
1318.000000	96.993229 
1317.000000	96.996131 
1316.000000	96.999425 
1315.000000	97.001375 
1314.000000	97.000478 
1313.000000	96.998185 
1312.000000	96.997799 
1311.000000	97.000116 
1310.000000	97.002334 
1309.000000	97.002210 
1308.000000	97.000738 
1307.000000	97.000258 
1306.000000	97.001539 
1305.000000	97.003936 
1304.000000	97.007007 
1303.000000	97.009651 
1302.000000	97.009753 
1301.000000	97.006573 
1300.000000	97.002406 
1299.000000	97.000177 
1298.000000	97.000133 
1297.000000	97.000242 
1296.000000	96.999031 
1295.000000	96.996938 
1294.000000	96.995427 
1293.000000	96.996049 
1292.000000	96.999641 
1291.000000	97.005117 
1290.000000	97.009590 
1289.000000	97.010715 
1288.000000	97.008496 
1287.000000	97.004507 
1286.000000	97.000283 
1285.000000	96.997316 
1284.000000	96.997313 
1283.000000	97.000450 
1282.000000	97.003938 
1281.000000	97.004056 
1280.000000	96.999964 
1279.000000	96.994572 
1278.000000	96.991663 
1277.000000	96.992906 
1276.000000	96.997362 
1275.000000	97.002976 
1274.000000	97.008132 
1273.000000	97.012126 
1272.000000	97.014304 
1271.000000	97.013243 
1270.000000	97.007948 
1269.000000	96.999832 
1268.000000	96.992166 
1267.000000	96.986737 
1266.000000	96.982427 
1265.000000	96.978155 
1264.000000	96.975311 
1263.000000	96.975595 
1262.000000	96.978057 
1261.000000	96.980176 
1260.000000	96.981489 
1259.000000	96.984307 
1258.000000	96.990557 
1257.000000	96.999115 
1256.000000	97.006372 
1255.000000	97.009515 
1254.000000	97.009573 
1253.000000	97.010207 
1252.000000	97.012469 
1251.000000	97.012595 
1250.000000	97.007380 
1249.000000	97.000136 
1248.000000	96.997710 
1247.000000	97.001669 
1246.000000	97.006460 
1245.000000	97.007221 
1244.000000	97.005099 
1243.000000	97.003403 
1242.000000	97.002777 
1241.000000	97.002650 
1240.000000	97.003835 
1239.000000	97.006556 
1238.000000	97.008534 
1237.000000	97.007949 
1236.000000	97.006158 
1235.000000	97.005000 
1234.000000	97.003498 
1233.000000	96.999630 
1232.000000	96.993312 
1231.000000	96.985213 
1230.000000	96.974813 
1229.000000	96.962058 
1228.000000	96.948694 
1227.000000	96.935406 
1226.000000	96.919771 
1225.000000	96.899716 
1224.000000	96.876987 
1223.000000	96.854226 
1222.000000	96.830320 
1221.000000	96.801790 
1220.000000	96.767596 
1219.000000	96.729655 
1218.000000	96.689518 
1217.000000	96.647152 
1216.000000	96.602074 
1215.000000	96.553436 
1214.000000	96.500569 
1213.000000	96.446097 
1212.000000	96.396223 
1211.000000	96.353791 
1210.000000	96.312542 
1209.000000	96.262898 
1208.000000	96.202908 
1207.000000	96.139547 
1206.000000	96.079420 
1205.000000	96.022020 
1204.000000	95.962917 
1203.000000	95.899945 
1202.000000	95.834891 
1201.000000	95.771294 
1200.000000	95.711513 
1199.000000	95.654611 
1198.000000	95.597010 
1197.000000	95.536479 
1196.000000	95.474509 
1195.000000	95.413428 
1194.000000	95.352880 
1193.000000	95.291168 
1192.000000	95.228446 
1191.000000	95.166022 
1190.000000	95.103887 
1189.000000	95.041364 
1188.000000	94.978533 
1187.000000	94.914518 
1186.000000	94.846543 
1185.000000	94.773622 
1184.000000	94.698868 
1183.000000	94.625073 
1182.000000	94.550792 
1181.000000	94.474434 
1180.000000	94.398860 
1179.000000	94.326636 
1178.000000	94.253327 
1177.000000	94.171849 
1176.000000	94.082020 
1175.000000	93.989849 
1174.000000	93.898524 
1173.000000	93.806250 
1172.000000	93.712123 
1171.000000	93.616971 
1170.000000	93.518425 
1169.000000	93.412684 
1168.000000	93.302621 
1167.000000	93.198080 
1166.000000	93.107314 
1165.000000	93.034494 
1164.000000	92.985797 
1163.000000	92.969360 
1162.000000	92.985894 
1161.000000	93.024816 
1160.000000	93.071571 
1159.000000	93.113765 
1158.000000	93.139942 
1157.000000	93.140251 
1156.000000	93.111964 
1155.000000	93.060362 
1154.000000	92.992637 
1153.000000	92.914391 
1152.000000	92.831736 
1151.000000	92.750350 
1150.000000	92.670412 
1149.000000	92.587860 
1148.000000	92.502203 
1147.000000	92.417553 
1146.000000	92.334848 
1145.000000	92.249587 
1144.000000	92.159519 
1143.000000	92.068310 
1142.000000	91.978848 
1141.000000	91.888741 
1140.000000	91.795488 
1139.000000	91.700867 
1138.000000	91.607279 
1137.000000	91.514323 
1136.000000	91.421236 
1135.000000	91.328316 
1134.000000	91.234221 
1133.000000	91.136344 
1132.000000	91.034896 
1131.000000	90.931916 
1130.000000	90.826065 
1129.000000	90.714101 
1128.000000	90.597692 
1127.000000	90.482185 
1126.000000	90.368007 
1125.000000	90.250225 
1124.000000	90.127534 
1123.000000	90.004610 
1122.000000	89.884601 
1121.000000	89.766801 
1120.000000	89.652636 
1119.000000	89.545325 
1118.000000	89.442052 
1117.000000	89.335391 
1116.000000	89.224840 
1115.000000	89.118604 
1114.000000	89.021729 
1113.000000	88.930760 
1112.000000	88.842043 
1111.000000	88.756359 
1110.000000	88.672677 
1109.000000	88.586288 
1108.000000	88.495697 
1107.000000	88.403515 
1106.000000	88.309426 
1105.000000	88.210504 
1104.000000	88.109192 
1103.000000	88.012017 
1102.000000	87.918935 
1101.000000	87.824013 
1100.000000	87.726439 
1099.000000	87.631374 
1098.000000	87.539818 
1097.000000	87.447458 
1096.000000	87.354838 
1095.000000	87.266908 
1094.000000	87.181609 
1093.000000	87.091039 
1092.000000	86.996222 
1091.000000	86.908722 
1090.000000	86.834539 
1089.000000	86.767335 
1088.000000	86.699857 
1087.000000	86.631013 
1086.000000	86.559958 
1085.000000	86.485202 
1084.000000	86.412136 
1083.000000	86.349799 
1082.000000	86.297244 
1081.000000	86.243980 
1080.000000	86.185908 
1079.000000	86.129333 
1078.000000	86.077226 
1077.000000	86.023025 
1076.000000	85.960378 
1075.000000	85.888001 
1074.000000	85.803719 
1073.000000	85.705125 
1072.000000	85.596636 
1071.000000	85.483663 
1070.000000	85.359045 
1069.000000	85.208544 
1068.000000	85.031473 
1067.000000	84.843549 
1066.000000	84.657951 
1065.000000	84.475981 
1064.000000	84.297359 
1063.000000	84.124126 
1062.000000	83.950925 
1061.000000	83.766327 
1060.000000	83.568394 
1059.000000	83.366512 
1058.000000	83.165163 
1057.000000	82.959134 
1056.000000	82.747165 
1055.000000	82.535826 
1054.000000	82.326375 
1053.000000	82.111642 
1052.000000	81.889600 
1051.000000	81.665450 
1050.000000	81.436833 
1049.000000	81.193897 
1048.000000	80.937427 
1047.000000	80.678890 
1046.000000	80.420509 
1045.000000	80.153664 
1044.000000	79.878289 
1043.000000	79.605433 
1042.000000	79.338122 
1041.000000	79.067396 
1040.000000	78.791092 
1039.000000	78.519716 
1038.000000	78.259918 
1037.000000	78.008992 
1036.000000	77.768771 
1035.000000	77.547271 
1034.000000	77.343324 
1033.000000	77.147241 
1032.000000	76.959193 
1031.000000	76.788516 
1030.000000	76.633195 
1029.000000	76.480374 
1028.000000	76.329967 
1027.000000	76.196805 
1026.000000	76.085605 
1025.000000	75.984273 
1024.000000	75.885366 
1023.000000	75.793329 
1022.000000	75.706684 
1021.000000	75.614655 
1020.000000	75.516178 
1019.000000	75.421769 
1018.000000	75.332431 
1017.000000	75.237271 
1016.000000	75.135765 
1015.000000	75.041148 
1014.000000	74.957315 
1013.000000	74.873241 
1012.000000	74.784455 
1011.000000	74.699227 
1010.000000	74.619644 
1009.000000	74.538338 
1008.000000	74.458453 
1007.000000	74.395097 
1006.000000	74.351906 
1005.000000	74.316900 
1004.000000	74.285491 
1003.000000	74.265796 
1002.000000	74.257006 
1001.000000	74.245720 
1000.000000	74.230017 
999.000000	 74.225295 
998.000000	 74.239387 
997.000000	 74.262407 
996.000000	 74.287067 
995.000000	 74.319064 
994.000000	 74.361324 
993.000000	 74.407365 
992.000000	 74.455386 
991.000000	 74.510165 
990.000000	 74.567616 
989.000000	 74.617539 
988.000000	 74.664945 
987.000000	 74.727494 
986.000000	 74.808490 
985.000000	 74.894009 
984.000000	 74.979984 
983.000000	 75.078934 
982.000000	 75.194615 
981.000000	 75.313614 
980.000000	 75.429243 
979.000000	 75.552028 
978.000000	 75.688731 
977.000000	 75.831960 
976.000000	 75.978307 
975.000000	 76.136734 
974.000000	 76.310535 
973.000000	 76.489531 
972.000000	 76.668115 
971.000000	 76.853828 
970.000000	 77.050598 
969.000000	 77.250021 
968.000000	 77.446225 
967.000000	 77.644252 
966.000000	 77.847895 
965.000000	 78.053794 
964.000000	 78.261774 
963.000000	 78.476083 
962.000000	 78.692900 
961.000000	 78.901777 
960.000000	 79.102361 
959.000000	 79.304387 
958.000000	 79.508930 
957.000000	 79.705881 
956.000000	 79.892500 
955.000000	 80.077894 
954.000000	 80.265986 
953.000000	 80.449983 
952.000000	 80.626649 
951.000000	 80.800101 
950.000000	 80.968895 
949.000000	 81.125573 
948.000000	 81.271681 
947.000000	 81.416987 
946.000000	 81.560671 
945.000000	 81.689417 
944.000000	 81.797715 
943.000000	 81.894932 
942.000000	 81.989356 
941.000000	 82.080282 
940.000000	 82.169003 
939.000000	 82.261748 
938.000000	 82.357664 
937.000000	 82.448697 
936.000000	 82.534802 
935.000000	 82.624666 
934.000000	 82.718700 
933.000000	 82.806992 
932.000000	 82.887417 
931.000000	 82.970192 
930.000000	 83.060567 
929.000000	 83.151992 
928.000000	 83.240381 
927.000000	 83.330143 
926.000000	 83.421563 
925.000000	 83.505997 
924.000000	 83.577831 
923.000000	 83.639090 
922.000000	 83.690380 
921.000000	 83.730545 
920.000000	 83.766588 
919.000000	 83.809196 
918.000000	 83.856136 
917.000000	 83.894609 
916.000000	 83.922618 
915.000000	 83.953896 
914.000000	 83.999636 
913.000000	 84.059959 
912.000000	 84.135160 
911.000000	 84.229920 
910.000000	 84.343741 
909.000000	 84.472098 
908.000000	 84.618867 
907.000000	 84.792833 
906.000000	 84.991210 
905.000000	 85.201812 
904.000000	 85.421396 
903.000000	 85.655441 
902.000000	 85.900319 
901.000000	 86.143699 
900.000000	 86.383689 
899.000000	 86.630170 
898.000000	 86.885591 
897.000000	 87.140474 
896.000000	 87.388505 
895.000000	 87.630271 
894.000000	 87.862238 
893.000000	 88.078537 
892.000000	 88.283957 
891.000000	 88.489211 
890.000000	 88.692891 
889.000000	 88.883216 
888.000000	 89.056811 
887.000000	 89.220006 
886.000000	 89.373379 
885.000000	 89.512594 
884.000000	 89.643521 
883.000000	 89.777412 
882.000000	 89.910941 
881.000000	 90.031461 
880.000000	 90.143766 
879.000000	 90.270114 
878.000000	 90.419689 
877.000000	 90.579168 
876.000000	 90.738354 
875.000000	 90.903892 
874.000000	 91.082150 
873.000000	 91.269858 
872.000000	 91.468029 
871.000000	 91.684275 
870.000000	 91.913413 
869.000000	 92.134028 
868.000000	 92.332221 
867.000000	 92.514009 
866.000000	 92.689588 
865.000000	 92.860879 
864.000000	 93.030432 
863.000000	 93.207145 
862.000000	 93.394161 
861.000000	 93.581967 
860.000000	 93.760417 
859.000000	 93.928753 
858.000000	 94.089988 
857.000000	 94.244709 
856.000000	 94.393458 
855.000000	 94.536107 
854.000000	 94.666946 
853.000000	 94.780010 
852.000000	 94.880288 
851.000000	 94.979528 
850.000000	 95.080279 
849.000000	 95.174864 
848.000000	 95.259866 
847.000000	 95.338885 
846.000000	 95.410586 
845.000000	 95.467779 
844.000000	 95.510177 
843.000000	 95.544733 
842.000000	 95.571033 
841.000000	 95.579409 
840.000000	 95.566044 
839.000000	 95.536983 
838.000000	 95.495474 
837.000000	 95.439640 
836.000000	 95.376013 
835.000000	 95.320438 
834.000000	 95.279254 
833.000000	 95.242627 
832.000000	 95.202909 
831.000000	 95.167027 
830.000000	 95.144053 
829.000000	 95.133403 
828.000000	 95.133976 
827.000000	 95.153077 
826.000000	 95.196028 
825.000000	 95.256225 
824.000000	 95.323350 
823.000000	 95.391869 
822.000000	 95.456894 
821.000000	 95.514006 
820.000000	 95.566915 
819.000000	 95.622545 
818.000000	 95.674906 
817.000000	 95.705157 
816.000000	 95.701026 
815.000000	 95.666774 
814.000000	 95.611624 
813.000000	 95.537591 
812.000000	 95.440556 
811.000000	 95.311800 
810.000000	 95.134178 
809.000000	 94.888057 
808.000000	 94.568265 
807.000000	 94.189522 
806.000000	 93.772757 
805.000000	 93.334202 
804.000000	 92.889769 
803.000000	 92.457391 
802.000000	 92.049430 
801.000000	 91.674811 
800.000000	 91.353551 
799.000000	 91.114731 
798.000000	 90.972175 
797.000000	 90.913553 
796.000000	 90.917998 
795.000000	 90.971513 
794.000000	 91.061728 
793.000000	 91.173163 
792.000000	 91.294088 
791.000000	 91.416670 
790.000000	 91.527699 
789.000000	 91.611249 
788.000000	 91.661653 
787.000000	 91.681374 
786.000000	 91.665908 
785.000000	 91.604235 
784.000000	 91.494854 
783.000000	 91.348612 
782.000000	 91.177557 
781.000000	 90.997158 
780.000000	 90.837925 
779.000000	 90.733983 
778.000000	 90.695931 
777.000000	 90.711865 
776.000000	 90.775593 
775.000000	 90.892116 
774.000000	 91.052190 
773.000000	 91.225890 
772.000000	 91.390571 
771.000000	 91.546322 
770.000000	 91.696900 
769.000000	 91.835086 
768.000000	 91.954827 
767.000000	 92.058919 
766.000000	 92.145586 
765.000000	 92.205297 
764.000000	 92.240991 
763.000000	 92.274748 
762.000000	 92.323122 
761.000000	 92.380026 
760.000000	 92.433765 
759.000000	 92.485890 
758.000000	 92.542313 
757.000000	 92.600877 
756.000000	 92.661108 
755.000000	 92.733841 
754.000000	 92.826211 
753.000000	 92.924605 
752.000000	 93.004900 
751.000000	 93.056475 
750.000000	 93.090591 
749.000000	 93.130508 
748.000000	 93.196211 
747.000000	 93.290067 
746.000000	 93.393142 
745.000000	 93.484191 
744.000000	 93.565353 
743.000000	 93.659368 
742.000000	 93.779897 
741.000000	 93.917356 
740.000000	 94.056683 
739.000000	 94.194185 
738.000000	 94.330641 
737.000000	 94.461213 
736.000000	 94.580971 
735.000000	 94.691501 
734.000000	 94.795239 
733.000000	 94.890711 
732.000000	 94.976918 
731.000000	 95.053935 
730.000000	 95.116611 
729.000000	 95.157572 
728.000000	 95.181446 
727.000000	 95.205352 
726.000000	 95.240889 
725.000000	 95.286787 
724.000000	 95.340044 
723.000000	 95.401345 
722.000000	 95.468115 
721.000000	 95.535457 
720.000000	 95.605515 
719.000000	 95.681479 
718.000000	 95.753934 
717.000000	 95.811375 
716.000000	 95.861165 
715.000000	 95.920373 
714.000000	 95.985280 
713.000000	 96.031593 
712.000000	 96.051258 
711.000000	 96.066493 
710.000000	 96.095766 
709.000000	 96.129551 
708.000000	 96.150609 
707.000000	 96.157135 
706.000000	 96.151710 
705.000000	 96.127015 
704.000000	 96.077804 
703.000000	 96.010060 
702.000000	 95.925316 
701.000000	 95.808343 
700.000000	 95.643249 
699.000000	 95.433829 
698.000000	 95.198023 
697.000000	 94.959073 
696.000000	 94.752500 
695.000000	 94.621156 
694.000000	 94.587931 
693.000000	 94.638230 
692.000000	 94.737551 
691.000000	 94.859972 
690.000000	 94.991150 
689.000000	 95.119529 
688.000000	 95.237665 
687.000000	 95.342973 
686.000000	 95.431072 
685.000000	 95.497303 
684.000000	 95.549734 
683.000000	 95.607539 
682.000000	 95.678194 
681.000000	 95.750932 
680.000000	 95.817604 
679.000000	 95.886479 
678.000000	 95.960841 
677.000000	 96.026103 
676.000000	 96.078234 
675.000000	 96.133685 
674.000000	 96.200389 
673.000000	 96.262039 
672.000000	 96.301499 
671.000000	 96.341707 
670.000000	 96.440795 
669.000000	 96.647937 
668.000000	 96.871705 
667.000000	 96.945977 
666.000000	 96.892995 
665.000000	 96.815610 
664.000000	 96.766127 
663.000000	 96.764091 
662.000000	 96.805951 
661.000000	 96.860745 
660.000000	 96.910816 
659.000000	 96.960452 
658.000000	 97.007617 
657.000000	 97.032160 
656.000000	 97.032397 
655.000000	 97.028295 
654.000000	 97.024903 
653.000000	 97.005760 
652.000000	 96.973406 
651.000000	 96.960641 
650.000000	 96.981552 

