4000.000000	96.680883 
3999.000000	96.681271 
3998.000000	96.679736 
3997.000000	96.676330 
3996.000000	96.671871 
3995.000000	96.667837 
3994.000000	96.665532 
3993.000000	96.665305 
3992.000000	96.666402 
3991.000000	96.667505 
3990.000000	96.667848 
3989.000000	96.667593 
3988.000000	96.667155 
3987.000000	96.666690 
3986.000000	96.666290 
3985.000000	96.666165 
3984.000000	96.666328 
3983.000000	96.666521 
3982.000000	96.666880 
3981.000000	96.668174 
3980.000000	96.670779 
3979.000000	96.673676 
3978.000000	96.675190 
3977.000000	96.674698 
3976.000000	96.673099 
3975.000000	96.671379 
3974.000000	96.669413 
3973.000000	96.666628 
3972.000000	96.663088 
3971.000000	96.659559 
3970.000000	96.656883 
3969.000000	96.655785 
3968.000000	96.656675 
3967.000000	96.659344 
3966.000000	96.662954 
3965.000000	96.666243 
3964.000000	96.667825 
3963.000000	96.666776 
3962.000000	96.663428 
3961.000000	96.659598 
3960.000000	96.657231 
3959.000000	96.656831 
3958.000000	96.657402 
3957.000000	96.657822 
3956.000000	96.657516 
3955.000000	96.656324 
3954.000000	96.654444 
3953.000000	96.652254 
3952.000000	96.649977 
3951.000000	96.647300 
3950.000000	96.643815 
3949.000000	96.639732 
3948.000000	96.635952 
3947.000000	96.633605 
3946.000000	96.633308 
3945.000000	96.634621 
3944.000000	96.636273 
3943.000000	96.637487 
3942.000000	96.638788 
3941.000000	96.640933 
3940.000000	96.643628 
3939.000000	96.645836 
3938.000000	96.646906 
3937.000000	96.647273 
3936.000000	96.647309 
3935.000000	96.646096 
3934.000000	96.642382 
3933.000000	96.636323 
3932.000000	96.629989 
3931.000000	96.625463 
3930.000000	96.623467 
3929.000000	96.623976 
3928.000000	96.626552 
3927.000000	96.629812 
3926.000000	96.631456 
3925.000000	96.630561 
3924.000000	96.628700 
3923.000000	96.627609 
3922.000000	96.627081 
3921.000000	96.626287 
3920.000000	96.625585 
3919.000000	96.625823 
3918.000000	96.626420 
3917.000000	96.625977 
3916.000000	96.624287 
3915.000000	96.622435 
3914.000000	96.621145 
3913.000000	96.620321 
3912.000000	96.619681 
3911.000000	96.619218 
3910.000000	96.618739 
3909.000000	96.618015 
3908.000000	96.616974 
3907.000000	96.615707 
3906.000000	96.614193 
3905.000000	96.612414 
3904.000000	96.610654 
3903.000000	96.609260 
3902.000000	96.608276 
3901.000000	96.607494 
3900.000000	96.606719 
3899.000000	96.605885 
3898.000000	96.604999 
3897.000000	96.604096 
3896.000000	96.603195 
3895.000000	96.602290 
3894.000000	96.601385 
3893.000000	96.600487 
3892.000000	96.599601 
3891.000000	96.598728 
3890.000000	96.597871 
3889.000000	96.597034 
3888.000000	96.596211 
3887.000000	96.595386 
3886.000000	96.594553 
3885.000000	96.593721 
3884.000000	96.592900 
3883.000000	96.592090 
3882.000000	96.591287 
3881.000000	96.590498 
3880.000000	96.589743 
3879.000000	96.589037 
3878.000000	96.588371 
3877.000000	96.587724 
3876.000000	96.587079 
3875.000000	96.586431 
3874.000000	96.585790 
3873.000000	96.585169 
3872.000000	96.584570 
3871.000000	96.583990 
3870.000000	96.583439 
3869.000000	96.582944 
3868.000000	96.582520 
3867.000000	96.582149 
3866.000000	96.581805 
3865.000000	96.581486 
3864.000000	96.581205 
3863.000000	96.580966 
3862.000000	96.580748 
3861.000000	96.580530 
3860.000000	96.580298 
3859.000000	96.580037 
3858.000000	96.579737 
3857.000000	96.579401 
3856.000000	96.579044 
3855.000000	96.578677 
3854.000000	96.578308 
3853.000000	96.577951 
3852.000000	96.577621 
3851.000000	96.577328 
3850.000000	96.577075 
3849.000000	96.576857 
3848.000000	96.576665 
3847.000000	96.576481 
3846.000000	96.576285 
3845.000000	96.576068 
3844.000000	96.575827 
3843.000000	96.575569 
3842.000000	96.575305 
3841.000000	96.575050 
3840.000000	96.574813 
3839.000000	96.574594 
3838.000000	96.574392 
3837.000000	96.574201 
3836.000000	96.574023 
3835.000000	96.573866 
3834.000000	96.573739 
3833.000000	96.573646 
3832.000000	96.573587 
3831.000000	96.573557 
3830.000000	96.573551 
3829.000000	96.573561 
3828.000000	96.573577 
3827.000000	96.573584 
3826.000000	96.573570 
3825.000000	96.573537 
3824.000000	96.573495 
3823.000000	96.573447 
3822.000000	96.573384 
3821.000000	96.573310 
3820.000000	96.573246 
3819.000000	96.573214 
3818.000000	96.573219 
3817.000000	96.573258 
3816.000000	96.573339 
3815.000000	96.573472 
3814.000000	96.573651 
3813.000000	96.573852 
3812.000000	96.574061 
3811.000000	96.574285 
3810.000000	96.574530 
3809.000000	96.574783 
3808.000000	96.575021 
3807.000000	96.575226 
3806.000000	96.575409 
3805.000000	96.575595 
3804.000000	96.575800 
3803.000000	96.576031 
3802.000000	96.576293 
3801.000000	96.576595 
3800.000000	96.576938 
3799.000000	96.577300 
3798.000000	96.577657 
3797.000000	96.578002 
3796.000000	96.578336 
3795.000000	96.578648 
3794.000000	96.578917 
3793.000000	96.579124 
3792.000000	96.579263 
3791.000000	96.579327 
3790.000000	96.579304 
3789.000000	96.579203 
3788.000000	96.579057 
3787.000000	96.578840 
3786.000000	96.578575 
3785.000000	96.578258 
3784.000000	96.577781 
3783.000000	96.577123 
3782.000000	96.576308 
3781.000000	96.575260 
3780.000000	96.574075 
3779.000000	96.573410 
3778.000000	96.573843 
3777.000000	96.574938 
3776.000000	96.575291 
3775.000000	96.574077 
3774.000000	96.572044 
3773.000000	96.570740 
3772.000000	96.570310 
3771.000000	96.569387 
3770.000000	96.567469 
3769.000000	96.565805 
3768.000000	96.565148 
3767.000000	96.564515 
3766.000000	96.562620 
3765.000000	96.559834 
3764.000000	96.557954 
3763.000000	96.557670 
3762.000000	96.557492 
3761.000000	96.556031 
3760.000000	96.554128 
3759.000000	96.553343 
3758.000000	96.552668 
3757.000000	96.550394 
3756.000000	96.547010 
3755.000000	96.543973 
3754.000000	96.541383 
3753.000000	96.538331 
3752.000000	96.535274 
3751.000000	96.532758 
3750.000000	96.528919 
3749.000000	96.523133 
3748.000000	96.518862 
3747.000000	96.518734 
3746.000000	96.519832 
3745.000000	96.517920 
3744.000000	96.516384 
3743.000000	96.518751 
3742.000000	96.521427 
3741.000000	96.520368 
3740.000000	96.516594 
3739.000000	96.514622 
3738.000000	96.515607 
3737.000000	96.515522 
3736.000000	96.512389 
3735.000000	96.510419 
3734.000000	96.513073 
3733.000000	96.517528 
3732.000000	96.519601 
3731.000000	96.519114 
3730.000000	96.517936 
3729.000000	96.516560 
3728.000000	96.513912 
3727.000000	96.510060 
3726.000000	96.507506 
3725.000000	96.507806 
3724.000000	96.509408 
3723.000000	96.510304 
3722.000000	96.510772 
3721.000000	96.512084 
3720.000000	96.514194 
3719.000000	96.516075 
3718.000000	96.516289 
3717.000000	96.514486 
3716.000000	96.511673 
3715.000000	96.508148 
3714.000000	96.503032 
3713.000000	96.496350 
3712.000000	96.490495 
3711.000000	96.487884 
3710.000000	96.488003 
3709.000000	96.488657 
3708.000000	96.487905 
3707.000000	96.485014 
3706.000000	96.480877 
3705.000000	96.477042 
3704.000000	96.474406 
3703.000000	96.472798 
3702.000000	96.471482 
3701.000000	96.469768 
3700.000000	96.467247 
3699.000000	96.463682 
3698.000000	96.458185 
3697.000000	96.450403 
3696.000000	96.442622 
3695.000000	96.437064 
3694.000000	96.432803 
3693.000000	96.428811 
3692.000000	96.427497 
3691.000000	96.431674 
3690.000000	96.437979 
3689.000000	96.439266 
3688.000000	96.433414 
3687.000000	96.424868 
3686.000000	96.417967 
3685.000000	96.412153 
3684.000000	96.405815 
3683.000000	96.400893 
3682.000000	96.399139 
3681.000000	96.396250 
3680.000000	96.387269 
3679.000000	96.375022 
3678.000000	96.366749 
3677.000000	96.360528 
3676.000000	96.349263 
3675.000000	96.336469 
3674.000000	96.329055 
3673.000000	96.326281 
3672.000000	96.321999 
3671.000000	96.312503 
3670.000000	96.304191 
3669.000000	96.303912 
3668.000000	96.305887 
3667.000000	96.302187 
3666.000000	96.293454 
3665.000000	96.284301 
3664.000000	96.276836 
3663.000000	96.269621 
3662.000000	96.259915 
3661.000000	96.246875 
3660.000000	96.232946 
3659.000000	96.220338 
3658.000000	96.207980 
3657.000000	96.191443 
3656.000000	96.170430 
3655.000000	96.150401 
3654.000000	96.135967 
3653.000000	96.126703 
3652.000000	96.117590 
3651.000000	96.104011 
3650.000000	96.086428 
3649.000000	96.067337 
3648.000000	96.048441 
3647.000000	96.033698 
3646.000000	96.026821 
3645.000000	96.026454 
3644.000000	96.027243 
3643.000000	96.025094 
3642.000000	96.019560 
3641.000000	96.012516 
3640.000000	96.004254 
3639.000000	95.993008 
3638.000000	95.978767 
3637.000000	95.963199 
3636.000000	95.945906 
3635.000000	95.923621 
3634.000000	95.897051 
3633.000000	95.873207 
3632.000000	95.857118 
3631.000000	95.843904 
3630.000000	95.824883 
3629.000000	95.806032 
3628.000000	95.801055 
3627.000000	95.807400 
3626.000000	95.813007 
3625.000000	95.814253 
3624.000000	95.816611 
3623.000000	95.825518 
3622.000000	95.837682 
3621.000000	95.841782 
3620.000000	95.829831 
3619.000000	95.805930 
3618.000000	95.781082 
3617.000000	95.763875 
3616.000000	95.757969 
3615.000000	95.761779 
3614.000000	95.770886 
3613.000000	95.781837 
3612.000000	95.792443 
3611.000000	95.799732 
3610.000000	95.801040 
3609.000000	95.797298 
3608.000000	95.793050 
3607.000000	95.791934 
3606.000000	95.793986 
3605.000000	95.798658 
3604.000000	95.806393 
3603.000000	95.816409 
3602.000000	95.825805 
3601.000000	95.831783 
3600.000000	95.834865 
3599.000000	95.836386 
3598.000000	95.835601 
3597.000000	95.831683 
3596.000000	95.826754 
3595.000000	95.823357 
3594.000000	95.822527 
3593.000000	95.823614 
3592.000000	95.825741 
3591.000000	95.828453 
3590.000000	95.829941 
3589.000000	95.827053 
3588.000000	95.819269 
3587.000000	95.810713 
3586.000000	95.805568 
3585.000000	95.804521 
3584.000000	95.806478 
3583.000000	95.810168 
3582.000000	95.814210 
3581.000000	95.816635 
3580.000000	95.815814 
3579.000000	95.811664 
3578.000000	95.806033 
3577.000000	95.801716 
3576.000000	95.800448 
3575.000000	95.801878 
3574.000000	95.804235 
3573.000000	95.806009 
3572.000000	95.806484 
3571.000000	95.805353 
3570.000000	95.801817 
3569.000000	95.794842 
3568.000000	95.785617 
3567.000000	95.778693 
3566.000000	95.777437 
3565.000000	95.780702 
3564.000000	95.785234 
3563.000000	95.789112 
3562.000000	95.792309 
3561.000000	95.795176 
3560.000000	95.797286 
3559.000000	95.797942 
3558.000000	95.797205 
3557.000000	95.796080 
3556.000000	95.795447 
3555.000000	95.795086 
3554.000000	95.793971 
3553.000000	95.791755 
3552.000000	95.789467 
3551.000000	95.788195 
3550.000000	95.787735 
3549.000000	95.787121 
3548.000000	95.786017 
3547.000000	95.784844 
3546.000000	95.783767 
3545.000000	95.782523 
3544.000000	95.781441 
3543.000000	95.781590 
3542.000000	95.783486 
3541.000000	95.786552 
3540.000000	95.789867 
3539.000000	95.792643 
3538.000000	95.793841 
3537.000000	95.792311 
3536.000000	95.787979 
3535.000000	95.782211 
3534.000000	95.776913 
3533.000000	95.773285 
3532.000000	95.771742 
3531.000000	95.772114 
3530.000000	95.773421 
3529.000000	95.774066 
3528.000000	95.773034 
3527.000000	95.770847 
3526.000000	95.768904 
3525.000000	95.768129 
3524.000000	95.768508 
3523.000000	95.769512 
3522.000000	95.770568 
3521.000000	95.771463 
3520.000000	95.772338 
3519.000000	95.773154 
3518.000000	95.773322 
3517.000000	95.772071 
3516.000000	95.769447 
3515.000000	95.766761 
3514.000000	95.765751 
3513.000000	95.767018 
3512.000000	95.769437 
3511.000000	95.771141 
3510.000000	95.771365 
3509.000000	95.770991 
3508.000000	95.771363 
3507.000000	95.772794 
3506.000000	95.774317 
3505.000000	95.774685 
3504.000000	95.773462 
3503.000000	95.771189 
3502.000000	95.768840 
3501.000000	95.767216 
3500.000000	95.766648 
3499.000000	95.766840 
3498.000000	95.766894 
3497.000000	95.765871 
3496.000000	95.763491 
3495.000000	95.760300 
3494.000000	95.757331 
3493.000000	95.755508 
3492.000000	95.755189 
3491.000000	95.756037 
3490.000000	95.757188 
3489.000000	95.757744 
3488.000000	95.757242 
3487.000000	95.755732 
3486.000000	95.753592 
3485.000000	95.751307 
3484.000000	95.749200 
3483.000000	95.747235 
3482.000000	95.745228 
3481.000000	95.743297 
3480.000000	95.741867 
3479.000000	95.741013 
3478.000000	95.740011 
3477.000000	95.737922 
3476.000000	95.734592 
3475.000000	95.730901 
3474.000000	95.727957 
3473.000000	95.726247 
3472.000000	95.725565 
3471.000000	95.725314 
3470.000000	95.724730 
3469.000000	95.723166 
3468.000000	95.720396 
3467.000000	95.716792 
3466.000000	95.713070 
3465.000000	95.709740 
3464.000000	95.706873 
3463.000000	95.704218 
3462.000000	95.701435 
3461.000000	95.698276 
3460.000000	95.694722 
3459.000000	95.691074 
3458.000000	95.687884 
3457.000000	95.685701 
3456.000000	95.684843 
3455.000000	95.685207 
3454.000000	95.686140 
3453.000000	95.686529 
3452.000000	95.685669 
3451.000000	95.683887 
3450.000000	95.682039 
3449.000000	95.680502 
3448.000000	95.678905 
3447.000000	95.676898 
3446.000000	95.674593 
3445.000000	95.672245 
3444.000000	95.669916 
3443.000000	95.667604 
3442.000000	95.665437 
3441.000000	95.663560 
3440.000000	95.661944 
3439.000000	95.660400 
3438.000000	95.658714 
3437.000000	95.656737 
3436.000000	95.654513 
3435.000000	95.652388 
3434.000000	95.650846 
3433.000000	95.650014 
3432.000000	95.649497 
3431.000000	95.648671 
3430.000000	95.647172 
3429.000000	95.645121 
3428.000000	95.642864 
3427.000000	95.640652 
3426.000000	95.638528 
3425.000000	95.636540 
3424.000000	95.634892 
3423.000000	95.633744 
3422.000000	95.632900 
3421.000000	95.631866 
3420.000000	95.630335 
3419.000000	95.628464 
3418.000000	95.626613 
3417.000000	95.624969 
3416.000000	95.623479 
3415.000000	95.622027 
3414.000000	95.620515 
3413.000000	95.618891 
3412.000000	95.617251 
3411.000000	95.615885 
3410.000000	95.615115 
3409.000000	95.615027 
3408.000000	95.615311 
3407.000000	95.615288 
3406.000000	95.614176 
3405.000000	95.611609 
3404.000000	95.608095 
3403.000000	95.604804 
3402.000000	95.602575 
3401.000000	95.601277 
3400.000000	95.600257 
3399.000000	95.599245 
3398.000000	95.598535 
3397.000000	95.598414 
3396.000000	95.598770 
3395.000000	95.599279 
3394.000000	95.599547 
3393.000000	95.598962 
3392.000000	95.596766 
3391.000000	95.592737 
3390.000000	95.587842 
3389.000000	95.583864 
3388.000000	95.582088 
3387.000000	95.582373 
3386.000000	95.583381 
3385.000000	95.583619 
3384.000000	95.582372 
3383.000000	95.580076 
3382.000000	95.578291 
3381.000000	95.578868 
3380.000000	95.582327 
3379.000000	95.586922 
3378.000000	95.590114 
3377.000000	95.591420 
3376.000000	95.592860 
3375.000000	95.596110 
3374.000000	95.599920 
3373.000000	95.601374 
3372.000000	95.599413 
3371.000000	95.596109 
3370.000000	95.594380 
3369.000000	95.594894 
3368.000000	95.595644 
3367.000000	95.594091 
3366.000000	95.589308 
3365.000000	95.582461 
3364.000000	95.575844 
3363.000000	95.571493 
3362.000000	95.570308 
3361.000000	95.572079 
3360.000000	95.575967 
3359.000000	95.580793 
3358.000000	95.585226 
3357.000000	95.588293 
3356.000000	95.589961 
3355.000000	95.591127 
3354.000000	95.592850 
3353.000000	95.595581 
3352.000000	95.599015 
3351.000000	95.602400 
3350.000000	95.604913 
3349.000000	95.606071 
3348.000000	95.606156 
3347.000000	95.606172 
3346.000000	95.606963 
3345.000000	95.608216 
3344.000000	95.608664 
3343.000000	95.607480 
3342.000000	95.605366 
3341.000000	95.604071 
3340.000000	95.604671 
3339.000000	95.606574 
3338.000000	95.608243 
3337.000000	95.608715 
3336.000000	95.608277 
3335.000000	95.607839 
3334.000000	95.607984 
3333.000000	95.608649 
3332.000000	95.609411 
3331.000000	95.609852 
3330.000000	95.609799 
3329.000000	95.609505 
3328.000000	95.609635 
3327.000000	95.610780 
3326.000000	95.612811 
3325.000000	95.614793 
3324.000000	95.615755 
3323.000000	95.615607 
3322.000000	95.615142 
3321.000000	95.615125 
3320.000000	95.615585 
3319.000000	95.616085 
3318.000000	95.616438 
3317.000000	95.616930 
3316.000000	95.617889 
3315.000000	95.619176 
3314.000000	95.620227 
3313.000000	95.620668 
3312.000000	95.620656 
3311.000000	95.620599 
3310.000000	95.620731 
3309.000000	95.621074 
3308.000000	95.621625 
3307.000000	95.622299 
3306.000000	95.622759 
3305.000000	95.622598 
3304.000000	95.621785 
3303.000000	95.620883 
3302.000000	95.620634 
3301.000000	95.621295 
3300.000000	95.622440 
3299.000000	95.623369 
3298.000000	95.623785 
3297.000000	95.624007 
3296.000000	95.624624 
3295.000000	95.626038 
3294.000000	95.628271 
3293.000000	95.630953 
3292.000000	95.633399 
3291.000000	95.634975 
3290.000000	95.635638 
3289.000000	95.636055 
3288.000000	95.636942 
3287.000000	95.638196 
3286.000000	95.638930 
3285.000000	95.638435 
3284.000000	95.636901 
3283.000000	95.635308 
3282.000000	95.634665 
3281.000000	95.635398 
3280.000000	95.637182 
3279.000000	95.639133 
3278.000000	95.640436 
3277.000000	95.640960 
3276.000000	95.641258 
3275.000000	95.641997 
3274.000000	95.643438 
3273.000000	95.645418 
3272.000000	95.647590 
3271.000000	95.649606 
3270.000000	95.651200 
3269.000000	95.652227 
3268.000000	95.652658 
3267.000000	95.652578 
3266.000000	95.652301 
3265.000000	95.652379 
3264.000000	95.653201 
3263.000000	95.654580 
3262.000000	95.655941 
3261.000000	95.656949 
3260.000000	95.657736 
3259.000000	95.658487 
3258.000000	95.659125 
3257.000000	95.659606 
3256.000000	95.660232 
3255.000000	95.661320 
3254.000000	95.662661 
3253.000000	95.663648 
3252.000000	95.663996 
3251.000000	95.664096 
3250.000000	95.664507 
3249.000000	95.665288 
3248.000000	95.666054 
3247.000000	95.666616 
3246.000000	95.667330 
3245.000000	95.668664 
3244.000000	95.670593 
3243.000000	95.672580 
3242.000000	95.674126 
3241.000000	95.675191 
3240.000000	95.676022 
3239.000000	95.676834 
3238.000000	95.677783 
3237.000000	95.679103 
3236.000000	95.680953 
3235.000000	95.683100 
3234.000000	95.684940 
3233.000000	95.686048 
3232.000000	95.686511 
3231.000000	95.686723 
3230.000000	95.686941 
3229.000000	95.687212 
3228.000000	95.687688 
3227.000000	95.688752 
3226.000000	95.690704 
3225.000000	95.693388 
3224.000000	95.696184 
3223.000000	95.698470 
3222.000000	95.700130 
3221.000000	95.701525 
3220.000000	95.702926 
3219.000000	95.704105 
3218.000000	95.704681 
3217.000000	95.704708 
3216.000000	95.704730 
3215.000000	95.705315 
3214.000000	95.706673 
3213.000000	95.708699 
3212.000000	95.711110 
3211.000000	95.713504 
3210.000000	95.715464 
3209.000000	95.716801 
3208.000000	95.717686 
3207.000000	95.718502 
3206.000000	95.719534 
3205.000000	95.720815 
3204.000000	95.722247 
3203.000000	95.723767 
3202.000000	95.725370 
3201.000000	95.726981 
3200.000000	95.728411 
3199.000000	95.729584 
3198.000000	95.730785 
3197.000000	95.732449 
3196.000000	95.734610 
3195.000000	95.736746 
3194.000000	95.738401 
3193.000000	95.739840 
3192.000000	95.741744 
3191.000000	95.744278 
3190.000000	95.746767 
3189.000000	95.748451 
3188.000000	95.749312 
3187.000000	95.750031 
3186.000000	95.751317 
3185.000000	95.753438 
3184.000000	95.756277 
3183.000000	95.759568 
3182.000000	95.762999 
3181.000000	95.766169 
3180.000000	95.768629 
3179.000000	95.770205 
3178.000000	95.771265 
3177.000000	95.772445 
3176.000000	95.773968 
3175.000000	95.775503 
3174.000000	95.776841 
3173.000000	95.778318 
3172.000000	95.780161 
3171.000000	95.781813 
3170.000000	95.782598 
3169.000000	95.782862 
3168.000000	95.783618 
3167.000000	95.785138 
3166.000000	95.786749 
3165.000000	95.788142 
3164.000000	95.789945 
3163.000000	95.792690 
3162.000000	95.796073 
3161.000000	95.799661 
3160.000000	95.803557 
3159.000000	95.807772 
3158.000000	95.811590 
3157.000000	95.814257 
3156.000000	95.815982 
3155.000000	95.817712 
3154.000000	95.820070 
3153.000000	95.822876 
3152.000000	95.825539 
3151.000000	95.827545 
3150.000000	95.828737 
3149.000000	95.829416 
3148.000000	95.830166 
3147.000000	95.831426 
3146.000000	95.833359 
3145.000000	95.836027 
3144.000000	95.839258 
3143.000000	95.842316 
3142.000000	95.844318 
3141.000000	95.845282 
3140.000000	95.846252 
3139.000000	95.848087 
3138.000000	95.850530 
3137.000000	95.852753 
3136.000000	95.854340 
3135.000000	95.855427 
3134.000000	95.856357 
3133.000000	95.857619 
3132.000000	95.859786 
3131.000000	95.863045 
3130.000000	95.866956 
3129.000000	95.870890 
3128.000000	95.874603 
3127.000000	95.878163 
3126.000000	95.881517 
3125.000000	95.884415 
3124.000000	95.886674 
3123.000000	95.888279 
3122.000000	95.889378 
3121.000000	95.890353 
3120.000000	95.891652 
3119.000000	95.893390 
3118.000000	95.895296 
3117.000000	95.897166 
3116.000000	95.899159 
3115.000000	95.901459 
3114.000000	95.903870 
3113.000000	95.906065 
3112.000000	95.908147 
3111.000000	95.910563 
3110.000000	95.913367 
3109.000000	95.915919 
3108.000000	95.917629 
3107.000000	95.918791 
3106.000000	95.920343 
3105.000000	95.922723 
3104.000000	95.925335 
3103.000000	95.927335 
3102.000000	95.928717 
3101.000000	95.930272 
3100.000000	95.932489 
3099.000000	95.934989 
3098.000000	95.937306 
3097.000000	95.939796 
3096.000000	95.943160 
3095.000000	95.947273 
3094.000000	95.951079 
3093.000000	95.953719 
3092.000000	95.955300 
3091.000000	95.956462 
3090.000000	95.957631 
3089.000000	95.958937 
3088.000000	95.960538 
3087.000000	95.962618 
3086.000000	95.965167 
3085.000000	95.967896 
3084.000000	95.970341 
3083.000000	95.972102 
3082.000000	95.973151 
3081.000000	95.974003 
3080.000000	95.975360 
3079.000000	95.977413 
3078.000000	95.979745 
3077.000000	95.981936 
3076.000000	95.984080 
3075.000000	95.986450 
3074.000000	95.988898 
3073.000000	95.990928 
3072.000000	95.992280 
3071.000000	95.993113 
3070.000000	95.993758 
3069.000000	95.994536 
3068.000000	95.995714 
3067.000000	95.997325 
3066.000000	95.999064 
3065.000000	96.000572 
3064.000000	96.001784 
3063.000000	96.002868 
3062.000000	96.003925 
3061.000000	96.004955 
3060.000000	96.006033 
3059.000000	96.007319 
3058.000000	96.008898 
3057.000000	96.010718 
3056.000000	96.012631 
3055.000000	96.014394 
3054.000000	96.015754 
3053.000000	96.016657 
3052.000000	96.017379 
3051.000000	96.018374 
3050.000000	96.019860 
3049.000000	96.021683 
3048.000000	96.023488 
3047.000000	96.024995 
3046.000000	96.026116 
3045.000000	96.026937 
3044.000000	96.027736 
3043.000000	96.028861 
3042.000000	96.030502 
3041.000000	96.032557 
3040.000000	96.034653 
3039.000000	96.036365 
3038.000000	96.037480 
3037.000000	96.038092 
3036.000000	96.038504 
3035.000000	96.038938 
3034.000000	96.039419 
3033.000000	96.039954 
3032.000000	96.040632 
3031.000000	96.041502 
3030.000000	96.042517 
3029.000000	96.043681 
3028.000000	96.045057 
3027.000000	96.046418 
3026.000000	96.047140 
3025.000000	96.046804 
3024.000000	96.045856 
3023.000000	96.045247 
3022.000000	96.045405 
3021.000000	96.046120 
3020.000000	96.047363 
3019.000000	96.049513 
3018.000000	96.052481 
3017.000000	96.055197 
3016.000000	96.056554 
3015.000000	96.056540 
3014.000000	96.056240 
3013.000000	96.056851 
3012.000000	96.058641 
3011.000000	96.060609 
3010.000000	96.061235 
3009.000000	96.059872 
3008.000000	96.057314 
3007.000000	96.054924 
3006.000000	96.053300 
3005.000000	96.052331 
3004.000000	96.052094 
3003.000000	96.052811 
3002.000000	96.054152 
3001.000000	96.055527 
3000.000000	96.056965 
2999.000000	96.058697 
2998.000000	96.059963 
2997.000000	96.059456 
2996.000000	96.057159 
2995.000000	96.054783 
2994.000000	96.053882 
2993.000000	96.054363 
2992.000000	96.055162 
2991.000000	96.055473 
2990.000000	96.054923 
2989.000000	96.053477 
2988.000000	96.051816 
2987.000000	96.051154 
2986.000000	96.052169 
2985.000000	96.054569 
2984.000000	96.057832 
2983.000000	96.061705 
2982.000000	96.065807 
2981.000000	96.069584 
2980.000000	96.072857 
2979.000000	96.075594 
2978.000000	96.077112 
2977.000000	96.076593 
2976.000000	96.074697 
2975.000000	96.073536 
2974.000000	96.074448 
2973.000000	96.076818 
2972.000000	96.079513 
2971.000000	96.082383 
2970.000000	96.085530 
2969.000000	96.088143 
2968.000000	96.089266 
2967.000000	96.089124 
2966.000000	96.088786 
2965.000000	96.088882 
2964.000000	96.089501 
2963.000000	96.090911 
2962.000000	96.093498 
2961.000000	96.097190 
2960.000000	96.101575 
2959.000000	96.106297 
2958.000000	96.110788 
2957.000000	96.114108 
2956.000000	96.115799 
2955.000000	96.116576 
2954.000000	96.117575 
2953.000000	96.119169 
2952.000000	96.121149 
2951.000000	96.123560 
2950.000000	96.126423 
2949.000000	96.129024 
2948.000000	96.130515 
2947.000000	96.131081 
2946.000000	96.131711 
2945.000000	96.132791 
2944.000000	96.133704 
2943.000000	96.133851 
2942.000000	96.133362 
2941.000000	96.132738 
2940.000000	96.132415 
2939.000000	96.132870 
2938.000000	96.134573 
2937.000000	96.137476 
2936.000000	96.140869 
2935.000000	96.144025 
2934.000000	96.146731 
2933.000000	96.149100 
2932.000000	96.151201 
2931.000000	96.153059 
2930.000000	96.154800 
2929.000000	96.156596 
2928.000000	96.158515 
2927.000000	96.160447 
2926.000000	96.162121 
2925.000000	96.163342 
2924.000000	96.164378 
2923.000000	96.165860 
2922.000000	96.168081 
2921.000000	96.170543 
2920.000000	96.172518 
2919.000000	96.173959 
2918.000000	96.175408 
2917.000000	96.177005 
2916.000000	96.178069 
2915.000000	96.177966 
2914.000000	96.177091 
2913.000000	96.176693 
2912.000000	96.177581 
2911.000000	96.179283 
2910.000000	96.180644 
2909.000000	96.181144 
2908.000000	96.181399 
2907.000000	96.182291 
2906.000000	96.183892 
2905.000000	96.185511 
2904.000000	96.186579 
2903.000000	96.187364 
2902.000000	96.188557 
2901.000000	96.190391 
2900.000000	96.192543 
2899.000000	96.194590 
2898.000000	96.196480 
2897.000000	96.198355 
2896.000000	96.200109 
2895.000000	96.201348 
2894.000000	96.201899 
2893.000000	96.202257 
2892.000000	96.203269 
2891.000000	96.205247 
2890.000000	96.207682 
2889.000000	96.209955 
2888.000000	96.212041 
2887.000000	96.214082 
2886.000000	96.215591 
2885.000000	96.215873 
2884.000000	96.215312 
2883.000000	96.215456 
2882.000000	96.217204 
2881.000000	96.219628 
2880.000000	96.221267 
2879.000000	96.222348 
2878.000000	96.224499 
2877.000000	96.228382 
2876.000000	96.232715 
2875.000000	96.235959 
2874.000000	96.238144 
2873.000000	96.240210 
2872.000000	96.242181 
2871.000000	96.243049 
2870.000000	96.242429 
2869.000000	96.241286 
2868.000000	96.240748 
2867.000000	96.240876 
2866.000000	96.241023 
2865.000000	96.240913 
2864.000000	96.240925 
2863.000000	96.241590 
2862.000000	96.243249 
2861.000000	96.246123 
2860.000000	96.250228 
2859.000000	96.255158 
2858.000000	96.260250 
2857.000000	96.265129 
2856.000000	96.269866 
2855.000000	96.274340 
2854.000000	96.277718 
2853.000000	96.279081 
2852.000000	96.278599 
2851.000000	96.277790 
2850.000000	96.278302 
2849.000000	96.280504 
2848.000000	96.283474 
2847.000000	96.286152 
2846.000000	96.288186 
2845.000000	96.289763 
2844.000000	96.291026 
2843.000000	96.291914 
2842.000000	96.292403 
2841.000000	96.292565 
2840.000000	96.292329 
2839.000000	96.291444 
2838.000000	96.289886 
2837.000000	96.288238 
2836.000000	96.287358 
2835.000000	96.287605 
2834.000000	96.288648 
2833.000000	96.290275 
2832.000000	96.293051 
2831.000000	96.297569 
2830.000000	96.303195 
2829.000000	96.308112 
2828.000000	96.310987 
2827.000000	96.312321 
2826.000000	96.313817 
2825.000000	96.316524 
2824.000000	96.319910 
2823.000000	96.322753 
2822.000000	96.324550 
2821.000000	96.325758 
2820.000000	96.326869 
2819.000000	96.327718 
2818.000000	96.327924 
2817.000000	96.327733 
2816.000000	96.328022 
2815.000000	96.329390 
2814.000000	96.331487 
2813.000000	96.333339 
2812.000000	96.334196 
2811.000000	96.333941 
2810.000000	96.333023 
2809.000000	96.332277 
2808.000000	96.332620 
2807.000000	96.334468 
2806.000000	96.337336 
2805.000000	96.340074 
2804.000000	96.341824 
2803.000000	96.342627 
2802.000000	96.343053 
2801.000000	96.343506 
2800.000000	96.344025 
2799.000000	96.344631 
2798.000000	96.345477 
2797.000000	96.346573 
2796.000000	96.347636 
2795.000000	96.348399 
2794.000000	96.348969 
2793.000000	96.349714 
2792.000000	96.350831 
2791.000000	96.352173 
2790.000000	96.353440 
2789.000000	96.354451 
2788.000000	96.355223 
2787.000000	96.355887 
2786.000000	96.356593 
2785.000000	96.357447 
2784.000000	96.358495 
2783.000000	96.359721 
2782.000000	96.361026 
2781.000000	96.362284 
2780.000000	96.363458 
2779.000000	96.364615 
2778.000000	96.365805 
2777.000000	96.366972 
2776.000000	96.368019 
2775.000000	96.368948 
2774.000000	96.369896 
2773.000000	96.370957 
2772.000000	96.372015 
2771.000000	96.372855 
2770.000000	96.373505 
2769.000000	96.374341 
2768.000000	96.375688 
2767.000000	96.377366 
2766.000000	96.378804 
2765.000000	96.379698 
2764.000000	96.380340 
2763.000000	96.381189 
2762.000000	96.382231 
2761.000000	96.383087 
2760.000000	96.383625 
2759.000000	96.384184 
2758.000000	96.385144 
2757.000000	96.386424 
2756.000000	96.387569 
2755.000000	96.388334 
2754.000000	96.389025 
2753.000000	96.390132 
2752.000000	96.391698 
2751.000000	96.393306 
2750.000000	96.394743 
2749.000000	96.396318 
2748.000000	96.398195 
2747.000000	96.399684 
2746.000000	96.399837 
2745.000000	96.398681 
2744.000000	96.397423 
2743.000000	96.397189 
2742.000000	96.398009 
2741.000000	96.399189 
2740.000000	96.400168 
2739.000000	96.400738 
2738.000000	96.400750 
2737.000000	96.400181 
2736.000000	96.399485 
2735.000000	96.399357 
2734.000000	96.399950 
2733.000000	96.400659 
2732.000000	96.400915 
2731.000000	96.400982 
2730.000000	96.401632 
2729.000000	96.403211 
2728.000000	96.405251 
2727.000000	96.406946 
2726.000000	96.407921 
2725.000000	96.408434 
2724.000000	96.408978 
2723.000000	96.409764 
2722.000000	96.410639 
2721.000000	96.411412 
2720.000000	96.412100 
2719.000000	96.412795 
2718.000000	96.413452 
2717.000000	96.413969 
2716.000000	96.414415 
2715.000000	96.414969 
2714.000000	96.415635 
2713.000000	96.416213 
2712.000000	96.416578 
2711.000000	96.416835 
2710.000000	96.417148 
2709.000000	96.417551 
2708.000000	96.417992 
2707.000000	96.418463 
2706.000000	96.418968 
2705.000000	96.419488 
2704.000000	96.420013 
2703.000000	96.420547 
2702.000000	96.421084 
2701.000000	96.421619 
2700.000000	96.422153 
2699.000000	96.422683 
2698.000000	96.423199 
2697.000000	96.423691 
2696.000000	96.424153 
2695.000000	96.424585 
2694.000000	96.424991 
2693.000000	96.425377 
2692.000000	96.425748 
2691.000000	96.426109 
2690.000000	96.426464 
2689.000000	96.426812 
2688.000000	96.427148 
2687.000000	96.427471 
2686.000000	96.427779 
2685.000000	96.428069 
2684.000000	96.428336 
2683.000000	96.428572 
2682.000000	96.428775 
2681.000000	96.428946 
2680.000000	96.429085 
2679.000000	96.429193 
2678.000000	96.429273 
2677.000000	96.429336 
2676.000000	96.429390 
2675.000000	96.429442 
2674.000000	96.429489 
2673.000000	96.429525 
2672.000000	96.429570 
2671.000000	96.429650 
2670.000000	96.429748 
2669.000000	96.429827 
2668.000000	96.429929 
2667.000000	96.430137 
2666.000000	96.430419 
2665.000000	96.430621 
2664.000000	96.430687 
2663.000000	96.430769 
2662.000000	96.430988 
2661.000000	96.431171 
2660.000000	96.431099 
2659.000000	96.430884 
2658.000000	96.430801 
2657.000000	96.430795 
2656.000000	96.430562 
2655.000000	96.430104 
2654.000000	96.429810 
2653.000000	96.429890 
2652.000000	96.430065 
2651.000000	96.430024 
2650.000000	96.429984 
2649.000000	96.430368 
2648.000000	96.431035 
2647.000000	96.431300 
2646.000000	96.430817 
2645.000000	96.430039 
2644.000000	96.429622 
2643.000000	96.429492 
2642.000000	96.429092 
2641.000000	96.428481 
2640.000000	96.428427 
2639.000000	96.429203 
2638.000000	96.430089 
2637.000000	96.430365 
2636.000000	96.430375 
2635.000000	96.430924 
2634.000000	96.432117 
2633.000000	96.433239 
2632.000000	96.433694 
2631.000000	96.433643 
2630.000000	96.433599 
2629.000000	96.433700 
2628.000000	96.433692 
2627.000000	96.433497 
2626.000000	96.433435 
2625.000000	96.433810 
2624.000000	96.434479 
2623.000000	96.434987 
2622.000000	96.435113 
2621.000000	96.435032 
2620.000000	96.434861 
2619.000000	96.434374 
2618.000000	96.433412 
2617.000000	96.432349 
2616.000000	96.431841 
2615.000000	96.432062 
2614.000000	96.432534 
2613.000000	96.432668 
2612.000000	96.432466 
2611.000000	96.432364 
2610.000000	96.432528 
2609.000000	96.432624 
2608.000000	96.432343 
2607.000000	96.431871 
2606.000000	96.431655 
2605.000000	96.431785 
2604.000000	96.431882 
2603.000000	96.431594 
2602.000000	96.431033 
2601.000000	96.430573 
2600.000000	96.430368 
2599.000000	96.430221 
2598.000000	96.429914 
2597.000000	96.429506 
2596.000000	96.429168 
2595.000000	96.428829 
2594.000000	96.428205 
2593.000000	96.427345 
2592.000000	96.426867 
2591.000000	96.427182 
2590.000000	96.427767 
2589.000000	96.427735 
2588.000000	96.427094 
2587.000000	96.426736 
2586.000000	96.427138 
2585.000000	96.427855 
2584.000000	96.428522 
2583.000000	96.429517 
2582.000000	96.431101 
2581.000000	96.432564 
2580.000000	96.433040 
2579.000000	96.432729 
2578.000000	96.432749 
2577.000000	96.433681 
2576.000000	96.434769 
2575.000000	96.434875 
2574.000000	96.433925 
2573.000000	96.433049 
2572.000000	96.433166 
2571.000000	96.433813 
2570.000000	96.433826 
2569.000000	96.433039 
2568.000000	96.432747 
2567.000000	96.434004 
2566.000000	96.436077 
2565.000000	96.437338 
2564.000000	96.437535 
2563.000000	96.437993 
2562.000000	96.439412 
2561.000000	96.440838 
2560.000000	96.441455 
2559.000000	96.442203 
2558.000000	96.444426 
2557.000000	96.447670 
2556.000000	96.450134 
2555.000000	96.451153 
2554.000000	96.451830 
2553.000000	96.453002 
2552.000000	96.453802 
2551.000000	96.453211 
2550.000000	96.451962 
2549.000000	96.451684 
2548.000000	96.452440 
2547.000000	96.452538 
2546.000000	96.450983 
2545.000000	96.449018 
2544.000000	96.448566 
2543.000000	96.449637 
2542.000000	96.450332 
2541.000000	96.449517 
2540.000000	96.448559 
2539.000000	96.449513 
2538.000000	96.452205 
2537.000000	96.454377 
2536.000000	96.454776 
2535.000000	96.454551 
2534.000000	96.455006 
2533.000000	96.455383 
2532.000000	96.454198 
2531.000000	96.451798 
2530.000000	96.449911 
2529.000000	96.448894 
2528.000000	96.447228 
2527.000000	96.444315 
2526.000000	96.442318 
2525.000000	96.443897 
2524.000000	96.448960 
2523.000000	96.454410 
2522.000000	96.457283 
2521.000000	96.457474 
2520.000000	96.456942 
2519.000000	96.456956 
2518.000000	96.456778 
2517.000000	96.455191 
2516.000000	96.452567 
2515.000000	96.450611 
2514.000000	96.450184 
2513.000000	96.450535 
2512.000000	96.451123 
2511.000000	96.453115 
2510.000000	96.457847 
2509.000000	96.464213 
2508.000000	96.469150 
2507.000000	96.471271 
2506.000000	96.472747 
2505.000000	96.476522 
2504.000000	96.482342 
2503.000000	96.486939 
2502.000000	96.488157 
2501.000000	96.487178 
2500.000000	96.486359 
2499.000000	96.486028 
2498.000000	96.484931 
2497.000000	96.483044 
2496.000000	96.481965 
2495.000000	96.482438 
2494.000000	96.483141 
2493.000000	96.482775 
2492.000000	96.482240 
2491.000000	96.483497 
2490.000000	96.486793 
2489.000000	96.490295 
2488.000000	96.492425 
2487.000000	96.493558 
2486.000000	96.494889 
2485.000000	96.496621 
2484.000000	96.498067 
2483.000000	96.499063 
2482.000000	96.500214 
2481.000000	96.501742 
2480.000000	96.502944 
2479.000000	96.503243 
2478.000000	96.503119 
2477.000000	96.503434 
2476.000000	96.504253 
2475.000000	96.504989 
2474.000000	96.505399 
2473.000000	96.505795 
2472.000000	96.506403 
2471.000000	96.507061 
2470.000000	96.507592 
2469.000000	96.508046 
2468.000000	96.508540 
2467.000000	96.509073 
2466.000000	96.509563 
2465.000000	96.509979 
2464.000000	96.510363 
2463.000000	96.510772 
2462.000000	96.511215 
2461.000000	96.511675 
2460.000000	96.512136 
2459.000000	96.512607 
2458.000000	96.513097 
2457.000000	96.513606 
2456.000000	96.514105 
2455.000000	96.514564 
2454.000000	96.514986 
2453.000000	96.515431 
2452.000000	96.515927 
2451.000000	96.516406 
2450.000000	96.516805 
2449.000000	96.517215 
2448.000000	96.517782 
2447.000000	96.518495 
2446.000000	96.519163 
2445.000000	96.519695 
2444.000000	96.520214 
2443.000000	96.520820 
2442.000000	96.521357 
2441.000000	96.521613 
2440.000000	96.521708 
2439.000000	96.522065 
2438.000000	96.522936 
2437.000000	96.524150 
2436.000000	96.525356 
2435.000000	96.526443 
2434.000000	96.527490 
2433.000000	96.528423 
2432.000000	96.529033 
2431.000000	96.529356 
2430.000000	96.529811 
2429.000000	96.530645 
2428.000000	96.531483 
2427.000000	96.531641 
2426.000000	96.530800 
2425.000000	96.529372 
2424.000000	96.528100 
2423.000000	96.527022 
2422.000000	96.525614 
2421.000000	96.524432 
2420.000000	96.525052 
2419.000000	96.528009 
2418.000000	96.531635 
2417.000000	96.533929 
2416.000000	96.535190 
2415.000000	96.537013 
2414.000000	96.539031 
2413.000000	96.539301 
2412.000000	96.537866 
2411.000000	96.537080 
2410.000000	96.538160 
2409.000000	96.539578 
2408.000000	96.539508 
2407.000000	96.538344 
2406.000000	96.537872 
2405.000000	96.538684 
2404.000000	96.539296 
2403.000000	96.537907 
2402.000000	96.534861 
2401.000000	96.532874 
2400.000000	96.534085 
2399.000000	96.537334 
2398.000000	96.539788 
2397.000000	96.541199 
2396.000000	96.544080 
2395.000000	96.548815 
2394.000000	96.551515 
2393.000000	96.549149 
2392.000000	96.544509 
2391.000000	96.542625 
2390.000000	96.543362 
2389.000000	96.541405 
2388.000000	96.533691 
2387.000000	96.523210 
2386.000000	96.514423 
2385.000000	96.507996 
2384.000000	96.502148 
2383.000000	96.497521 
2382.000000	96.498561 
2381.000000	96.510240 
2380.000000	96.534247 
2379.000000	96.567118 
2378.000000	96.600636 
2377.000000	96.625186 
2376.000000	96.634190 
2375.000000	96.626324 
2374.000000	96.605233 
2373.000000	96.578053 
2372.000000	96.553286 
2371.000000	96.536911 
2370.000000	96.529352 
2369.000000	96.526707 
2368.000000	96.525234 
2367.000000	96.523620 
2366.000000	96.521641 
2365.000000	96.519218 
2364.000000	96.516784 
2363.000000	96.514148 
2362.000000	96.511731 
2361.000000	96.510721 
2360.000000	96.509114 
2359.000000	96.504202 
2358.000000	96.497190 
2357.000000	96.493405 
2356.000000	96.496502 
2355.000000	96.502288 
2354.000000	96.508153 
2353.000000	96.511685 
2352.000000	96.510502 
2351.000000	96.501618 
2350.000000	96.483249 
2349.000000	96.460822 
2348.000000	96.442592 
2347.000000	96.435166 
2346.000000	96.433886 
2345.000000	96.427417 
2344.000000	96.415478 
2343.000000	96.404396 
2342.000000	96.403924 
2341.000000	96.414030 
2340.000000	96.428015 
2339.000000	96.438740 
2338.000000	96.443687 
2337.000000	96.445019 
2336.000000	96.443001 
2335.000000	96.439258 
2334.000000	96.435290 
2333.000000	96.432961 
2332.000000	96.427575 
2331.000000	96.417610 
2330.000000	96.399931 
2329.000000	96.379204 
2328.000000	96.353536 
2327.000000	96.327337 
2326.000000	96.304517 
2325.000000	96.291849 
2324.000000	96.293149 
2323.000000	96.305803 
2322.000000	96.322075 
2321.000000	96.332164 
2320.000000	96.334061 
2319.000000	96.335503 
2318.000000	96.342201 
2317.000000	96.354194 
2316.000000	96.363106 
2315.000000	96.365904 
2314.000000	96.359908 
2313.000000	96.348508 
2312.000000	96.332827 
2311.000000	96.319673 
2310.000000	96.311252 
2309.000000	96.308326 
2308.000000	96.306407 
2307.000000	96.306376 
2306.000000	96.309229 
2305.000000	96.314997 
2304.000000	96.318146 
2303.000000	96.316582 
2302.000000	96.311858 
2301.000000	96.309348 
2300.000000	96.309710 
2299.000000	96.311939 
2298.000000	96.312764 
2297.000000	96.312681 
2296.000000	96.312164 
2295.000000	96.313079 
2294.000000	96.315062 
2293.000000	96.318107 
2292.000000	96.321811 
2291.000000	96.326685 
2290.000000	96.332708 
2289.000000	96.339157 
2288.000000	96.345181 
2287.000000	96.350187 
2286.000000	96.354035 
2285.000000	96.356643 
2284.000000	96.359310 
2283.000000	96.363924 
2282.000000	96.371437 
2281.000000	96.379848 
2280.000000	96.385671 
2279.000000	96.386236 
2278.000000	96.381676 
2277.000000	96.375136 
2276.000000	96.370694 
2275.000000	96.370506 
2274.000000	96.373498 
2273.000000	96.377555 
2272.000000	96.381784 
2271.000000	96.386568 
2270.000000	96.391639 
2269.000000	96.396203 
2268.000000	96.400347 
2267.000000	96.404657 
2266.000000	96.408032 
2265.000000	96.408111 
2264.000000	96.404013 
2263.000000	96.397596 
2262.000000	96.391557 
2261.000000	96.387430 
2260.000000	96.385898 
2259.000000	96.386939 
2258.000000	96.389540 
2257.000000	96.392172 
2256.000000	96.394416 
2255.000000	96.396837 
2254.000000	96.399224 
2253.000000	96.400479 
2252.000000	96.400232 
2251.000000	96.398959 
2250.000000	96.396162 
2249.000000	96.390856 
2248.000000	96.384119 
2247.000000	96.379238 
2246.000000	96.378133 
2245.000000	96.379181 
2244.000000	96.379215 
2243.000000	96.377042 
2242.000000	96.373966 
2241.000000	96.371743 
2240.000000	96.370951 
2239.000000	96.371075 
2238.000000	96.371126 
2237.000000	96.370308 
2236.000000	96.368598 
2235.000000	96.366582 
2234.000000	96.364802 
2233.000000	96.363397 
2232.000000	96.362326 
2231.000000	96.361534 
2230.000000	96.360820 
2229.000000	96.359881 
2228.000000	96.358626 
2227.000000	96.357213 
2226.000000	96.355756 
2225.000000	96.354242 
2224.000000	96.352686 
2223.000000	96.351140 
2222.000000	96.349614 
2221.000000	96.348119 
2220.000000	96.346650 
2219.000000	96.345187 
2218.000000	96.343715 
2217.000000	96.342231 
2216.000000	96.340741 
2215.000000	96.339243 
2214.000000	96.337731 
2213.000000	96.336209 
2212.000000	96.334696 
2211.000000	96.333215 
2210.000000	96.331768 
2209.000000	96.330330 
2208.000000	96.328867 
2207.000000	96.327357 
2206.000000	96.325790 
2205.000000	96.324162 
2204.000000	96.322468 
2203.000000	96.320704 
2202.000000	96.318984 
2201.000000	96.317685 
2200.000000	96.316661 
2199.000000	96.315041 
2198.000000	96.312070 
2197.000000	96.308106 
2196.000000	96.304662 
2195.000000	96.303120 
2194.000000	96.303415 
2193.000000	96.304087 
2192.000000	96.303856 
2191.000000	96.302531 
2190.000000	96.300438 
2189.000000	96.297986 
2188.000000	96.295674 
2187.000000	96.293341 
2186.000000	96.289496 
2185.000000	96.283131 
2184.000000	96.276665 
2183.000000	96.274729 
2182.000000	96.278761 
2181.000000	96.284302 
2180.000000	96.285328 
2179.000000	96.280551 
2178.000000	96.273830 
2177.000000	96.269823 
2176.000000	96.270412 
2175.000000	96.274398 
2174.000000	96.279027 
2173.000000	96.282436 
2172.000000	96.285291 
2171.000000	96.288751 
2170.000000	96.290581 
2169.000000	96.285938 
2168.000000	96.273656 
2167.000000	96.259422 
2166.000000	96.249904 
2165.000000	96.245397 
2164.000000	96.241110 
2163.000000	96.234709 
2162.000000	96.229866 
2161.000000	96.232645 
2160.000000	96.246491 
2159.000000	96.269483 
2158.000000	96.293982 
2157.000000	96.311048 
2156.000000	96.317796 
2155.000000	96.319021 
2154.000000	96.321492 
2153.000000	96.327872 
2152.000000	96.335648 
2151.000000	96.340123 
2150.000000	96.338558 
2149.000000	96.333822 
2148.000000	96.333986 
2147.000000	96.344988 
2146.000000	96.363038 
2145.000000	96.377088 
2144.000000	96.380898 
2143.000000	96.379357 
2142.000000	96.381336 
2141.000000	96.389305 
2140.000000	96.398926 
2139.000000	96.406551 
2138.000000	96.412955 
2137.000000	96.420013 
2136.000000	96.426908 
2135.000000	96.430511 
2134.000000	96.428868 
2133.000000	96.424384 
2132.000000	96.422836 
2131.000000	96.427640 
2130.000000	96.435537 
2129.000000	96.439797 
2128.000000	96.437689 
2127.000000	96.432749 
2126.000000	96.429674 
2125.000000	96.429339 
2124.000000	96.429738 
2123.000000	96.429426 
2122.000000	96.428347 
2121.000000	96.426864 
2120.000000	96.425495 
2119.000000	96.424741 
2118.000000	96.424368 
2117.000000	96.423611 
2116.000000	96.422285 
2115.000000	96.420566 
2114.000000	96.417690 
2113.000000	96.412761 
2112.000000	96.407283 
2111.000000	96.404665 
2110.000000	96.406106 
2109.000000	96.408916 
2108.000000	96.410015 
2107.000000	96.409512 
2106.000000	96.409360 
2105.000000	96.410319 
2104.000000	96.411866 
2103.000000	96.413503 
2102.000000	96.414272 
2101.000000	96.412354 
2100.000000	96.407200 
2099.000000	96.401192 
2098.000000	96.397905 
2097.000000	96.398511 
2096.000000	96.400981 
2095.000000	96.402242 
2094.000000	96.400809 
2093.000000	96.397139 
2092.000000	96.392595 
2091.000000	96.388569 
2090.000000	96.386007 
2089.000000	96.385026 
2088.000000	96.384698 
2087.000000	96.383425 
2086.000000	96.379833 
2085.000000	96.373823 
2084.000000	96.367093 
2083.000000	96.362005 
2082.000000	96.359360 
2081.000000	96.357679 
2080.000000	96.355253 
2079.000000	96.352086 
2078.000000	96.348735 
2077.000000	96.344523 
2076.000000	96.338869 
2075.000000	96.333465 
2074.000000	96.330213 
2073.000000	96.327600 
2072.000000	96.322134 
2071.000000	96.313634 
2070.000000	96.306333 
2069.000000	96.303884 
2068.000000	96.305503 
2067.000000	96.307788 
2066.000000	96.308472 
2065.000000	96.307241 
2064.000000	96.304546 
2063.000000	96.301374 
2062.000000	96.299535 
2061.000000	96.300639 
2060.000000	96.304560 
2059.000000	96.309339 
2058.000000	96.312433 
2057.000000	96.311989 
2056.000000	96.307094 
2055.000000	96.297340 
2054.000000	96.283207 
2053.000000	96.266953 
2052.000000	96.252395 
2051.000000	96.242583 
2050.000000	96.237500 
2049.000000	96.234732 
2048.000000	96.232504 
2047.000000	96.231410 
2046.000000	96.232530 
2045.000000	96.235009 
2044.000000	96.236622 
2043.000000	96.236224 
2042.000000	96.234733 
2041.000000	96.234051 
2040.000000	96.235623 
2039.000000	96.239677 
2038.000000	96.244874 
2037.000000	96.248587 
2036.000000	96.248583 
2035.000000	96.245050 
2034.000000	96.241067 
2033.000000	96.240444 
2032.000000	96.244296 
2031.000000	96.249766 
2030.000000	96.252312 
2029.000000	96.249959 
2028.000000	96.244702 
2027.000000	96.240134 
2026.000000	96.237963 
2025.000000	96.237802 
2024.000000	96.239292 
2023.000000	96.242760 
2022.000000	96.247854 
2021.000000	96.252733 
2020.000000	96.255320 
2019.000000	96.254710 
2018.000000	96.251186 
2017.000000	96.245961 
2016.000000	96.241261 
2015.000000	96.239243 
2014.000000	96.239889 
2013.000000	96.240557 
2012.000000	96.238861 
2011.000000	96.235817 
2010.000000	96.234746 
2009.000000	96.237411 
2008.000000	96.242617 
2007.000000	96.248128 
2006.000000	96.252507 
2005.000000	96.255031 
2004.000000	96.255649 
2003.000000	96.255554 
2002.000000	96.256388 
2001.000000	96.257881 
2000.000000	96.257522 
1999.000000	96.253212 
1998.000000	96.245393 
1997.000000	96.236954 
1996.000000	96.231440 
1995.000000	96.230917 
1994.000000	96.234513 
1993.000000	96.238478 
1992.000000	96.239176 
1991.000000	96.237008 
1990.000000	96.236185 
1989.000000	96.239878 
1988.000000	96.246197 
1987.000000	96.249401 
1986.000000	96.245184 
1985.000000	96.234631 
1984.000000	96.223035 
1983.000000	96.214603 
1982.000000	96.208896 
1981.000000	96.203309 
1980.000000	96.198701 
1979.000000	96.199613 
1978.000000	96.207347 
1977.000000	96.216250 
1976.000000	96.220240 
1975.000000	96.221308 
1974.000000	96.226649 
1973.000000	96.238833 
1972.000000	96.252361 
1971.000000	96.260163 
1970.000000	96.260777 
1969.000000	96.257594 
1968.000000	96.253571 
1967.000000	96.248923 
1966.000000	96.244445 
1965.000000	96.243864 
1964.000000	96.250424 
1963.000000	96.262637 
1962.000000	96.275010 
1961.000000	96.283363 
1960.000000	96.287966 
1959.000000	96.291047 
1958.000000	96.293658 
1957.000000	96.295891 
1956.000000	96.298178 
1955.000000	96.300815 
1954.000000	96.303276 
1953.000000	96.305331 
1952.000000	96.307487 
1951.000000	96.309576 
1950.000000	96.310699 
1949.000000	96.311355 
1948.000000	96.314115 
1947.000000	96.320609 
1946.000000	96.329006 
1945.000000	96.335981 
1944.000000	96.340488 
1943.000000	96.343945 
1942.000000	96.347544 
1941.000000	96.350836 
1940.000000	96.353019 
1939.000000	96.354032 
1938.000000	96.354491 
1937.000000	96.355547 
1936.000000	96.358116 
1935.000000	96.361777 
1934.000000	96.364849 
1933.000000	96.366201 
1932.000000	96.366664 
1931.000000	96.368081 
1930.000000	96.371019 
1929.000000	96.374114 
1928.000000	96.376153 
1927.000000	96.377685 
1926.000000	96.379737 
1925.000000	96.382044 
1924.000000	96.383596 
1923.000000	96.384265 
1922.000000	96.384612 
1921.000000	96.384767 
1920.000000	96.384647 
1919.000000	96.384602 
1918.000000	96.385021 
1917.000000	96.385486 
1916.000000	96.385367 
1915.000000	96.385140 
1914.000000	96.385802 
1913.000000	96.387495 
1912.000000	96.389361 
1911.000000	96.390631 
1910.000000	96.391236 
1909.000000	96.391327 
1908.000000	96.391289 
1907.000000	96.391675 
1906.000000	96.392485 
1905.000000	96.392689 
1904.000000	96.391253 
1903.000000	96.388887 
1902.000000	96.387255 
1901.000000	96.386744 
1900.000000	96.386536 
1899.000000	96.386192 
1898.000000	96.386030 
1897.000000	96.386087 
1896.000000	96.385605 
1895.000000	96.384200 
1894.000000	96.382501 
1893.000000	96.381329 
1892.000000	96.381260 
1891.000000	96.382735 
1890.000000	96.385215 
1889.000000	96.386780 
1888.000000	96.386421 
1887.000000	96.385940 
1886.000000	96.387482 
1885.000000	96.390204 
1884.000000	96.391094 
1883.000000	96.389037 
1882.000000	96.386092 
1881.000000	96.384623 
1880.000000	96.385021 
1879.000000	96.386069 
1878.000000	96.386409 
1877.000000	96.386147 
1876.000000	96.386903 
1875.000000	96.390189 
1874.000000	96.395737 
1873.000000	96.401399 
1872.000000	96.405378 
1871.000000	96.407604 
1870.000000	96.408268 
1869.000000	96.406937 
1868.000000	96.404576 
1867.000000	96.404464 
1866.000000	96.408224 
1865.000000	96.413125 
1864.000000	96.415534 
1863.000000	96.415958 
1862.000000	96.417846 
1861.000000	96.422254 
1860.000000	96.426885 
1859.000000	96.430259 
1858.000000	96.433508 
1857.000000	96.437411 
1856.000000	96.441235 
1855.000000	96.444801 
1854.000000	96.448995 
1853.000000	96.453436 
1852.000000	96.457413 
1851.000000	96.461825 
1850.000000	96.467408 
1849.000000	96.473307 
1848.000000	96.478248 
1847.000000	96.482642 
1846.000000	96.487151 
1845.000000	96.490601 
1844.000000	96.492045 
1843.000000	96.492996 
1842.000000	96.494995 
1841.000000	96.497363 
1840.000000	96.500002 
1839.000000	96.504288 
1838.000000	96.510243 
1837.000000	96.514483 
1836.000000	96.514369 
1835.000000	96.513142 
1834.000000	96.515512 
1833.000000	96.520570 
1832.000000	96.524001 
1831.000000	96.523752 
1830.000000	96.522101 
1829.000000	96.523267 
1828.000000	96.528578 
1827.000000	96.536183 
1826.000000	96.542175 
1825.000000	96.543047 
1824.000000	96.539551 
1823.000000	96.537256 
1822.000000	96.540929 
1821.000000	96.548427 
1820.000000	96.552901 
1819.000000	96.551140 
1818.000000	96.548222 
1817.000000	96.550195 
1816.000000	96.555085 
1815.000000	96.558101 
1814.000000	96.558661 
1813.000000	96.559024 
1812.000000	96.558700 
1811.000000	96.554516 
1810.000000	96.547794 
1809.000000	96.542551 
1808.000000	96.538710 
1807.000000	96.534463 
1806.000000	96.531073 
1805.000000	96.530308 
1804.000000	96.529049 
1803.000000	96.522052 
1802.000000	96.507829 
1801.000000	96.491921 
1800.000000	96.481572 
1799.000000	96.479113 
1798.000000	96.483365 
1797.000000	96.490266 
1796.000000	96.495470 
1795.000000	96.499295 
1794.000000	96.504437 
1793.000000	96.510111 
1792.000000	96.511654 
1791.000000	96.509060 
1790.000000	96.510187 
1789.000000	96.519674 
1788.000000	96.533690 
1787.000000	96.545559 
1786.000000	96.552781 
1785.000000	96.557569 
1784.000000	96.562040 
1783.000000	96.567525 
1782.000000	96.572624 
1781.000000	96.574947 
1780.000000	96.575130 
1779.000000	96.575987 
1778.000000	96.580386 
1777.000000	96.586597 
1776.000000	96.590873 
1775.000000	96.592084 
1774.000000	96.591349 
1773.000000	96.591383 
1772.000000	96.594466 
1771.000000	96.598224 
1770.000000	96.600139 
1769.000000	96.600714 
1768.000000	96.601141 
1767.000000	96.603094 
1766.000000	96.607707 
1765.000000	96.615265 
1764.000000	96.624377 
1763.000000	96.632023 
1762.000000	96.636419 
1761.000000	96.640195 
1760.000000	96.645444 
1759.000000	96.649991 
1758.000000	96.650687 
1757.000000	96.646964 
1756.000000	96.643958 
1755.000000	96.644753 
1754.000000	96.646100 
1753.000000	96.643890 
1752.000000	96.638652 
1751.000000	96.634988 
1750.000000	96.635502 
1749.000000	96.638120 
1748.000000	96.640732 
1747.000000	96.644139 
1746.000000	96.647430 
1745.000000	96.648816 
1744.000000	96.648104 
1743.000000	96.645957 
1742.000000	96.643961 
1741.000000	96.644582 
1740.000000	96.648223 
1739.000000	96.652198 
1738.000000	96.654246 
1737.000000	96.654998 
1736.000000	96.655097 
1735.000000	96.653158 
1734.000000	96.649905 
1733.000000	96.648240 
1732.000000	96.651004 
1731.000000	96.658546 
1730.000000	96.667566 
1729.000000	96.673409 
1728.000000	96.675669 
1727.000000	96.677518 
1726.000000	96.679968 
1725.000000	96.682180 
1724.000000	96.683209 
1723.000000	96.683008 
1722.000000	96.682833 
1721.000000	96.682662 
1720.000000	96.681522 
1719.000000	96.678838 
1718.000000	96.675907 
1717.000000	96.673259 
1716.000000	96.667326 
1715.000000	96.658992 
1714.000000	96.654091 
1713.000000	96.653768 
1712.000000	96.653649 
1711.000000	96.651778 
1710.000000	96.649945 
1709.000000	96.649000 
1708.000000	96.648106 
1707.000000	96.647162 
1706.000000	96.647068 
1705.000000	96.646732 
1704.000000	96.642766 
1703.000000	96.634871 
1702.000000	96.625940 
1701.000000	96.620330 
1700.000000	96.619989 
1699.000000	96.620339 
1698.000000	96.621059 
1697.000000	96.622842 
1696.000000	96.622926 
1695.000000	96.620297 
1694.000000	96.617044 
1693.000000	96.614705 
1692.000000	96.612756 
1691.000000	96.610417 
1690.000000	96.607591 
1689.000000	96.604114 
1688.000000	96.600192 
1687.000000	96.596330 
1686.000000	96.593116 
1685.000000	96.590836 
1684.000000	96.588122 
1683.000000	96.584194 
1682.000000	96.580447 
1681.000000	96.577341 
1680.000000	96.574743 
1679.000000	96.572353 
1678.000000	96.569787 
1677.000000	96.567008 
1676.000000	96.564526 
1675.000000	96.562725 
1674.000000	96.560477 
1673.000000	96.557423 
1672.000000	96.554873 
1671.000000	96.553686 
1670.000000	96.552681 
1669.000000	96.549589 
1668.000000	96.545163 
1667.000000	96.541921 
1666.000000	96.540016 
1665.000000	96.538729 
1664.000000	96.538341 
1663.000000	96.539629 
1662.000000	96.540916 
1661.000000	96.539226 
1660.000000	96.535829 
1659.000000	96.533926 
1658.000000	96.533661 
1657.000000	96.532974 
1656.000000	96.530571 
1655.000000	96.525692 
1654.000000	96.517201 
1653.000000	96.509168 
1652.000000	96.502860 
1651.000000	96.499761 
1650.000000	96.498881 
1649.000000	96.499041 
1648.000000	96.498850 
1647.000000	96.498319 
1646.000000	96.497430 
1645.000000	96.495761 
1644.000000	96.493914 
1643.000000	96.493854 
1642.000000	96.496780 
1641.000000	96.500644 
1640.000000	96.503056 
1639.000000	96.502568 
1638.000000	96.499804 
1637.000000	96.496448 
1636.000000	96.494603 
1635.000000	96.495336 
1634.000000	96.497152 
1633.000000	96.499101 
1632.000000	96.500169 
1631.000000	96.500999 
1630.000000	96.502978 
1629.000000	96.506345 
1628.000000	96.509860 
1627.000000	96.512574 
1626.000000	96.513689 
1625.000000	96.513509 
1624.000000	96.514778 
1623.000000	96.519591 
1622.000000	96.524923 
1621.000000	96.526152 
1620.000000	96.524274 
1619.000000	96.523414 
1618.000000	96.525849 
1617.000000	96.529350 
1616.000000	96.530772 
1615.000000	96.531714 
1614.000000	96.534455 
1613.000000	96.537524 
1612.000000	96.539003 
1611.000000	96.539794 
1610.000000	96.541466 
1609.000000	96.544879 
1608.000000	96.551796 
1607.000000	96.562776 
1606.000000	96.572889 
1605.000000	96.577086 
1604.000000	96.578440 
1603.000000	96.582464 
1602.000000	96.588552 
1601.000000	96.592665 
1600.000000	96.595019 
1599.000000	96.598871 
1598.000000	96.603700 
1597.000000	96.606765 
1596.000000	96.608600 
1595.000000	96.612040 
1594.000000	96.616658 
1593.000000	96.619161 
1592.000000	96.619606 
1591.000000	96.621707 
1590.000000	96.626689 
1589.000000	96.631983 
1588.000000	96.636895 
1587.000000	96.643067 
1586.000000	96.649348 
1585.000000	96.650988 
1584.000000	96.648819 
1583.000000	96.648800 
1582.000000	96.651416 
1581.000000	96.652919 
1580.000000	96.654028 
1579.000000	96.658278 
1578.000000	96.664948 
1577.000000	96.671799 
1576.000000	96.679045 
1575.000000	96.685542 
1574.000000	96.686960 
1573.000000	96.682741 
1572.000000	96.678776 
1571.000000	96.681663 
1570.000000	96.689304 
1569.000000	96.689590 
1568.000000	96.682396 
1567.000000	96.677104 
1566.000000	96.675056 
1565.000000	96.672379 
1564.000000	96.670543 
1563.000000	96.669398 
1562.000000	96.665848 
1561.000000	96.651895 
1560.000000	96.640292 
1559.000000	96.641304 
1558.000000	96.636853 
1557.000000	96.626858 
1556.000000	96.623066 
1555.000000	96.623769 
1554.000000	96.620639 
1553.000000	96.611659 
1552.000000	96.601699 
1551.000000	96.587676 
1550.000000	96.564644 
1549.000000	96.537256 
1548.000000	96.516652 
1547.000000	96.506619 
1546.000000	96.497602 
1545.000000	96.478357 
1544.000000	96.450017 
1543.000000	96.421413 
1542.000000	96.398268 
1541.000000	96.378748 
1540.000000	96.351825 
1539.000000	96.317463 
1538.000000	96.286484 
1537.000000	96.262250 
1536.000000	96.242312 
1535.000000	96.224670 
1534.000000	96.204513 
1533.000000	96.178861 
1532.000000	96.152238 
1531.000000	96.129787 
1530.000000	96.111501 
1529.000000	96.093218 
1528.000000	96.070214 
1527.000000	96.042404 
1526.000000	96.012517 
1525.000000	95.983424 
1524.000000	95.957931 
1523.000000	95.936354 
1522.000000	95.913424 
1521.000000	95.882165 
1520.000000	95.845098 
1519.000000	95.810992 
1518.000000	95.781108 
1517.000000	95.750790 
1516.000000	95.718809 
1515.000000	95.690381 
1514.000000	95.668437 
1513.000000	95.649940 
1512.000000	95.629289 
1511.000000	95.602633 
1510.000000	95.571533 
1509.000000	95.538148 
1508.000000	95.502538 
1507.000000	95.462224 
1506.000000	95.421581 
1505.000000	95.386302 
1504.000000	95.356634 
1503.000000	95.329624 
1502.000000	95.302578 
1501.000000	95.274629 
1500.000000	95.247453 
1499.000000	95.221622 
1498.000000	95.194045 
1497.000000	95.162214 
1496.000000	95.127737 
1495.000000	95.095919 
1494.000000	95.071041 
1493.000000	95.052968 
1492.000000	95.037557 
1491.000000	95.018311 
1490.000000	94.990412 
1489.000000	94.955831 
1488.000000	94.919311 
1487.000000	94.883243 
1486.000000	94.849466 
1485.000000	94.817053 
1484.000000	94.785641 
1483.000000	94.756138 
1482.000000	94.726826 
1481.000000	94.696348 
1480.000000	94.666405 
1479.000000	94.639825 
1478.000000	94.615245 
1477.000000	94.588277 
1476.000000	94.556827 
1475.000000	94.524172 
1474.000000	94.492978 
1473.000000	94.460567 
1472.000000	94.425737 
1471.000000	94.392665 
1470.000000	94.365912 
1469.000000	94.345089 
1468.000000	94.325728 
1467.000000	94.302840 
1466.000000	94.273904 
1465.000000	94.240502 
1464.000000	94.209544 
1463.000000	94.184601 
1462.000000	94.163601 
1461.000000	94.145387 
1460.000000	94.131642 
1459.000000	94.119889 
1458.000000	94.095548 
1457.000000	94.049221 
1456.000000	94.000668 
1455.000000	93.969917 
1454.000000	93.952229 
1453.000000	93.938427 
1452.000000	93.927004 
1451.000000	93.919578 
1450.000000	93.914859 
1449.000000	93.908273 
1448.000000	93.894911 
1447.000000	93.876237 
1446.000000	93.858245 
1445.000000	93.846068 
1444.000000	93.841556 
1443.000000	93.838779 
1442.000000	93.831434 
1441.000000	93.821306 
1440.000000	93.815904 
1439.000000	93.815586 
1438.000000	93.810366 
1437.000000	93.792779 
1436.000000	93.771290 
1435.000000	93.757639 
1434.000000	93.752208 
1433.000000	93.750831 
1432.000000	93.752297 
1431.000000	93.757003 
1430.000000	93.762388 
1429.000000	93.765948 
1428.000000	93.768521 
1427.000000	93.774473 
1426.000000	93.784767 
1425.000000	93.795209 
1424.000000	93.804678 
1423.000000	93.813595 
1422.000000	93.822752 
1421.000000	93.833659 
1420.000000	93.846489 
1419.000000	93.854569 
1418.000000	93.853138 
1417.000000	93.852453 
1416.000000	93.863525 
1415.000000	93.884500 
1414.000000	93.906260 
1413.000000	93.924070 
1412.000000	93.941570 
1411.000000	93.961636 
1410.000000	93.982489 
1409.000000	94.005019 
1408.000000	94.031981 
1407.000000	94.062621 
1406.000000	94.091665 
1405.000000	94.115759 
1404.000000	94.139197 
1403.000000	94.164886 
1402.000000	94.191742 
1401.000000	94.220638 
1400.000000	94.253728 
1399.000000	94.289315 
1398.000000	94.323478 
1397.000000	94.357518 
1396.000000	94.394848 
1395.000000	94.434172 
1394.000000	94.470274 
1393.000000	94.504981 
1392.000000	94.547336 
1391.000000	94.598553 
1390.000000	94.650336 
1389.000000	94.695155 
1388.000000	94.732248 
1387.000000	94.765023 
1386.000000	94.796631 
1385.000000	94.830417 
1384.000000	94.870508 
1383.000000	94.916775 
1382.000000	94.964238 
1381.000000	95.008266 
1380.000000	95.047112 
1379.000000	95.082050 
1378.000000	95.116686 
1377.000000	95.155049 
1376.000000	95.197479 
1375.000000	95.238724 
1374.000000	95.272382 
1373.000000	95.300036 
1372.000000	95.329665 
1371.000000	95.365816 
1370.000000	95.404569 
1369.000000	95.437990 
1368.000000	95.464535 
1367.000000	95.490047 
1366.000000	95.521048 
1365.000000	95.559297 
1364.000000	95.599327 
1363.000000	95.631759 
1362.000000	95.653194 
1361.000000	95.670877 
1360.000000	95.694448 
1359.000000	95.726912 
1358.000000	95.764125 
1357.000000	95.799757 
1356.000000	95.829794 
1355.000000	95.853574 
1354.000000	95.873132 
1353.000000	95.892670 
1352.000000	95.914174 
1351.000000	95.937204 
1350.000000	95.960949 
1349.000000	95.984560 
1348.000000	96.008453 
1347.000000	96.033065 
1346.000000	96.058058 
1345.000000	96.082799 
1344.000000	96.107234 
1343.000000	96.132132 
1342.000000	96.158109 
1341.000000	96.183791 
1340.000000	96.205539 
1339.000000	96.220626 
1338.000000	96.230394 
1337.000000	96.239640 
1336.000000	96.252364 
1335.000000	96.268557 
1334.000000	96.285597 
1333.000000	96.301569 
1332.000000	96.316042 
1331.000000	96.329394 
1330.000000	96.342344 
1329.000000	96.356023 
1328.000000	96.371199 
1327.000000	96.387784 
1326.000000	96.404157 
1325.000000	96.417435 
1324.000000	96.426144 
1323.000000	96.431239 
1322.000000	96.435726 
1321.000000	96.443313 
1320.000000	96.455820 
1319.000000	96.470971 
1318.000000	96.484210 
1317.000000	96.493599 
1316.000000	96.500932 
1315.000000	96.507901 
1314.000000	96.513999 
1313.000000	96.519630 
1312.000000	96.527853 
1311.000000	96.540596 
1310.000000	96.555025 
1309.000000	96.566889 
1308.000000	96.575717 
1307.000000	96.584859 
1306.000000	96.596452 
1305.000000	96.608810 
1304.000000	96.619586 
1303.000000	96.627859 
1302.000000	96.633232 
1301.000000	96.635297 
1300.000000	96.635301 
1299.000000	96.636370 
1298.000000	96.640536 
1297.000000	96.646242 
1296.000000	96.650162 
1295.000000	96.651367 
1294.000000	96.652109 
1293.000000	96.654647 
1292.000000	96.658362 
1291.000000	96.660654 
1290.000000	96.660380 
1289.000000	96.659262 
1288.000000	96.659388 
1287.000000	96.660156 
1286.000000	96.659036 
1285.000000	96.655601 
1284.000000	96.653343 
1283.000000	96.656049 
1282.000000	96.663126 
1281.000000	96.669719 
1280.000000	96.671975 
1279.000000	96.671210 
1278.000000	96.672105 
1277.000000	96.677075 
1276.000000	96.683309 
1275.000000	96.686127 
1274.000000	96.684412 
1273.000000	96.681644 
1272.000000	96.681527 
1271.000000	96.683770 
1270.000000	96.685179 
1269.000000	96.683923 
1268.000000	96.681143 
1267.000000	96.678326 
1266.000000	96.675295 
1265.000000	96.672219 
1264.000000	96.671474 
1263.000000	96.675028 
1262.000000	96.680968 
1261.000000	96.684827 
1260.000000	96.684870 
1259.000000	96.683964 
1258.000000	96.685172 
1257.000000	96.687347 
1256.000000	96.686555 
1255.000000	96.681482 
1254.000000	96.676188 
1253.000000	96.676474 
1252.000000	96.683536 
1251.000000	96.692060 
1250.000000	96.695092 
1249.000000	96.690364 
1248.000000	96.681676 
1247.000000	96.674828 
1246.000000	96.673117 
1245.000000	96.676183 
1244.000000	96.680862 
1243.000000	96.682617 
1242.000000	96.678467 
1241.000000	96.669888 
1240.000000	96.661308 
1239.000000	96.654508 
1238.000000	96.646257 
1237.000000	96.633240 
1236.000000	96.617535 
1235.000000	96.604462 
1234.000000	96.595751 
1233.000000	96.587841 
1232.000000	96.577114 
1231.000000	96.563890 
1230.000000	96.550380 
1229.000000	96.536856 
1228.000000	96.521044 
1227.000000	96.500040 
1226.000000	96.471898 
1225.000000	96.436306 
1224.000000	96.394580 
1223.000000	96.348520 
1222.000000	96.298812 
1221.000000	96.245184 
1220.000000	96.188325 
1219.000000	96.130529 
1218.000000	96.073722 
1217.000000	96.017536 
1216.000000	95.959348 
1215.000000	95.895638 
1214.000000	95.824332 
1213.000000	95.747824 
1212.000000	95.672737 
1211.000000	95.603372 
1210.000000	95.535575 
1209.000000	95.461040 
1208.000000	95.378445 
1207.000000	95.296233 
1206.000000	95.222171 
1205.000000	95.153578 
1204.000000	95.081489 
1203.000000	95.002144 
1202.000000	94.920619 
1201.000000	94.843924 
1200.000000	94.773518 
1199.000000	94.704918 
1198.000000	94.632759 
1197.000000	94.555799 
1196.000000	94.477446 
1195.000000	94.401662 
1194.000000	94.328901 
1193.000000	94.256587 
1192.000000	94.182535 
1191.000000	94.105822 
1190.000000	94.024965 
1189.000000	93.938202 
1188.000000	93.846329 
1187.000000	93.753214 
1186.000000	93.662677 
1185.000000	93.575947 
1184.000000	93.491574 
1183.000000	93.405709 
1182.000000	93.313234 
1181.000000	93.211493 
1180.000000	93.103024 
1179.000000	92.992498 
1178.000000	92.881455 
1177.000000	92.768396 
1176.000000	92.652443 
1175.000000	92.533247 
1174.000000	92.408742 
1173.000000	92.277819 
1172.000000	92.144721 
1171.000000	92.015607 
1170.000000	91.891043 
1169.000000	91.767505 
1168.000000	91.646273 
1167.000000	91.534745 
1166.000000	91.439017 
1165.000000	91.362593 
1164.000000	91.313156 
1163.000000	91.301560 
1162.000000	91.329747 
1161.000000	91.384796 
1160.000000	91.447274 
1159.000000	91.500662 
1158.000000	91.531854 
1157.000000	91.530420 
1156.000000	91.492556 
1155.000000	91.422845 
1154.000000	91.329883 
1153.000000	91.222572 
1152.000000	91.110607 
1151.000000	91.002746 
1150.000000	90.901657 
1149.000000	90.804211 
1148.000000	90.707934 
1147.000000	90.612422 
1146.000000	90.514649 
1145.000000	90.410298 
1144.000000	90.301641 
1143.000000	90.196967 
1142.000000	90.099309 
1141.000000	90.002528 
1140.000000	89.901494 
1139.000000	89.799030 
1138.000000	89.699251 
1137.000000	89.600842 
1136.000000	89.501052 
1135.000000	89.400193 
1134.000000	89.298169 
1133.000000	89.192431 
1132.000000	89.083294 
1131.000000	88.975668 
1130.000000	88.871738 
1129.000000	88.767230 
1128.000000	88.658242 
1127.000000	88.546242 
1126.000000	88.433380 
1125.000000	88.318777 
1124.000000	88.202571 
1123.000000	88.087729 
1122.000000	87.974910 
1121.000000	87.861578 
1120.000000	87.748519 
1119.000000	87.640023 
1118.000000	87.535152 
1117.000000	87.427058 
1116.000000	87.314183 
1115.000000	87.204148 
1114.000000	87.102970 
1113.000000	87.008454 
1112.000000	86.917526 
1111.000000	86.831301 
1110.000000	86.748573 
1109.000000	86.663126 
1108.000000	86.571704 
1107.000000	86.477113 
1106.000000	86.381112 
1105.000000	86.282330 
1104.000000	86.183260 
1103.000000	86.090508 
1102.000000	86.004651 
1101.000000	85.919494 
1100.000000	85.832546 
1099.000000	85.747944 
1098.000000	85.667814 
1097.000000	85.588952 
1096.000000	85.510191 
1095.000000	85.432963 
1094.000000	85.354482 
1093.000000	85.271427 
1092.000000	85.190909 
1091.000000	85.125178 
1090.000000	85.074051 
1089.000000	85.025222 
1088.000000	84.973427 
1087.000000	84.925499 
1086.000000	84.884530 
1085.000000	84.844192 
1084.000000	84.802519 
1083.000000	84.766562 
1082.000000	84.738433 
1081.000000	84.710490 
1080.000000	84.679419 
1079.000000	84.651654 
1078.000000	84.629445 
1077.000000	84.604470 
1076.000000	84.570573 
1075.000000	84.530071 
1074.000000	84.482547 
1073.000000	84.420371 
1072.000000	84.340610 
1071.000000	84.248627 
1070.000000	84.144357 
1069.000000	84.017559 
1068.000000	83.863389 
1067.000000	83.691796 
1066.000000	83.515648 
1065.000000	83.339563 
1064.000000	83.165327 
1063.000000	82.996293 
1062.000000	82.830291 
1061.000000	82.659591 
1060.000000	82.483658 
1059.000000	82.311412 
1058.000000	82.146689 
1057.000000	81.983227 
1056.000000	81.817683 
1055.000000	81.654283 
1054.000000	81.491970 
1053.000000	81.320781 
1052.000000	81.137570 
1051.000000	80.952207 
1050.000000	80.771449 
1049.000000	80.590964 
1048.000000	80.409467 
1047.000000	80.234301 
1046.000000	80.066816 
1045.000000	79.897620 
1044.000000	79.721141 
1043.000000	79.541515 
1042.000000	79.361414 
1041.000000	79.179065 
1040.000000	78.998786 
1039.000000	78.829586 
1038.000000	78.670757 
1037.000000	78.514522 
1036.000000	78.364837 
1035.000000	78.235620 
1034.000000	78.127613 
1033.000000	78.026215 
1032.000000	77.926580 
1031.000000	77.841143 
1030.000000	77.776207 
1029.000000	77.720836 
1028.000000	77.666394 
1027.000000	77.618795 
1026.000000	77.582745 
1025.000000	77.550594 
1024.000000	77.515341 
1023.000000	77.480231 
1022.000000	77.448447 
1021.000000	77.417068 
1020.000000	77.386160 
1019.000000	77.359976 
1018.000000	77.335661 
1017.000000	77.305347 
1016.000000	77.271839 
1015.000000	77.246395 
1014.000000	77.229230 
1013.000000	77.209454 
1012.000000	77.186197 
1011.000000	77.171231 
1010.000000	77.167984 
1009.000000	77.167389 
1008.000000	77.168195 
1007.000000	77.181795 
1006.000000	77.212211 
1005.000000	77.250411 
1004.000000	77.293006 
1003.000000	77.347146 
1002.000000	77.411585 
1001.000000	77.472677 
1000.000000	77.526353 
999.000000	 77.586143 
998.000000	 77.662262 
997.000000	 77.749405 
996.000000	 77.840707 
995.000000	 77.937113 
994.000000	 78.037476 
993.000000	 78.136164 
992.000000	 78.236003 
991.000000	 78.347301 
990.000000	 78.469326 
989.000000	 78.589027 
988.000000	 78.702450 
987.000000	 78.820678 
986.000000	 78.950644 
985.000000	 79.088040 
984.000000	 79.232965 
983.000000	 79.393335 
982.000000	 79.566503 
981.000000	 79.736064 
980.000000	 79.894582 
979.000000	 80.053084 
978.000000	 80.221328 
977.000000	 80.395587 
976.000000	 80.572648 
975.000000	 80.758708 
974.000000	 80.955757 
973.000000	 81.154284 
972.000000	 81.347962 
971.000000	 81.542221 
970.000000	 81.741097 
969.000000	 81.938997 
968.000000	 82.132466 
967.000000	 82.327090 
966.000000	 82.525751 
965.000000	 82.722381 
964.000000	 82.914018 
963.000000	 83.107168 
962.000000	 83.305774 
961.000000	 83.504030 
960.000000	 83.696981 
959.000000	 83.887128 
958.000000	 84.074892 
957.000000	 84.253361 
956.000000	 84.418778 
955.000000	 84.577312 
954.000000	 84.736734 
953.000000	 84.898859 
952.000000	 85.062271 
951.000000	 85.223480 
950.000000	 85.374794 
949.000000	 85.511734 
948.000000	 85.642538 
947.000000	 85.778280 
946.000000	 85.913735 
945.000000	 86.032992 
944.000000	 86.134548 
943.000000	 86.234461 
942.000000	 86.341726 
941.000000	 86.447618 
940.000000	 86.545476 
939.000000	 86.643487 
938.000000	 86.749356 
937.000000	 86.857492 
936.000000	 86.961549 
935.000000	 87.066583 
934.000000	 87.178385 
933.000000	 87.291652 
932.000000	 87.399029 
931.000000	 87.502712 
930.000000	 87.608093 
929.000000	 87.713755 
928.000000	 87.815641 
927.000000	 87.914072 
926.000000	 88.010190 
925.000000	 88.102109 
924.000000	 88.189568 
923.000000	 88.275280 
922.000000	 88.357902 
921.000000	 88.432013 
920.000000	 88.498438 
919.000000	 88.564984 
918.000000	 88.633129 
917.000000	 88.694898 
916.000000	 88.748593 
915.000000	 88.806779 
914.000000	 88.881006 
913.000000	 88.967645 
912.000000	 89.056921 
911.000000	 89.148436 
910.000000	 89.249860 
909.000000	 89.366337 
908.000000	 89.497821 
907.000000	 89.641932 
906.000000	 89.794685 
905.000000	 89.952663 
904.000000	 90.116220 
903.000000	 90.285173 
902.000000	 90.452302 
901.000000	 90.609938 
900.000000	 90.762615 
899.000000	 90.922499 
898.000000	 91.091374 
897.000000	 91.258583 
896.000000	 91.418029 
895.000000	 91.573780 
894.000000	 91.725403 
893.000000	 91.862269 
892.000000	 91.979810 
891.000000	 92.088478 
890.000000	 92.195041 
889.000000	 92.282110 
888.000000	 92.317508 
887.000000	 92.282890 
886.000000	 92.189076 
885.000000	 92.066139 
884.000000	 91.940883 
883.000000	 91.820113 
882.000000	 91.693042 
881.000000	 91.552409 
880.000000	 91.411233 
879.000000	 91.292067 
878.000000	 91.204335 
877.000000	 91.145769 
876.000000	 91.123148 
875.000000	 91.152327 
874.000000	 91.236515 
873.000000	 91.365758 
872.000000	 91.541810 
871.000000	 91.779955 
870.000000	 92.076477 
869.000000	 92.394564 
868.000000	 92.695344 
867.000000	 92.968677 
866.000000	 93.222764 
865.000000	 93.458832 
864.000000	 93.671527 
863.000000	 93.865639 
862.000000	 94.055918 
861.000000	 94.249841 
860.000000	 94.439580 
859.000000	 94.612261 
858.000000	 94.764166 
857.000000	 94.904433 
856.000000	 95.045148 
855.000000	 95.186652 
854.000000	 95.315168 
853.000000	 95.418746 
852.000000	 95.500683 
851.000000	 95.570280 
850.000000	 95.627894 
849.000000	 95.673017 
848.000000	 95.721624 
847.000000	 95.794920 
846.000000	 95.888879 
845.000000	 95.975711 
844.000000	 96.041412 
843.000000	 96.101287 
842.000000	 96.169231 
841.000000	 96.232379 
840.000000	 96.271649 
839.000000	 96.291221 
838.000000	 96.310301 
837.000000	 96.336465 
836.000000	 96.363925 
835.000000	 96.390515 
834.000000	 96.419787 
833.000000	 96.450221 
832.000000	 96.476199 
831.000000	 96.498009 
830.000000	 96.520882 
829.000000	 96.546442 
828.000000	 96.572770 
827.000000	 96.598377 
826.000000	 96.619404 
825.000000	 96.631234 
824.000000	 96.640763 
823.000000	 96.664592 
822.000000	 96.703990 
821.000000	 96.735694 
820.000000	 96.739289 
819.000000	 96.719185 
818.000000	 96.688354 
817.000000	 96.644133 
816.000000	 96.574593 
815.000000	 96.479714 
814.000000	 96.369750 
813.000000	 96.245076 
812.000000	 96.090012 
811.000000	 95.884858 
810.000000	 95.614738 
809.000000	 95.271471 
808.000000	 94.859210 
807.000000	 94.397388 
806.000000	 93.908667 
805.000000	 93.406096 
804.000000	 92.900009 
803.000000	 92.410382 
802.000000	 91.960621 
801.000000	 91.565366 
800.000000	 91.235058 
799.000000	 90.984370 
798.000000	 90.823776 
797.000000	 90.748928 
796.000000	 90.746948 
795.000000	 90.804857 
794.000000	 90.904239 
793.000000	 91.018324 
792.000000	 91.123584 
791.000000	 91.207403 
790.000000	 91.261483 
789.000000	 91.279020 
788.000000	 91.261558 
787.000000	 91.214796 
786.000000	 91.132747 
785.000000	 91.000770 
784.000000	 90.820365 
783.000000	 90.614883 
782.000000	 90.404281 
781.000000	 90.194449 
780.000000	 90.001772 
779.000000	 89.864577 
778.000000	 89.810855 
777.000000	 89.831524 
776.000000	 89.903158 
775.000000	 90.020797 
774.000000	 90.188079 
773.000000	 90.389096 
772.000000	 90.593358 
771.000000	 90.783476 
770.000000	 90.961540 
769.000000	 91.133121 
768.000000	 91.298422 
767.000000	 91.454423 
766.000000	 91.595180 
765.000000	 91.715378 
764.000000	 91.820988 
763.000000	 91.927678 
762.000000	 92.041663 
761.000000	 92.153478 
760.000000	 92.257386 
759.000000	 92.360896 
758.000000	 92.465503 
757.000000	 92.558258 
756.000000	 92.638944 
755.000000	 92.735890 
754.000000	 92.870118 
753.000000	 93.016474 
752.000000	 93.127141 
751.000000	 93.188402 
750.000000	 93.231821 
749.000000	 93.292540 
748.000000	 93.377560 
747.000000	 93.475703 
746.000000	 93.578905 
745.000000	 93.686592 
744.000000	 93.799214 
743.000000	 93.913285 
742.000000	 94.021048 
741.000000	 94.117830 
740.000000	 94.211095 
739.000000	 94.313388 
738.000000	 94.422609 
737.000000	 94.521705 
736.000000	 94.604252 
735.000000	 94.684790 
734.000000	 94.772054 
733.000000	 94.848088 
732.000000	 94.892397 
731.000000	 94.914758 
730.000000	 94.942022 
729.000000	 94.977923 
728.000000	 95.004383 
727.000000	 95.021306 
726.000000	 95.055340 
725.000000	 95.123106 
724.000000	 95.205419 
723.000000	 95.268665 
722.000000	 95.300776 
721.000000	 95.318295 
720.000000	 95.341902 
719.000000	 95.366645 
718.000000	 95.361695 
717.000000	 95.304779 
716.000000	 95.210620 
715.000000	 95.119161 
714.000000	 95.058489 
713.000000	 95.033497 
712.000000	 95.053077 
711.000000	 95.138987 
710.000000	 95.289027 
709.000000	 95.453509 
708.000000	 95.579179 
707.000000	 95.658821 
706.000000	 95.715167 
705.000000	 95.754083 
704.000000	 95.762085 
703.000000	 95.736168 
702.000000	 95.685355 
701.000000	 95.602642 
700.000000	 95.461699 
699.000000	 95.252498 
698.000000	 95.000876 
697.000000	 94.752031 
696.000000	 94.549396 
695.000000	 94.423725 
694.000000	 94.388353 
693.000000	 94.434718 
692.000000	 94.537934 
691.000000	 94.673448 
690.000000	 94.821876 
689.000000	 94.966953 
688.000000	 95.099777 
687.000000	 95.218721 
686.000000	 95.321980 
685.000000	 95.406220 
684.000000	 95.477918 
683.000000	 95.554709 
682.000000	 95.641258 
681.000000	 95.718699 
680.000000	 95.771607 
679.000000	 95.816061 
678.000000	 95.874636 
677.000000	 95.938179 
676.000000	 95.989614 
675.000000	 96.034510 
674.000000	 96.088261 
673.000000	 96.151915 
672.000000	 96.220123 
671.000000	 96.320216 
670.000000	 96.500580 
669.000000	 96.780446 
668.000000	 96.996160 
667.000000	 96.946638 
666.000000	 96.748569 
665.000000	 96.598010 
664.000000	 96.526862 
663.000000	 96.516667 
662.000000	 96.538299 
661.000000	 96.563393 
660.000000	 96.589009 
659.000000	 96.634674 
658.000000	 96.695697 
657.000000	 96.726448 
656.000000	 96.707665 
655.000000	 96.678768 
654.000000	 96.678307 
653.000000	 96.687593 
652.000000	 96.673563 
651.000000	 96.652644 
650.000000	 96.662666 

