4000.000000	97.237044 
3999.000000	97.236770 
3998.000000	97.236327 
3997.000000	97.235787 
3996.000000	97.235334 
3995.000000	97.235062 
3994.000000	97.234900 
3993.000000	97.234666 
3992.000000	97.234213 
3991.000000	97.233521 
3990.000000	97.232716 
3989.000000	97.231991 
3988.000000	97.231461 
3987.000000	97.231136 
3986.000000	97.230974 
3985.000000	97.230913 
3984.000000	97.230855 
3983.000000	97.230695 
3982.000000	97.230433 
3981.000000	97.230194 
3980.000000	97.230004 
3979.000000	97.229664 
3978.000000	97.229012 
3977.000000	97.228219 
3976.000000	97.227654 
3975.000000	97.227455 
3974.000000	97.227359 
3973.000000	97.226943 
3972.000000	97.225970 
3971.000000	97.224527 
3970.000000	97.222992 
3969.000000	97.221850 
3968.000000	97.221396 
3967.000000	97.221552 
3966.000000	97.221898 
3965.000000	97.221969 
3964.000000	97.221531 
3963.000000	97.220606 
3962.000000	97.219384 
3961.000000	97.218075 
3960.000000	97.216796 
3959.000000	97.215654 
3958.000000	97.214829 
3957.000000	97.214483 
3956.000000	97.214550 
3955.000000	97.214613 
3954.000000	97.214220 
3953.000000	97.213234 
3952.000000	97.211870 
3951.000000	97.210460 
3950.000000	97.209195 
3949.000000	97.208136 
3948.000000	97.207244 
3947.000000	97.206434 
3946.000000	97.205737 
3945.000000	97.205327 
3944.000000	97.205258 
3943.000000	97.205194 
3942.000000	97.204791 
3941.000000	97.204215 
3940.000000	97.203981 
3939.000000	97.204349 
3938.000000	97.204988 
3937.000000	97.205271 
3936.000000	97.204818 
3935.000000	97.203663 
3934.000000	97.202223 
3933.000000	97.200993 
3932.000000	97.200216 
3931.000000	97.199698 
3930.000000	97.199193 
3929.000000	97.198911 
3928.000000	97.199174 
3927.000000	97.199908 
3926.000000	97.200618 
3925.000000	97.200780 
3924.000000	97.200326 
3923.000000	97.199506 
3922.000000	97.198595 
3921.000000	97.197894 
3920.000000	97.197681 
3919.000000	97.198026 
3918.000000	97.198605 
3917.000000	97.198889 
3916.000000	97.198638 
3915.000000	97.198019 
3914.000000	97.197385 
3913.000000	97.196920 
3912.000000	97.196574 
3911.000000	97.196239 
3910.000000	97.195812 
3909.000000	97.195265 
3908.000000	97.194653 
3907.000000	97.194028 
3906.000000	97.193416 
3905.000000	97.192798 
3904.000000	97.192164 
3903.000000	97.191550 
3902.000000	97.191007 
3901.000000	97.190549 
3900.000000	97.190144 
3899.000000	97.189744 
3898.000000	97.189316 
3897.000000	97.188854 
3896.000000	97.188363 
3895.000000	97.187845 
3894.000000	97.187299 
3893.000000	97.186725 
3892.000000	97.186121 
3891.000000	97.185483 
3890.000000	97.184820 
3889.000000	97.184145 
3888.000000	97.183479 
3887.000000	97.182836 
3886.000000	97.182220 
3885.000000	97.181616 
3884.000000	97.181007 
3883.000000	97.180381 
3882.000000	97.179741 
3881.000000	97.179096 
3880.000000	97.178456 
3879.000000	97.177819 
3878.000000	97.177182 
3877.000000	97.176542 
3876.000000	97.175910 
3875.000000	97.175318 
3874.000000	97.174772 
3873.000000	97.174216 
3872.000000	97.173583 
3871.000000	97.172875 
3870.000000	97.172209 
3869.000000	97.171705 
3868.000000	97.171322 
3867.000000	97.170870 
3866.000000	97.170325 
3865.000000	97.169978 
3864.000000	97.170147 
3863.000000	97.170638 
3862.000000	97.170802 
3861.000000	97.170489 
3860.000000	97.170234 
3859.000000	97.170348 
3858.000000	97.170336 
3857.000000	97.169475 
3856.000000	97.167746 
3855.000000	97.165857 
3854.000000	97.164202 
3853.000000	97.162730 
3852.000000	97.161647 
3851.000000	97.161390 
3850.000000	97.161994 
3849.000000	97.163371 
3848.000000	97.165308 
3847.000000	97.167360 
3846.000000	97.168712 
3845.000000	97.168787 
3844.000000	97.167931 
3843.000000	97.166770 
3842.000000	97.165281 
3841.000000	97.163410 
3840.000000	97.161573 
3839.000000	97.160596 
3838.000000	97.161011 
3837.000000	97.162378 
3836.000000	97.163835 
3835.000000	97.164857 
3834.000000	97.165531 
3833.000000	97.166374 
3832.000000	97.167697 
3831.000000	97.169225 
3830.000000	97.170359 
3829.000000	97.170741 
3828.000000	97.170731 
3827.000000	97.171005 
3826.000000	97.171585 
3825.000000	97.171837 
3824.000000	97.171293 
3823.000000	97.170295 
3822.000000	97.169743 
3821.000000	97.169973 
3820.000000	97.170344 
3819.000000	97.170181 
3818.000000	97.169684 
3817.000000	97.169764 
3816.000000	97.170976 
3815.000000	97.172845 
3814.000000	97.174326 
3813.000000	97.174996 
3812.000000	97.175210 
3811.000000	97.175547 
3810.000000	97.176140 
3809.000000	97.176665 
3808.000000	97.176910 
3807.000000	97.176988 
3806.000000	97.176937 
3805.000000	97.176463 
3804.000000	97.175372 
3803.000000	97.174329 
3802.000000	97.174413 
3801.000000	97.175756 
3800.000000	97.177247 
3799.000000	97.177828 
3798.000000	97.177674 
3797.000000	97.177842 
3796.000000	97.178992 
3795.000000	97.180598 
3794.000000	97.181621 
3793.000000	97.181751 
3792.000000	97.181636 
3791.000000	97.182108 
3790.000000	97.183157 
3789.000000	97.183947 
3788.000000	97.183873 
3787.000000	97.183226 
3786.000000	97.182870 
3785.000000	97.183325 
3784.000000	97.184169 
3783.000000	97.184362 
3782.000000	97.183102 
3781.000000	97.180688 
3780.000000	97.178650 
3779.000000	97.178384 
3778.000000	97.179498 
3777.000000	97.180340 
3776.000000	97.179937 
3775.000000	97.178743 
3774.000000	97.177535 
3773.000000	97.176273 
3772.000000	97.174688 
3771.000000	97.173143 
3770.000000	97.172345 
3769.000000	97.172443 
3768.000000	97.172717 
3767.000000	97.172551 
3766.000000	97.172491 
3765.000000	97.173155 
3764.000000	97.173859 
3763.000000	97.172766 
3762.000000	97.168988 
3761.000000	97.164133 
3760.000000	97.160801 
3759.000000	97.160391 
3758.000000	97.160974 
3757.000000	97.159057 
3756.000000	97.153058 
3755.000000	97.143538 
3754.000000	97.132547 
3753.000000	97.122599 
3752.000000	97.115465 
3751.000000	97.110990 
3750.000000	97.107224 
3749.000000	97.103339 
3748.000000	97.099364 
3747.000000	97.095352 
3746.000000	97.093895 
3745.000000	97.098349 
3744.000000	97.108897 
3743.000000	97.118286 
3742.000000	97.117631 
3741.000000	97.106269 
3740.000000	97.092098 
3739.000000	97.084981 
3738.000000	97.087991 
3737.000000	97.095835 
3736.000000	97.104043 
3735.000000	97.112686 
3734.000000	97.121218 
3733.000000	97.126265 
3732.000000	97.127158 
3731.000000	97.126777 
3730.000000	97.125166 
3729.000000	97.119597 
3728.000000	97.110762 
3727.000000	97.103531 
3726.000000	97.101264 
3725.000000	97.102030 
3724.000000	97.103033 
3723.000000	97.104458 
3722.000000	97.107271 
3721.000000	97.109923 
3720.000000	97.108062 
3719.000000	97.100362 
3718.000000	97.089716 
3717.000000	97.078379 
3716.000000	97.066039 
3715.000000	97.050503 
3714.000000	97.031146 
3713.000000	97.010721 
3712.000000	96.992517 
3711.000000	96.977101 
3710.000000	96.962140 
3709.000000	96.946123 
3708.000000	96.929533 
3707.000000	96.912042 
3706.000000	96.892374 
3705.000000	96.869777 
3704.000000	96.844756 
3703.000000	96.817966 
3702.000000	96.788374 
3701.000000	96.754833 
3700.000000	96.718566 
3699.000000	96.683901 
3698.000000	96.656426 
3697.000000	96.638892 
3696.000000	96.629613 
3695.000000	96.624498 
3694.000000	96.620731 
3693.000000	96.618831 
3692.000000	96.620789 
3691.000000	96.626882 
3690.000000	96.633694 
3689.000000	96.637507 
3688.000000	96.638085 
3687.000000	96.635620 
3686.000000	96.628385 
3685.000000	96.615617 
3684.000000	96.599747 
3683.000000	96.584986 
3682.000000	96.573156 
3681.000000	96.561495 
3680.000000	96.544979 
3679.000000	96.518423 
3678.000000	96.480070 
3677.000000	96.433860 
3676.000000	96.387706 
3675.000000	96.348010 
3674.000000	96.312333 
3673.000000	96.273839 
3672.000000	96.231704 
3671.000000	96.193905 
3670.000000	96.165980 
3669.000000	96.142176 
3668.000000	96.113936 
3667.000000	96.080029 
3666.000000	96.045631 
3665.000000	96.014876 
3664.000000	95.986051 
3663.000000	95.954728 
3662.000000	95.917530 
3661.000000	95.873182 
3660.000000	95.822774 
3659.000000	95.769042 
3658.000000	95.716312 
3657.000000	95.667527 
3656.000000	95.621403 
3655.000000	95.574178 
3654.000000	95.522790 
3653.000000	95.467581 
3652.000000	95.411962 
3651.000000	95.358984 
3650.000000	95.307805 
3649.000000	95.256270 
3648.000000	95.207874 
3647.000000	95.168704 
3646.000000	95.139915 
3645.000000	95.117650 
3644.000000	95.097435 
3643.000000	95.076650 
3642.000000	95.052940 
3641.000000	95.023326 
3640.000000	94.986819 
3639.000000	94.945824 
3638.000000	94.903881 
3637.000000	94.861711 
3636.000000	94.817641 
3635.000000	94.771145 
3634.000000	94.724094 
3633.000000	94.678210 
3632.000000	94.632680 
3631.000000	94.586203 
3630.000000	94.540291 
3629.000000	94.498495 
3628.000000	94.461816 
3627.000000	94.429715 
3626.000000	94.402745 
3625.000000	94.382988 
3624.000000	94.371297 
3623.000000	94.365022 
3622.000000	94.360734 
3621.000000	94.358587 
3620.000000	94.361070 
3619.000000	94.368331 
3618.000000	94.377691 
3617.000000	94.388582 
3616.000000	94.405511 
3615.000000	94.433788 
3614.000000	94.472777 
3613.000000	94.514618 
3612.000000	94.550319 
3611.000000	94.576337 
3610.000000	94.595827 
3609.000000	94.614183 
3608.000000	94.633055 
3607.000000	94.650628 
3606.000000	94.666554 
3605.000000	94.684481 
3604.000000	94.708764 
3603.000000	94.739248 
3602.000000	94.770835 
3601.000000	94.797463 
3600.000000	94.815671 
3599.000000	94.825973 
3598.000000	94.832378 
3597.000000	94.839960 
3596.000000	94.852604 
3595.000000	94.869626 
3594.000000	94.885720 
3593.000000	94.896211 
3592.000000	94.900844 
3591.000000	94.902904 
3590.000000	94.906801 
3589.000000	94.915369 
3588.000000	94.927219 
3587.000000	94.937241 
3586.000000	94.942031 
3585.000000	94.943759 
3584.000000	94.947733 
3583.000000	94.956664 
3582.000000	94.968654 
3581.000000	94.978999 
3580.000000	94.984183 
3579.000000	94.984233 
3578.000000	94.981916 
3577.000000	94.980123 
3576.000000	94.979496 
3575.000000	94.978691 
3574.000000	94.975739 
3573.000000	94.969718 
3572.000000	94.960840 
3571.000000	94.949659 
3570.000000	94.937248 
3569.000000	94.926338 
3568.000000	94.920482 
3567.000000	94.920546 
3566.000000	94.923189 
3565.000000	94.924852 
3564.000000	94.925425 
3563.000000	94.927005 
3562.000000	94.930411 
3561.000000	94.934139 
3560.000000	94.936079 
3559.000000	94.935521 
3558.000000	94.933502 
3557.000000	94.931624 
3556.000000	94.930620 
3555.000000	94.930219 
3554.000000	94.930147 
3553.000000	94.930300 
3552.000000	94.929929 
3551.000000	94.927361 
3550.000000	94.921862 
3549.000000	94.915644 
3548.000000	94.912671 
3547.000000	94.914458 
3546.000000	94.918221 
3545.000000	94.920140 
3544.000000	94.919963 
3543.000000	94.920548 
3542.000000	94.923716 
3541.000000	94.928466 
3540.000000	94.932700 
3539.000000	94.935216 
3538.000000	94.935974 
3537.000000	94.935343 
3536.000000	94.933848 
3535.000000	94.932017 
3534.000000	94.930322 
3533.000000	94.929224 
3532.000000	94.929143 
3531.000000	94.930226 
3530.000000	94.931939 
3529.000000	94.933104 
3528.000000	94.932665 
3527.000000	94.930527 
3526.000000	94.927710 
3525.000000	94.925679 
3524.000000	94.925259 
3523.000000	94.926200 
3522.000000	94.927571 
3521.000000	94.928616 
3520.000000	94.929314 
3519.000000	94.929958 
3518.000000	94.930451 
3517.000000	94.930186 
3516.000000	94.928778 
3515.000000	94.926690 
3514.000000	94.924969 
3513.000000	94.924339 
3512.000000	94.924580 
3511.000000	94.924736 
3510.000000	94.923952 
3509.000000	94.922199 
3508.000000	94.920212 
3507.000000	94.918785 
3506.000000	94.918178 
3505.000000	94.918053 
3504.000000	94.917786 
3503.000000	94.916790 
3502.000000	94.914830 
3501.000000	94.912316 
3500.000000	94.910251 
3499.000000	94.909617 
3498.000000	94.910512 
3497.000000	94.911783 
3496.000000	94.911649 
3495.000000	94.909055 
3494.000000	94.904535 
3493.000000	94.899734 
3492.000000	94.895944 
3491.000000	94.893207 
3490.000000	94.890998 
3489.000000	94.889273 
3488.000000	94.888201 
3487.000000	94.887149 
3486.000000	94.884952 
3485.000000	94.881424 
3484.000000	94.877716 
3483.000000	94.874633 
3482.000000	94.871338 
3481.000000	94.866585 
3480.000000	94.860645 
3479.000000	94.855130 
3478.000000	94.851113 
3477.000000	94.848097 
3476.000000	94.844726 
3475.000000	94.840142 
3474.000000	94.834739 
3473.000000	94.829823 
3472.000000	94.826528 
3471.000000	94.824792 
3470.000000	94.823450 
3469.000000	94.821481 
3468.000000	94.818887 
3467.000000	94.816202 
3466.000000	94.813483 
3465.000000	94.810112 
3464.000000	94.805398 
3463.000000	94.799039 
3462.000000	94.791205 
3461.000000	94.782708 
3460.000000	94.774962 
3459.000000	94.769084 
3458.000000	94.764768 
3457.000000	94.760367 
3456.000000	94.754528 
3455.000000	94.747567 
3454.000000	94.741097 
3453.000000	94.736379 
3452.000000	94.733307 
3451.000000	94.730880 
3450.000000	94.728189 
3449.000000	94.724796 
3448.000000	94.720372 
3447.000000	94.714522 
3446.000000	94.707178 
3445.000000	94.699143 
3444.000000	94.691879 
3443.000000	94.686448 
3442.000000	94.682607 
3441.000000	94.678970 
3440.000000	94.674220 
3439.000000	94.668078 
3438.000000	94.661146 
3437.000000	94.654211 
3436.000000	94.648051 
3435.000000	94.643552 
3434.000000	94.641364 
3433.000000	94.641063 
3432.000000	94.640944 
3431.000000	94.639159 
3430.000000	94.635016 
3429.000000	94.629131 
3428.000000	94.622553 
3427.000000	94.616106 
3426.000000	94.610601 
3425.000000	94.607047 
3424.000000	94.605986 
3423.000000	94.606417 
3422.000000	94.605949 
3421.000000	94.602711 
3420.000000	94.597064 
3419.000000	94.591081 
3418.000000	94.586502 
3417.000000	94.583704 
3416.000000	94.582436 
3415.000000	94.582495 
3414.000000	94.583172 
3413.000000	94.582749 
3412.000000	94.579671 
3411.000000	94.574438 
3410.000000	94.569694 
3409.000000	94.567972 
3408.000000	94.569450 
3407.000000	94.572050 
3406.000000	94.573564 
3405.000000	94.573460 
3404.000000	94.572576 
3403.000000	94.571457 
3402.000000	94.569663 
3401.000000	94.566847 
3400.000000	94.563858 
3399.000000	94.562055 
3398.000000	94.561674 
3397.000000	94.561709 
3396.000000	94.561567 
3395.000000	94.562090 
3394.000000	94.564279 
3393.000000	94.567524 
3392.000000	94.569855 
3391.000000	94.570012 
3390.000000	94.568770 
3389.000000	94.568096 
3388.000000	94.569506 
3387.000000	94.573231 
3386.000000	94.578206 
3385.000000	94.582426 
3384.000000	94.584049 
3383.000000	94.583009 
3382.000000	94.581534 
3381.000000	94.582272 
3380.000000	94.585676 
3379.000000	94.589780 
3378.000000	94.592714 
3377.000000	94.594905 
3376.000000	94.598068 
3375.000000	94.602583 
3374.000000	94.606863 
3373.000000	94.609305 
3372.000000	94.610202 
3371.000000	94.611397 
3370.000000	94.614393 
3369.000000	94.619046 
3368.000000	94.623866 
3367.000000	94.627371 
3366.000000	94.629216 
3365.000000	94.630264 
3364.000000	94.631681 
3363.000000	94.633976 
3362.000000	94.636880 
3361.000000	94.639951 
3360.000000	94.643108 
3359.000000	94.646539 
3358.000000	94.650262 
3357.000000	94.653920 
3356.000000	94.657081 
3355.000000	94.659789 
3354.000000	94.662789 
3353.000000	94.667027 
3352.000000	94.672769 
3351.000000	94.679227 
3350.000000	94.685138 
3349.000000	94.689786 
3348.000000	94.693441 
3347.000000	94.696955 
3346.000000	94.700988 
3345.000000	94.705527 
3344.000000	94.709934 
3343.000000	94.713528 
3342.000000	94.716255 
3341.000000	94.718853 
3340.000000	94.722100 
3339.000000	94.725865 
3338.000000	94.729281 
3337.000000	94.731838 
3336.000000	94.734042 
3335.000000	94.736908 
3334.000000	94.740914 
3333.000000	94.745655 
3332.000000	94.750331 
3331.000000	94.754468 
3330.000000	94.758148 
3329.000000	94.761736 
3328.000000	94.765573 
3327.000000	94.769825 
3326.000000	94.774449 
3325.000000	94.779208 
3324.000000	94.783761 
3323.000000	94.787898 
3322.000000	94.791704 
3321.000000	94.795472 
3320.000000	94.799443 
3319.000000	94.803639 
3318.000000	94.807949 
3317.000000	94.812268 
3316.000000	94.816554 
3315.000000	94.820804 
3314.000000	94.825024 
3313.000000	94.829222 
3312.000000	94.833417 
3311.000000	94.837637 
3310.000000	94.841904 
3309.000000	94.846205 
3308.000000	94.850494 
3307.000000	94.854711 
3306.000000	94.858853 
3305.000000	94.862972 
3304.000000	94.867122 
3303.000000	94.871316 
3302.000000	94.875539 
3301.000000	94.879775 
3300.000000	94.884015 
3299.000000	94.888252 
3298.000000	94.892485 
3297.000000	94.896721 
3296.000000	94.900971 
3295.000000	94.905246 
3294.000000	94.909544 
3293.000000	94.913856 
3292.000000	94.918170 
3291.000000	94.922475 
3290.000000	94.926770 
3289.000000	94.931058 
3288.000000	94.935344 
3287.000000	94.939633 
3286.000000	94.943926 
3285.000000	94.948225 
3284.000000	94.952534 
3283.000000	94.956860 
3282.000000	94.961208 
3281.000000	94.965579 
3280.000000	94.969966 
3279.000000	94.974360 
3278.000000	94.978754 
3277.000000	94.983143 
3276.000000	94.987543 
3275.000000	94.991981 
3274.000000	94.996460 
3273.000000	95.000950 
3272.000000	95.005449 
3271.000000	95.010007 
3270.000000	95.014669 
3269.000000	95.019398 
3268.000000	95.024094 
3267.000000	95.028678 
3266.000000	95.033184 
3265.000000	95.037746 
3264.000000	95.042460 
3263.000000	95.047260 
3262.000000	95.051968 
3261.000000	95.056491 
3260.000000	95.060906 
3259.000000	95.065328 
3258.000000	95.069805 
3257.000000	95.074449 
3256.000000	95.079473 
3255.000000	95.084922 
3254.000000	95.090471 
3253.000000	95.095696 
3252.000000	95.100535 
3251.000000	95.105314 
3250.000000	95.110324 
3249.000000	95.115541 
3248.000000	95.120780 
3247.000000	95.125985 
3246.000000	95.131246 
3245.000000	95.136619 
3244.000000	95.142007 
3243.000000	95.147220 
3242.000000	95.152104 
3241.000000	95.156663 
3240.000000	95.161138 
3239.000000	95.166015 
3238.000000	95.171786 
3237.000000	95.178627 
3236.000000	95.186275 
3235.000000	95.194039 
3234.000000	95.201149 
3233.000000	95.207174 
3232.000000	95.212125 
3231.000000	95.216424 
3230.000000	95.220687 
3229.000000	95.225401 
3228.000000	95.230770 
3227.000000	95.236795 
3226.000000	95.243388 
3225.000000	95.250348 
3224.000000	95.257281 
3223.000000	95.263764 
3222.000000	95.269663 
3221.000000	95.275241 
3220.000000	95.280914 
3219.000000	95.286886 
3218.000000	95.293068 
3217.000000	95.299275 
3216.000000	95.305424 
3215.000000	95.311577 
3214.000000	95.317856 
3213.000000	95.324297 
3212.000000	95.330765 
3211.000000	95.337036 
3210.000000	95.343010 
3209.000000	95.348820 
3208.000000	95.354707 
3207.000000	95.360823 
3206.000000	95.367178 
3205.000000	95.373700 
3204.000000	95.380296 
3203.000000	95.386898 
3202.000000	95.393469 
3201.000000	95.400008 
3200.000000	95.406527 
3199.000000	95.413030 
3198.000000	95.419513 
3197.000000	95.425980 
3196.000000	95.432442 
3195.000000	95.438906 
3194.000000	95.445378 
3193.000000	95.451869 
3192.000000	95.458391 
3191.000000	95.464942 
3190.000000	95.471512 
3189.000000	95.478089 
3188.000000	95.484664 
3187.000000	95.491239 
3186.000000	95.497819 
3185.000000	95.504408 
3184.000000	95.511005 
3183.000000	95.517605 
3182.000000	95.524207 
3181.000000	95.530814 
3180.000000	95.537430 
3179.000000	95.544054 
3178.000000	95.550675 
3177.000000	95.557282 
3176.000000	95.563867 
3175.000000	95.570435 
3174.000000	95.576992 
3173.000000	95.583538 
3172.000000	95.590069 
3171.000000	95.596574 
3170.000000	95.603047 
3169.000000	95.609493 
3168.000000	95.615924 
3167.000000	95.622349 
3166.000000	95.628768 
3165.000000	95.635171 
3164.000000	95.641545 
3163.000000	95.647883 
3162.000000	95.654189 
3161.000000	95.660476 
3160.000000	95.666761 
3159.000000	95.673051 
3158.000000	95.679342 
3157.000000	95.685628 
3156.000000	95.691901 
3155.000000	95.698160 
3154.000000	95.704403 
3153.000000	95.710633 
3152.000000	95.716850 
3151.000000	95.723053 
3150.000000	95.729234 
3149.000000	95.735375 
3148.000000	95.741469 
3147.000000	95.747547 
3146.000000	95.753686 
3145.000000	95.759959 
3144.000000	95.766346 
3143.000000	95.772673 
3142.000000	95.778711 
3141.000000	95.784382 
3140.000000	95.789866 
3139.000000	95.795415 
3138.000000	95.801089 
3137.000000	95.806761 
3136.000000	95.812346 
3135.000000	95.817935 
3134.000000	95.823693 
3133.000000	95.829680 
3132.000000	95.835746 
3131.000000	95.841544 
3130.000000	95.846756 
3129.000000	95.851473 
3128.000000	95.856318 
3127.000000	95.862006 
3126.000000	95.868739 
3125.000000	95.876113 
3124.000000	95.883458 
3123.000000	95.890261 
3122.000000	95.896357 
3121.000000	95.901945 
3120.000000	95.907449 
3119.000000	95.913065 
3118.000000	95.918501 
3117.000000	95.923392 
3116.000000	95.927910 
3115.000000	95.932611 
3114.000000	95.937764 
3113.000000	95.943213 
3112.000000	95.948901 
3111.000000	95.955099 
3110.000000	95.961886 
3109.000000	95.968631 
3108.000000	95.974385 
3107.000000	95.978743 
3106.000000	95.982070 
3105.000000	95.984980 
3104.000000	95.987896 
3103.000000	95.991202 
3102.000000	95.995319 
3101.000000	96.000193 
3100.000000	96.004977 
3099.000000	96.008847 
3098.000000	96.012228 
3097.000000	96.016595 
3096.000000	96.022716 
3095.000000	96.029611 
3094.000000	96.035691 
3093.000000	96.040522 
3092.000000	96.044963 
3091.000000	96.049857 
3090.000000	96.055150 
3089.000000	96.060236 
3088.000000	96.064600 
3087.000000	96.068123 
3086.000000	96.071177 
3085.000000	96.074459 
3084.000000	96.078348 
3083.000000	96.082481 
3082.000000	96.086274 
3081.000000	96.089787 
3080.000000	96.093664 
3079.000000	96.098236 
3078.000000	96.103165 
3077.000000	96.108027 
3076.000000	96.112736 
3075.000000	96.117147 
3074.000000	96.120792 
3073.000000	96.123465 
3072.000000	96.125738 
3071.000000	96.128494 
3070.000000	96.132068 
3069.000000	96.136203 
3068.000000	96.140510 
3067.000000	96.144620 
3066.000000	96.148109 
3065.000000	96.150786 
3064.000000	96.152967 
3063.000000	96.155078 
3062.000000	96.157091 
3061.000000	96.158769 
3060.000000	96.160424 
3059.000000	96.162979 
3058.000000	96.167125 
3057.000000	96.172718 
3056.000000	96.178850 
3055.000000	96.184237 
3054.000000	96.187819 
3053.000000	96.189421 
3052.000000	96.190157 
3051.000000	96.191826 
3050.000000	96.195354 
3049.000000	96.200095 
3048.000000	96.204619 
3047.000000	96.208083 
3046.000000	96.210641 
3045.000000	96.212887 
3044.000000	96.215328 
3043.000000	96.218274 
3042.000000	96.221738 
3041.000000	96.225259 
3040.000000	96.228106 
3039.000000	96.229923 
3038.000000	96.231111 
3037.000000	96.232413 
3036.000000	96.234131 
3035.000000	96.235860 
3034.000000	96.237043 
3033.000000	96.237668 
3032.000000	96.238300 
3031.000000	96.239512 
3030.000000	96.241426 
3029.000000	96.243705 
3028.000000	96.245700 
3027.000000	96.246684 
3026.000000	96.246378 
3025.000000	96.245471 
3024.000000	96.245289 
3023.000000	96.246561 
3022.000000	96.248751 
3021.000000	96.250947 
3020.000000	96.253134 
3019.000000	96.255972 
3018.000000	96.259376 
3017.000000	96.262020 
3016.000000	96.262645 
3015.000000	96.261419 
3014.000000	96.259904 
3013.000000	96.259790 
3012.000000	96.261656 
3011.000000	96.264567 
3010.000000	96.266683 
3009.000000	96.266737 
3008.000000	96.265067 
3007.000000	96.263186 
3006.000000	96.262195 
3005.000000	96.261945 
3004.000000	96.261839 
3003.000000	96.261950 
3002.000000	96.263074 
3001.000000	96.265878 
3000.000000	96.270114 
2999.000000	96.274441 
2998.000000	96.277001 
2997.000000	96.276617 
2996.000000	96.273819 
2995.000000	96.270657 
2994.000000	96.269105 
2993.000000	96.269654 
2992.000000	96.271351 
2991.000000	96.272895 
2990.000000	96.273608 
2989.000000	96.273699 
2988.000000	96.273991 
2987.000000	96.275333 
2986.000000	96.278040 
2985.000000	96.281855 
2984.000000	96.286384 
2983.000000	96.291390 
2982.000000	96.296708 
2981.000000	96.302083 
2980.000000	96.307085 
2979.000000	96.311015 
2978.000000	96.313054 
2977.000000	96.312961 
2976.000000	96.311839 
2975.000000	96.311733 
2974.000000	96.314052 
2973.000000	96.318563 
2972.000000	96.323974 
2971.000000	96.329285 
2970.000000	96.334340 
2969.000000	96.339348 
2968.000000	96.344307 
2967.000000	96.348837 
2966.000000	96.352356 
2965.000000	96.354536 
2964.000000	96.355798 
2963.000000	96.357265 
2962.000000	96.359989 
2961.000000	96.364175 
2960.000000	96.369306 
2959.000000	96.374919 
2958.000000	96.381046 
2957.000000	96.387838 
2956.000000	96.394815 
2955.000000	96.400645 
2954.000000	96.403972 
2953.000000	96.404670 
2952.000000	96.404283 
2951.000000	96.405056 
2950.000000	96.408107 
2949.000000	96.412700 
2948.000000	96.417278 
2947.000000	96.420987 
2946.000000	96.424149 
2945.000000	96.427460 
2944.000000	96.431102 
2943.000000	96.434585 
2942.000000	96.437181 
2941.000000	96.438453 
2940.000000	96.438659 
2939.000000	96.438870 
2938.000000	96.440423 
2937.000000	96.443930 
2936.000000	96.448737 
2935.000000	96.453324 
2934.000000	96.456466 
2933.000000	96.458040 
2932.000000	96.458884 
2931.000000	96.460027 
2930.000000	96.461866 
2929.000000	96.463946 
2928.000000	96.465468 
2927.000000	96.466083 
2926.000000	96.466271 
2925.000000	96.466979 
2924.000000	96.468932 
2923.000000	96.472220 
2922.000000	96.476301 
2921.000000	96.480271 
2920.000000	96.483408 
2919.000000	96.485694 
2918.000000	96.487737 
2917.000000	96.489946 
2916.000000	96.491872 
2915.000000	96.492774 
2914.000000	96.492828 
2913.000000	96.493338 
2912.000000	96.495392 
2911.000000	96.498575 
2910.000000	96.501349 
2909.000000	96.502720 
2908.000000	96.503160 
2907.000000	96.503831 
2906.000000	96.505232 
2905.000000	96.506896 
2904.000000	96.508215 
2903.000000	96.509125 
2902.000000	96.510311 
2901.000000	96.512528 
2900.000000	96.516084 
2899.000000	96.520785 
2898.000000	96.526049 
2897.000000	96.531157 
2896.000000	96.535348 
2895.000000	96.538026 
2894.000000	96.539309 
2893.000000	96.540356 
2892.000000	96.542574 
2891.000000	96.546210 
2890.000000	96.550046 
2889.000000	96.552917 
2888.000000	96.555198 
2887.000000	96.558142 
2886.000000	96.561908 
2885.000000	96.565130 
2884.000000	96.566770 
2883.000000	96.567658 
2882.000000	96.569546 
2881.000000	96.573083 
2880.000000	96.577619 
2879.000000	96.582681 
2878.000000	96.588542 
2877.000000	96.595049 
2876.000000	96.600936 
2875.000000	96.605047 
2874.000000	96.607629 
2873.000000	96.609795 
2872.000000	96.612085 
2871.000000	96.614180 
2870.000000	96.615887 
2869.000000	96.617611 
2868.000000	96.619775 
2867.000000	96.622338 
2866.000000	96.625061 
2865.000000	96.627811 
2864.000000	96.630566 
2863.000000	96.633531 
2862.000000	96.637208 
2861.000000	96.641881 
2860.000000	96.646966 
2859.000000	96.651338 
2858.000000	96.654543 
2857.000000	96.657240 
2856.000000	96.660343 
2855.000000	96.663990 
2854.000000	96.667641 
2853.000000	96.670803 
2852.000000	96.673279 
2851.000000	96.675059 
2850.000000	96.676435 
2849.000000	96.678105 
2848.000000	96.680651 
2847.000000	96.683935 
2846.000000	96.687270 
2845.000000	96.690151 
2844.000000	96.692616 
2843.000000	96.694965 
2842.000000	96.697419 
2841.000000	96.700041 
2840.000000	96.702704 
2839.000000	96.705133 
2838.000000	96.707176 
2837.000000	96.709071 
2836.000000	96.711294 
2835.000000	96.714139 
2834.000000	96.717560 
2833.000000	96.721346 
2832.000000	96.725182 
2831.000000	96.728585 
2830.000000	96.731108 
2829.000000	96.732700 
2828.000000	96.733805 
2827.000000	96.735056 
2826.000000	96.736875 
2825.000000	96.739375 
2824.000000	96.742420 
2823.000000	96.745624 
2822.000000	96.748502 
2821.000000	96.750779 
2820.000000	96.752508 
2819.000000	96.753872 
2818.000000	96.754998 
2817.000000	96.756028 
2816.000000	96.757229 
2815.000000	96.758877 
2814.000000	96.761030 
2813.000000	96.763488 
2812.000000	96.765929 
2811.000000	96.768118 
2810.000000	96.770018 
2809.000000	96.771769 
2808.000000	96.773555 
2807.000000	96.775469 
2806.000000	96.777480 
2805.000000	96.779510 
2804.000000	96.781505 
2803.000000	96.783445 
2802.000000	96.785357 
2801.000000	96.787322 
2800.000000	96.789421 
2799.000000	96.791625 
2798.000000	96.793771 
2797.000000	96.795677 
2796.000000	96.797299 
2795.000000	96.798748 
2794.000000	96.800217 
2793.000000	96.801857 
2792.000000	96.803711 
2791.000000	96.805715 
2790.000000	96.807729 
2789.000000	96.809628 
2788.000000	96.811378 
2787.000000	96.813033 
2786.000000	96.814676 
2785.000000	96.816343 
2784.000000	96.818006 
2783.000000	96.819638 
2782.000000	96.821265 
2781.000000	96.822939 
2780.000000	96.824680 
2779.000000	96.826474 
2778.000000	96.828311 
2777.000000	96.830178 
2776.000000	96.832008 
2775.000000	96.833678 
2774.000000	96.835128 
2773.000000	96.836460 
2772.000000	96.837843 
2771.000000	96.839333 
2770.000000	96.840867 
2769.000000	96.842428 
2768.000000	96.844076 
2767.000000	96.845798 
2766.000000	96.847456 
2765.000000	96.848971 
2764.000000	96.850445 
2763.000000	96.851970 
2762.000000	96.853417 
2761.000000	96.854589 
2760.000000	96.855513 
2759.000000	96.856469 
2758.000000	96.857687 
2757.000000	96.859101 
2756.000000	96.860438 
2755.000000	96.861543 
2754.000000	96.862568 
2753.000000	96.863806 
2752.000000	96.865352 
2751.000000	96.867012 
2750.000000	96.868549 
2749.000000	96.869922 
2748.000000	96.871180 
2747.000000	96.872231 
2746.000000	96.872943 
2745.000000	96.873448 
2744.000000	96.874141 
2743.000000	96.875275 
2742.000000	96.876735 
2741.000000	96.878175 
2740.000000	96.879382 
2739.000000	96.880403 
2738.000000	96.881364 
2737.000000	96.882329 
2736.000000	96.883311 
2735.000000	96.884346 
2734.000000	96.885495 
2733.000000	96.886810 
2732.000000	96.888271 
2731.000000	96.889792 
2730.000000	96.891284 
2729.000000	96.892709 
2728.000000	96.894043 
2727.000000	96.895236 
2726.000000	96.896262 
2725.000000	96.897197 
2724.000000	96.898177 
2723.000000	96.899268 
2722.000000	96.900430 
2721.000000	96.901595 
2720.000000	96.902745 
2719.000000	96.903890 
2718.000000	96.905031 
2717.000000	96.906153 
2716.000000	96.907248 
2715.000000	96.908331 
2714.000000	96.909419 
2713.000000	96.910518 
2712.000000	96.911621 
2711.000000	96.912715 
2710.000000	96.913791 
2709.000000	96.914850 
2708.000000	96.915899 
2707.000000	96.916946 
2706.000000	96.917993 
2705.000000	96.919039 
2704.000000	96.920080 
2703.000000	96.921110 
2702.000000	96.922121 
2701.000000	96.923110 
2700.000000	96.924078 
2699.000000	96.925032 
2698.000000	96.925968 
2697.000000	96.926876 
2696.000000	96.927745 
2695.000000	96.928580 
2694.000000	96.929391 
2693.000000	96.930184 
2692.000000	96.930954 
2691.000000	96.931692 
2690.000000	96.932390 
2689.000000	96.933046 
2688.000000	96.933678 
2687.000000	96.934305 
2686.000000	96.934926 
2685.000000	96.935532 
2684.000000	96.936121 
2683.000000	96.936698 
2682.000000	96.937263 
2681.000000	96.937808 
2680.000000	96.938329 
2679.000000	96.938831 
2678.000000	96.939317 
2677.000000	96.939838 
2676.000000	96.940490 
2675.000000	96.941247 
2674.000000	96.941868 
2673.000000	96.942153 
2672.000000	96.942233 
2671.000000	96.942415 
2670.000000	96.942731 
2669.000000	96.942942 
2668.000000	96.942981 
2667.000000	96.943090 
2666.000000	96.943436 
2665.000000	96.943829 
2664.000000	96.943994 
2663.000000	96.943946 
2662.000000	96.943937 
2661.000000	96.944099 
2660.000000	96.944302 
2659.000000	96.944352 
2658.000000	96.944217 
2657.000000	96.944071 
2656.000000	96.944146 
2655.000000	96.944499 
2654.000000	96.944869 
2653.000000	96.944877 
2652.000000	96.944433 
2651.000000	96.943896 
2650.000000	96.943758 
2649.000000	96.944153 
2648.000000	96.944781 
2647.000000	96.945191 
2646.000000	96.945120 
2645.000000	96.944556 
2644.000000	96.943687 
2643.000000	96.942879 
2642.000000	96.942503 
2641.000000	96.942675 
2640.000000	96.943188 
2639.000000	96.943744 
2638.000000	96.944253 
2637.000000	96.944768 
2636.000000	96.945266 
2635.000000	96.945652 
2634.000000	96.945929 
2633.000000	96.946210 
2632.000000	96.946523 
2631.000000	96.946740 
2630.000000	96.946747 
2629.000000	96.946611 
2628.000000	96.946496 
2627.000000	96.946487 
2626.000000	96.946565 
2625.000000	96.946707 
2624.000000	96.946929 
2623.000000	96.947231 
2622.000000	96.947540 
2621.000000	96.947733 
2620.000000	96.947719 
2619.000000	96.947510 
2618.000000	96.947232 
2617.000000	96.947077 
2616.000000	96.947154 
2615.000000	96.947430 
2614.000000	96.947780 
2613.000000	96.948084 
2612.000000	96.948290 
2611.000000	96.948401 
2610.000000	96.948445 
2609.000000	96.948478 
2608.000000	96.948547 
2607.000000	96.948641 
2606.000000	96.948692 
2605.000000	96.948667 
2604.000000	96.948610 
2603.000000	96.948571 
2602.000000	96.948579 
2601.000000	96.948710 
2600.000000	96.949059 
2599.000000	96.949565 
2598.000000	96.949961 
2597.000000	96.950083 
2596.000000	96.950149 
2595.000000	96.950465 
2594.000000	96.950773 
2593.000000	96.950468 
2592.000000	96.949630 
2591.000000	96.949182 
2590.000000	96.949626 
2589.000000	96.950345 
2588.000000	96.950578 
2587.000000	96.950501 
2586.000000	96.950708 
2585.000000	96.951161 
2584.000000	96.951366 
2583.000000	96.951273 
2582.000000	96.951264 
2581.000000	96.951483 
2580.000000	96.951849 
2579.000000	96.952583 
2578.000000	96.954036 
2577.000000	96.955916 
2576.000000	96.957191 
2575.000000	96.957002 
2574.000000	96.955392 
2573.000000	96.953118 
2572.000000	96.950873 
2571.000000	96.948827 
2570.000000	96.946972 
2569.000000	96.945725 
2568.000000	96.945824 
2567.000000	96.947390 
2566.000000	96.949340 
2565.000000	96.950309 
2564.000000	96.950130 
2563.000000	96.949962 
2562.000000	96.950951 
2561.000000	96.953286 
2560.000000	96.956626 
2559.000000	96.960705 
2558.000000	96.964994 
2557.000000	96.968293 
2556.000000	96.969565 
2555.000000	96.969082 
2554.000000	96.968121 
2553.000000	96.967304 
2552.000000	96.966000 
2551.000000	96.963822 
2550.000000	96.961816 
2549.000000	96.961306 
2548.000000	96.962034 
2547.000000	96.962554 
2546.000000	96.962351 
2545.000000	96.962419 
2544.000000	96.963370 
2543.000000	96.964140 
2542.000000	96.963435 
2541.000000	96.961664 
2540.000000	96.960504 
2539.000000	96.960779 
2538.000000	96.961674 
2537.000000	96.962097 
2536.000000	96.962088 
2535.000000	96.962407 
2534.000000	96.963246 
2533.000000	96.963960 
2532.000000	96.963963 
2531.000000	96.963408 
2530.000000	96.962836 
2529.000000	96.962461 
2528.000000	96.962065 
2527.000000	96.961553 
2526.000000	96.961325 
2525.000000	96.961887 
2524.000000	96.963244 
2523.000000	96.964828 
2522.000000	96.966012 
2521.000000	96.966623 
2520.000000	96.966830 
2519.000000	96.966757 
2518.000000	96.966389 
2517.000000	96.965766 
2516.000000	96.965037 
2515.000000	96.964340 
2514.000000	96.963805 
2513.000000	96.963653 
2512.000000	96.964067 
2511.000000	96.964987 
2510.000000	96.966124 
2509.000000	96.967170 
2508.000000	96.967902 
2507.000000	96.968194 
2506.000000	96.968116 
2505.000000	96.968069 
2504.000000	96.968508 
2503.000000	96.969479 
2502.000000	96.970515 
2501.000000	96.971090 
2500.000000	96.971139 
2499.000000	96.970959 
2498.000000	96.970817 
2497.000000	96.970758 
2496.000000	96.970839 
2495.000000	96.971225 
2494.000000	96.971936 
2493.000000	96.972717 
2492.000000	96.973321 
2491.000000	96.973828 
2490.000000	96.974502 
2489.000000	96.975400 
2488.000000	96.976244 
2487.000000	96.976741 
2486.000000	96.976911 
2485.000000	96.977045 
2484.000000	96.977379 
2483.000000	96.977863 
2482.000000	96.978268 
2481.000000	96.978430 
2480.000000	96.978377 
2479.000000	96.978246 
2478.000000	96.978172 
2477.000000	96.978237 
2476.000000	96.978440 
2475.000000	96.978679 
2474.000000	96.978817 
2473.000000	96.978837 
2472.000000	96.978901 
2471.000000	96.979225 
2470.000000	96.979917 
2469.000000	96.980928 
2468.000000	96.982019 
2467.000000	96.982789 
2466.000000	96.982903 
2465.000000	96.982376 
2464.000000	96.981687 
2463.000000	96.981423 
2462.000000	96.981861 
2461.000000	96.982957 
2460.000000	96.984493 
2459.000000	96.986167 
2458.000000	96.987551 
2457.000000	96.988242 
2456.000000	96.988159 
2455.000000	96.987584 
2454.000000	96.986944 
2453.000000	96.986475 
2452.000000	96.986112 
2451.000000	96.985718 
2450.000000	96.985443 
2449.000000	96.985731 
2448.000000	96.986820 
2447.000000	96.988337 
2446.000000	96.989561 
2445.000000	96.990137 
2444.000000	96.990283 
2443.000000	96.990349 
2442.000000	96.990472 
2441.000000	96.990689 
2440.000000	96.991108 
2439.000000	96.991845 
2438.000000	96.992979 
2437.000000	96.994597 
2436.000000	96.996615 
2435.000000	96.998524 
2434.000000	96.999690 
2433.000000	97.000001 
2432.000000	96.999964 
2431.000000	97.000079 
2430.000000	97.000491 
2429.000000	97.001269 
2428.000000	97.002487 
2427.000000	97.003807 
2426.000000	97.004416 
2425.000000	97.003713 
2424.000000	97.001943 
2423.000000	97.000132 
2422.000000	96.999228 
2421.000000	96.999535 
2420.000000	97.000939 
2419.000000	97.003084 
2418.000000	97.005260 
2417.000000	97.006985 
2416.000000	97.008404 
2415.000000	97.009676 
2414.000000	97.010546 
2413.000000	97.011031 
2412.000000	97.011833 
2411.000000	97.013308 
2410.000000	97.014697 
2409.000000	97.015203 
2408.000000	97.015224 
2407.000000	97.015586 
2406.000000	97.016083 
2405.000000	97.015748 
2404.000000	97.014326 
2403.000000	97.012594 
2402.000000	97.011417 
2401.000000	97.011238 
2400.000000	97.012223 
2399.000000	97.014126 
2398.000000	97.016204 
2397.000000	97.017949 
2396.000000	97.019616 
2395.000000	97.021305 
2394.000000	97.022095 
2393.000000	97.021195 
2392.000000	97.019608 
2391.000000	97.019306 
2390.000000	97.020632 
2389.000000	97.021713 
2388.000000	97.020715 
2387.000000	97.017650 
2386.000000	97.013751 
2385.000000	97.010190 
2384.000000	97.007899 
2383.000000	97.007719 
2382.000000	97.010069 
2381.000000	97.014990 
2380.000000	97.022797 
2379.000000	97.033737 
2378.000000	97.046155 
2377.000000	97.055715 
2376.000000	97.058171 
2375.000000	97.052781 
2374.000000	97.042658 
2373.000000	97.032124 
2372.000000	97.023981 
2371.000000	97.019545 
2370.000000	97.019372 
2369.000000	97.022575 
2368.000000	97.026293 
2367.000000	97.027587 
2366.000000	97.026128 
2365.000000	97.024111 
2364.000000	97.023102 
2363.000000	97.022142 
2362.000000	97.020617 
2361.000000	97.020334 
2360.000000	97.021678 
2359.000000	97.022149 
2358.000000	97.019630 
2357.000000	97.016447 
2356.000000	97.016015 
2355.000000	97.017853 
2354.000000	97.020235 
2353.000000	97.021402 
2352.000000	97.020824 
2351.000000	97.017832 
2350.000000	97.011118 
2349.000000	97.002466 
2348.000000	96.995944 
2347.000000	96.995490 
2346.000000	96.997294 
2345.000000	96.994845 
2344.000000	96.988468 
2343.000000	96.982295 
2342.000000	96.981558 
2341.000000	96.987865 
2340.000000	96.999858 
2339.000000	97.012284 
2338.000000	97.019889 
2337.000000	97.020531 
2336.000000	97.016119 
2335.000000	97.009351 
2334.000000	97.002534 
2333.000000	96.994654 
2332.000000	96.984549 
2331.000000	96.972091 
2330.000000	96.956745 
2329.000000	96.938433 
2328.000000	96.916462 
2327.000000	96.895981 
2326.000000	96.882324 
2325.000000	96.877511 
2324.000000	96.879744 
2323.000000	96.884217 
2322.000000	96.887330 
2321.000000	96.885472 
2320.000000	96.881211 
2319.000000	96.881069 
2318.000000	96.889635 
2317.000000	96.903243 
2316.000000	96.913933 
2315.000000	96.917429 
2314.000000	96.914967 
2313.000000	96.910088 
2312.000000	96.904792 
2311.000000	96.900508 
2310.000000	96.897659 
2309.000000	96.895647 
2308.000000	96.893582 
2307.000000	96.892234 
2306.000000	96.892732 
2305.000000	96.894085 
2304.000000	96.894508 
2303.000000	96.894181 
2302.000000	96.895505 
2301.000000	96.899706 
2300.000000	96.905208 
2299.000000	96.909277 
2298.000000	96.909785 
2297.000000	96.906627 
2296.000000	96.901598 
2295.000000	96.898471 
2294.000000	96.900128 
2293.000000	96.906542 
2292.000000	96.914947 
2291.000000	96.923033 
2290.000000	96.930510 
2289.000000	96.938099 
2288.000000	96.945727 
2287.000000	96.952151 
2286.000000	96.956031 
2285.000000	96.957205 
2284.000000	96.957185 
2283.000000	96.957848 
2282.000000	96.959793 
2281.000000	96.961877 
2280.000000	96.962685 
2279.000000	96.961720 
2278.000000	96.959633 
2277.000000	96.957696 
2276.000000	96.957285 
2275.000000	96.959217 
2274.000000	96.963174 
2273.000000	96.968150 
2272.000000	96.973309 
2271.000000	96.978134 
2270.000000	96.981868 
2269.000000	96.983877 
2268.000000	96.984735 
2267.000000	96.985904 
2266.000000	96.987921 
2265.000000	96.989845 
2264.000000	96.990706 
2263.000000	96.990713 
2262.000000	96.990429 
2261.000000	96.989798 
2260.000000	96.988717 
2259.000000	96.987679 
2258.000000	96.987353 
2257.000000	96.987934 
2256.000000	96.989328 
2255.000000	96.991380 
2254.000000	96.993633 
2253.000000	96.995230 
2252.000000	96.995597 
2251.000000	96.994937 
2250.000000	96.993887 
2249.000000	96.993011 
2248.000000	96.992616 
2247.000000	96.992763 
2246.000000	96.993266 
2245.000000	96.993762 
2244.000000	96.993976 
2243.000000	96.993935 
2242.000000	96.993815 
2241.000000	96.993769 
2240.000000	96.993857 
2239.000000	96.994053 
2238.000000	96.994284 
2237.000000	96.994483 
2236.000000	96.994625 
2235.000000	96.994722 
2234.000000	96.994786 
2233.000000	96.994821 
2232.000000	96.994827 
2231.000000	96.994804 
2230.000000	96.994753 
2229.000000	96.994682 
2228.000000	96.994601 
2227.000000	96.994516 
2226.000000	96.994418 
2225.000000	96.994290 
2224.000000	96.994125 
2223.000000	96.993949 
2222.000000	96.993806 
2221.000000	96.993727 
2220.000000	96.993710 
2219.000000	96.993723 
2218.000000	96.993740 
2217.000000	96.993748 
2216.000000	96.993745 
2215.000000	96.993728 
2214.000000	96.993697 
2213.000000	96.993666 
2212.000000	96.993668 
2211.000000	96.993742 
2210.000000	96.993911 
2209.000000	96.994168 
2208.000000	96.994483 
2207.000000	96.994825 
2206.000000	96.995169 
2205.000000	96.995503 
2204.000000	96.995818 
2203.000000	96.996112 
2202.000000	96.996394 
2201.000000	96.996678 
2200.000000	96.996973 
2199.000000	96.997276 
2198.000000	96.997580 
2197.000000	96.997894 
2196.000000	96.998240 
2195.000000	96.998646 
2194.000000	96.999127 
2193.000000	96.999685 
2192.000000	97.000312 
2191.000000	97.000989 
2190.000000	97.001696 
2189.000000	97.002425 
2188.000000	97.003183 
2187.000000	97.003975 
2186.000000	97.004797 
2185.000000	97.005643 
2184.000000	97.006522 
2183.000000	97.007476 
2182.000000	97.008554 
2181.000000	97.009777 
2180.000000	97.011081 
2179.000000	97.012355 
2178.000000	97.013511 
2177.000000	97.014549 
2176.000000	97.015584 
2175.000000	97.016771 
2174.000000	97.018221 
2173.000000	97.019936 
2172.000000	97.021855 
2171.000000	97.023950 
2170.000000	97.026126 
2169.000000	97.028012 
2168.000000	97.029118 
2167.000000	97.029346 
2166.000000	97.029292 
2165.000000	97.029689 
2164.000000	97.030579 
2163.000000	97.031378 
2162.000000	97.032025 
2161.000000	97.033609 
2160.000000	97.037229 
2159.000000	97.042586 
2158.000000	97.047858 
2157.000000	97.051430 
2156.000000	97.053197 
2155.000000	97.054148 
2154.000000	97.055218 
2153.000000	97.056740 
2152.000000	97.058613 
2151.000000	97.060215 
2150.000000	97.060495 
2149.000000	97.059034 
2148.000000	97.057050 
2147.000000	97.056448 
2146.000000	97.057661 
2145.000000	97.059353 
2144.000000	97.060593 
2143.000000	97.062282 
2142.000000	97.065426 
2141.000000	97.069051 
2140.000000	97.071308 
2139.000000	97.072163 
2138.000000	97.073617 
2137.000000	97.076966 
2136.000000	97.081041 
2135.000000	97.083491 
2134.000000	97.082988 
2133.000000	97.079974 
2132.000000	97.076239 
2131.000000	97.073581 
2130.000000	97.072514 
2129.000000	97.072405 
2128.000000	97.072766 
2127.000000	97.073984 
2126.000000	97.076456 
2125.000000	97.079501 
2124.000000	97.081767 
2123.000000	97.082432 
2122.000000	97.081501 
2121.000000	97.079339 
2120.000000	97.076411 
2119.000000	97.073399 
2118.000000	97.071142 
2117.000000	97.070305 
2116.000000	97.070933 
2115.000000	97.072055 
2114.000000	97.071858 
2113.000000	97.069179 
2112.000000	97.065233 
2111.000000	97.063052 
2110.000000	97.064393 
2109.000000	97.067885 
2108.000000	97.070752 
2107.000000	97.071915 
2106.000000	97.072307 
2105.000000	97.073017 
2104.000000	97.074463 
2103.000000	97.076741 
2102.000000	97.079360 
2101.000000	97.080878 
2100.000000	97.080096 
2099.000000	97.077884 
2098.000000	97.076957 
2097.000000	97.079074 
2096.000000	97.083450 
2095.000000	97.087886 
2094.000000	97.090851 
2093.000000	97.092269 
2092.000000	97.092855 
2091.000000	97.093499 
2090.000000	97.094874 
2089.000000	97.097003 
2088.000000	97.099161 
2087.000000	97.100550 
2086.000000	97.101113 
2085.000000	97.101533 
2084.000000	97.102526 
2083.000000	97.104268 
2082.000000	97.106471 
2081.000000	97.108850 
2080.000000	97.111503 
2079.000000	97.114758 
2078.000000	97.118499 
2077.000000	97.121796 
2076.000000	97.123677 
2075.000000	97.124364 
2074.000000	97.125269 
2073.000000	97.127295 
2072.000000	97.129594 
2071.000000	97.130516 
2070.000000	97.129469 
2069.000000	97.127607 
2068.000000	97.126913 
2067.000000	97.128658 
2066.000000	97.132543 
2065.000000	97.136624 
2064.000000	97.138522 
2063.000000	97.137497 
2062.000000	97.135399 
2061.000000	97.135361 
2060.000000	97.139027 
2059.000000	97.145627 
2058.000000	97.153100 
2057.000000	97.159597 
2056.000000	97.163791 
2055.000000	97.164729 
2054.000000	97.162683 
2053.000000	97.159852 
2052.000000	97.158760 
2051.000000	97.159838 
2050.000000	97.161579 
2049.000000	97.163145 
2048.000000	97.165695 
2047.000000	97.170304 
2046.000000	97.175883 
2045.000000	97.180400 
2044.000000	97.183314 
2043.000000	97.185604 
2042.000000	97.187964 
2041.000000	97.190392 
2040.000000	97.193476 
2039.000000	97.198672 
2038.000000	97.206499 
2037.000000	97.214998 
2036.000000	97.220924 
2035.000000	97.222699 
2034.000000	97.222023 
2033.000000	97.222644 
2032.000000	97.226898 
2031.000000	97.233049 
2030.000000	97.236441 
2029.000000	97.234006 
2028.000000	97.227415 
2027.000000	97.221208 
2026.000000	97.218062 
2025.000000	97.217650 
2024.000000	97.219696 
2023.000000	97.225699 
2022.000000	97.236362 
2021.000000	97.248271 
2020.000000	97.255237 
2019.000000	97.253274 
2018.000000	97.242985 
2017.000000	97.228824 
2016.000000	97.216362 
2015.000000	97.208831 
2014.000000	97.205747 
2013.000000	97.204318 
2012.000000	97.202939 
2011.000000	97.203297 
2010.000000	97.207716 
2009.000000	97.214921 
2008.000000	97.220276 
2007.000000	97.220917 
2006.000000	97.218667 
2005.000000	97.216993 
2004.000000	97.216987 
2003.000000	97.217698 
2002.000000	97.218681 
2001.000000	97.220064 
2000.000000	97.220831 
1999.000000	97.218970 
1998.000000	97.213612 
1997.000000	97.206201 
1996.000000	97.199379 
1995.000000	97.195043 
1994.000000	97.193440 
1993.000000	97.193352 
1992.000000	97.192886 
1991.000000	97.191177 
1990.000000	97.189571 
1989.000000	97.190156 
1988.000000	97.193018 
1987.000000	97.195621 
1986.000000	97.195364 
1985.000000	97.192358 
1984.000000	97.189105 
1983.000000	97.187781 
1982.000000	97.188482 
1981.000000	97.190085 
1980.000000	97.191795 
1979.000000	97.193381 
1978.000000	97.194501 
1977.000000	97.194706 
1976.000000	97.194035 
1975.000000	97.193089 
1974.000000	97.192492 
1973.000000	97.192526 
1972.000000	97.193125 
1971.000000	97.193882 
1970.000000	97.194112 
1969.000000	97.193199 
1968.000000	97.191039 
1967.000000	97.188193 
1966.000000	97.185706 
1965.000000	97.184457 
1964.000000	97.184659 
1963.000000	97.185882 
1962.000000	97.187275 
1961.000000	97.187944 
1960.000000	97.187322 
1959.000000	97.185348 
1958.000000	97.182601 
1957.000000	97.180122 
1956.000000	97.178596 
1955.000000	97.177827 
1954.000000	97.177051 
1953.000000	97.175769 
1952.000000	97.174139 
1951.000000	97.172521 
1950.000000	97.171051 
1949.000000	97.169778 
1948.000000	97.168829 
1947.000000	97.168190 
1946.000000	97.167462 
1945.000000	97.166138 
1944.000000	97.164096 
1943.000000	97.161641 
1942.000000	97.159179 
1941.000000	97.156942 
1940.000000	97.155010 
1939.000000	97.153241 
1938.000000	97.151279 
1937.000000	97.148992 
1936.000000	97.146797 
1935.000000	97.145105 
1934.000000	97.143701 
1933.000000	97.142225 
1932.000000	97.140972 
1931.000000	97.140449 
1930.000000	97.140299 
1929.000000	97.139366 
1928.000000	97.137150 
1927.000000	97.134313 
1926.000000	97.131569 
1925.000000	97.128905 
1924.000000	97.126224 
1923.000000	97.123969 
1922.000000	97.122234 
1921.000000	97.120147 
1920.000000	97.117343 
1919.000000	97.114762 
1918.000000	97.112925 
1917.000000	97.110597 
1916.000000	97.106705 
1915.000000	97.102461 
1914.000000	97.099683 
1913.000000	97.098206 
1912.000000	97.096395 
1911.000000	97.093724 
1910.000000	97.091271 
1909.000000	97.089689 
1908.000000	97.088335 
1907.000000	97.086206 
1906.000000	97.082570 
1905.000000	97.076996 
1904.000000	97.069973 
1903.000000	97.063737 
1902.000000	97.060556 
1901.000000	97.059949 
1900.000000	97.059357 
1899.000000	97.057318 
1898.000000	97.054508 
1897.000000	97.051884 
1896.000000	97.049055 
1895.000000	97.045175 
1894.000000	97.040291 
1893.000000	97.035045 
1892.000000	97.030167 
1891.000000	97.026544 
1890.000000	97.024710 
1889.000000	97.024105 
1888.000000	97.023875 
1887.000000	97.024345 
1886.000000	97.026040 
1885.000000	97.027438 
1884.000000	97.025734 
1883.000000	97.020447 
1882.000000	97.014847 
1881.000000	97.012606 
1880.000000	97.014069 
1879.000000	97.016258 
1878.000000	97.016018 
1877.000000	97.013188 
1876.000000	97.010318 
1875.000000	97.009773 
1874.000000	97.011731 
1873.000000	97.014549 
1872.000000	97.016504 
1871.000000	97.016840 
1870.000000	97.015458 
1869.000000	97.012951 
1868.000000	97.011173 
1867.000000	97.012224 
1866.000000	97.015759 
1865.000000	97.018502 
1864.000000	97.017930 
1863.000000	97.015530 
1862.000000	97.015012 
1861.000000	97.017840 
1860.000000	97.022169 
1859.000000	97.025937 
1858.000000	97.029208 
1857.000000	97.032890 
1856.000000	97.037368 
1855.000000	97.042680 
1854.000000	97.048152 
1853.000000	97.051878 
1852.000000	97.052851 
1851.000000	97.052627 
1850.000000	97.053110 
1849.000000	97.054125 
1848.000000	97.054446 
1847.000000	97.054442 
1846.000000	97.055772 
1845.000000	97.058773 
1844.000000	97.061781 
1843.000000	97.063885 
1842.000000	97.066101 
1841.000000	97.069167 
1840.000000	97.072997 
1839.000000	97.077184 
1838.000000	97.080693 
1837.000000	97.081969 
1836.000000	97.080564 
1835.000000	97.078517 
1834.000000	97.078311 
1833.000000	97.080120 
1832.000000	97.082724 
1831.000000	97.085090 
1830.000000	97.086451 
1829.000000	97.086721 
1828.000000	97.086852 
1827.000000	97.087906 
1826.000000	97.090051 
1825.000000	97.092343 
1824.000000	97.093581 
1823.000000	97.093690 
1822.000000	97.093660 
1821.000000	97.094005 
1820.000000	97.094227 
1819.000000	97.093876 
1818.000000	97.093636 
1817.000000	97.094307 
1816.000000	97.095165 
1815.000000	97.095251 
1814.000000	97.095012 
1813.000000	97.095630 
1812.000000	97.097063 
1811.000000	97.097696 
1810.000000	97.096955 
1809.000000	97.096052 
1808.000000	97.095682 
1807.000000	97.095510 
1806.000000	97.095704 
1805.000000	97.096921 
1804.000000	97.098791 
1803.000000	97.099926 
1802.000000	97.099498 
1801.000000	97.098288 
1800.000000	97.097331 
1799.000000	97.096565 
1798.000000	97.096037 
1797.000000	97.095990 
1796.000000	97.096177 
1795.000000	97.096684 
1794.000000	97.098235 
1793.000000	97.100855 
1792.000000	97.102425 
1791.000000	97.101121 
1790.000000	97.098738 
1789.000000	97.098196 
1788.000000	97.100103 
1787.000000	97.102889 
1786.000000	97.104789 
1785.000000	97.105383 
1784.000000	97.105409 
1783.000000	97.106322 
1782.000000	97.108880 
1781.000000	97.112369 
1780.000000	97.115444 
1779.000000	97.117383 
1778.000000	97.118979 
1777.000000	97.120799 
1776.000000	97.122322 
1775.000000	97.123164 
1774.000000	97.123536 
1773.000000	97.124493 
1772.000000	97.126631 
1771.000000	97.128901 
1770.000000	97.130499 
1769.000000	97.131739 
1768.000000	97.132885 
1767.000000	97.133587 
1766.000000	97.133674 
1765.000000	97.134342 
1764.000000	97.137004 
1763.000000	97.140717 
1762.000000	97.142500 
1761.000000	97.142091 
1760.000000	97.142528 
1759.000000	97.144853 
1758.000000	97.146826 
1757.000000	97.145958 
1756.000000	97.144138 
1755.000000	97.144026 
1754.000000	97.143565 
1753.000000	97.139092 
1752.000000	97.131797 
1751.000000	97.128428 
1750.000000	97.132043 
1749.000000	97.137652 
1748.000000	97.140416 
1747.000000	97.141129 
1746.000000	97.141220 
1745.000000	97.141088 
1744.000000	97.141381 
1743.000000	97.141001 
1742.000000	97.137602 
1741.000000	97.131891 
1740.000000	97.127746 
1739.000000	97.127049 
1738.000000	97.126824 
1737.000000	97.124427 
1736.000000	97.119924 
1735.000000	97.115621 
1734.000000	97.112682 
1733.000000	97.109145 
1732.000000	97.105668 
1731.000000	97.105397 
1730.000000	97.108441 
1729.000000	97.109657 
1728.000000	97.106475 
1727.000000	97.101397 
1726.000000	97.097228 
1725.000000	97.094139 
1724.000000	97.091059 
1723.000000	97.086954 
1722.000000	97.081742 
1721.000000	97.075479 
1720.000000	97.069205 
1719.000000	97.064244 
1718.000000	97.059838 
1717.000000	97.053416 
1716.000000	97.041912 
1715.000000	97.026534 
1714.000000	97.013569 
1713.000000	97.005058 
1712.000000	96.997013 
1711.000000	96.987402 
1710.000000	96.977528 
1709.000000	96.967455 
1708.000000	96.956751 
1707.000000	96.947663 
1706.000000	96.942747 
1705.000000	96.938968 
1704.000000	96.928575 
1703.000000	96.909263 
1702.000000	96.884319 
1701.000000	96.862969 
1700.000000	96.850597 
1699.000000	96.840669 
1698.000000	96.832173 
1697.000000	96.827241 
1696.000000	96.821273 
1695.000000	96.810512 
1694.000000	96.797660 
1693.000000	96.786002 
1692.000000	96.775482 
1691.000000	96.764181 
1690.000000	96.751139 
1689.000000	96.736434 
1688.000000	96.720857 
1687.000000	96.705308 
1686.000000	96.690706 
1685.000000	96.679573 
1684.000000	96.667161 
1683.000000	96.650355 
1682.000000	96.635388 
1681.000000	96.622564 
1680.000000	96.610112 
1679.000000	96.596298 
1678.000000	96.580413 
1677.000000	96.562584 
1676.000000	96.545331 
1675.000000	96.530574 
1674.000000	96.515086 
1673.000000	96.496629 
1672.000000	96.478360 
1671.000000	96.463952 
1670.000000	96.452043 
1669.000000	96.437485 
1668.000000	96.422622 
1667.000000	96.412471 
1666.000000	96.404224 
1665.000000	96.393721 
1664.000000	96.381639 
1663.000000	96.370689 
1662.000000	96.358801 
1661.000000	96.341275 
1660.000000	96.320047 
1659.000000	96.300050 
1658.000000	96.282958 
1657.000000	96.265699 
1656.000000	96.248284 
1655.000000	96.232065 
1654.000000	96.218241 
1653.000000	96.197085 
1652.000000	96.166651 
1651.000000	96.139763 
1650.000000	96.116813 
1649.000000	96.100789 
1648.000000	96.092426 
1647.000000	96.088502 
1646.000000	96.082098 
1645.000000	96.071676 
1644.000000	96.058289 
1643.000000	96.046901 
1642.000000	96.040935 
1641.000000	96.037514 
1640.000000	96.031419 
1639.000000	96.021432 
1638.000000	96.010785 
1637.000000	96.002676 
1636.000000	95.996632 
1635.000000	95.993868 
1634.000000	95.997182 
1633.000000	96.002540 
1632.000000	96.004368 
1631.000000	96.003342 
1630.000000	96.004255 
1629.000000	96.009711 
1628.000000	96.018347 
1627.000000	96.028700 
1626.000000	96.040317 
1625.000000	96.053003 
1624.000000	96.068523 
1623.000000	96.088262 
1622.000000	96.108649 
1621.000000	96.123307 
1620.000000	96.132600 
1619.000000	96.144068 
1618.000000	96.164662 
1617.000000	96.190152 
1616.000000	96.208239 
1615.000000	96.218646 
1614.000000	96.229117 
1613.000000	96.240838 
1612.000000	96.250340 
1611.000000	96.257144 
1610.000000	96.264559 
1609.000000	96.275431 
1608.000000	96.290960 
1607.000000	96.311121 
1606.000000	96.332557 
1605.000000	96.350932 
1604.000000	96.366448 
1603.000000	96.381472 
1602.000000	96.395734 
1601.000000	96.407223 
1600.000000	96.416472 
1599.000000	96.426288 
1598.000000	96.437379 
1597.000000	96.448361 
1596.000000	96.459055 
1595.000000	96.471125 
1594.000000	96.485019 
1593.000000	96.498349 
1592.000000	96.509209 
1591.000000	96.518743 
1590.000000	96.528869 
1589.000000	96.539583 
1588.000000	96.550404 
1587.000000	96.561862 
1586.000000	96.573648 
1585.000000	96.583644 
1584.000000	96.591597 
1583.000000	96.600027 
1582.000000	96.609906 
1581.000000	96.619688 
1580.000000	96.628639 
1579.000000	96.638517 
1578.000000	96.651092 
1577.000000	96.665877 
1576.000000	96.679536 
1575.000000	96.690044 
1574.000000	96.698217 
1573.000000	96.705418 
1572.000000	96.713765 
1571.000000	96.725478 
1570.000000	96.739674 
1569.000000	96.750885 
1568.000000	96.758441 
1567.000000	96.766109 
1566.000000	96.775210 
1565.000000	96.784170 
1564.000000	96.792785 
1563.000000	96.800399 
1562.000000	96.806524 
1561.000000	96.809004 
1560.000000	96.815824 
1559.000000	96.828748 
1558.000000	96.836895 
1557.000000	96.844962 
1556.000000	96.855020 
1555.000000	96.866693 
1554.000000	96.876546 
1553.000000	96.884691 
1552.000000	96.892286 
1551.000000	96.899420 
1550.000000	96.904397 
1549.000000	96.907928 
1548.000000	96.912588 
1547.000000	96.919465 
1546.000000	96.926507 
1545.000000	96.931128 
1544.000000	96.933060 
1543.000000	96.934606 
1542.000000	96.939467 
1541.000000	96.949666 
1540.000000	96.958381 
1539.000000	96.961213 
1538.000000	96.962145 
1537.000000	96.962345 
1536.000000	96.962364 
1535.000000	96.964088 
1534.000000	96.968835 
1533.000000	96.974632 
1532.000000	96.978705 
1531.000000	96.980344 
1530.000000	96.981231 
1529.000000	96.983185 
1528.000000	96.985895 
1527.000000	96.987797 
1526.000000	96.988311 
1525.000000	96.988782 
1524.000000	96.991135 
1523.000000	96.996342 
1522.000000	97.003092 
1521.000000	97.007157 
1520.000000	97.006073 
1519.000000	97.001919 
1518.000000	96.998145 
1517.000000	96.996563 
1516.000000	96.996886 
1515.000000	96.998894 
1514.000000	97.002517 
1513.000000	97.007008 
1512.000000	97.010331 
1511.000000	97.009838 
1510.000000	97.005426 
1509.000000	96.999875 
1508.000000	96.997470 
1507.000000	96.998061 
1506.000000	96.999269 
1505.000000	97.000937 
1504.000000	97.000861 
1503.000000	96.999017 
1502.000000	96.996413 
1501.000000	96.994304 
1500.000000	96.993351 
1499.000000	96.993208 
1498.000000	96.991712 
1497.000000	96.988810 
1496.000000	96.986552 
1495.000000	96.985486 
1494.000000	96.985014 
1493.000000	96.985492 
1492.000000	96.987851 
1491.000000	96.991853 
1490.000000	96.994734 
1489.000000	96.994160 
1488.000000	96.989773 
1487.000000	96.982429 
1486.000000	96.974975 
1485.000000	96.967867 
1484.000000	96.960876 
1483.000000	96.956104 
1482.000000	96.954826 
1481.000000	96.955213 
1480.000000	96.953529 
1479.000000	96.948622 
1478.000000	96.942384 
1477.000000	96.936827 
1476.000000	96.931007 
1475.000000	96.922919 
1474.000000	96.913697 
1473.000000	96.906956 
1472.000000	96.904093 
1471.000000	96.902233 
1470.000000	96.898729 
1469.000000	96.893043 
1468.000000	96.884936 
1467.000000	96.874505 
1466.000000	96.864380 
1465.000000	96.857960 
1464.000000	96.855274 
1463.000000	96.851304 
1462.000000	96.842119 
1461.000000	96.829814 
1460.000000	96.819874 
1459.000000	96.815416 
1458.000000	96.810624 
1457.000000	96.798032 
1456.000000	96.782559 
1455.000000	96.769585 
1454.000000	96.756175 
1453.000000	96.743583 
1452.000000	96.734393 
1451.000000	96.729207 
1450.000000	96.726205 
1449.000000	96.724236 
1448.000000	96.721252 
1447.000000	96.714445 
1446.000000	96.703356 
1445.000000	96.691263 
1444.000000	96.682659 
1443.000000	96.677244 
1442.000000	96.671405 
1441.000000	96.662900 
1440.000000	96.652590 
1439.000000	96.640911 
1438.000000	96.626247 
1437.000000	96.610338 
1436.000000	96.599640 
1435.000000	96.595449 
1434.000000	96.592436 
1433.000000	96.588482 
1432.000000	96.584658 
1431.000000	96.582351 
1430.000000	96.581189 
1429.000000	96.580546 
1428.000000	96.580118 
1427.000000	96.579945 
1426.000000	96.580710 
1425.000000	96.583206 
1424.000000	96.588749 
1423.000000	96.595054 
1422.000000	96.598270 
1421.000000	96.599213 
1420.000000	96.602724 
1419.000000	96.606660 
1418.000000	96.602424 
1417.000000	96.593763 
1416.000000	96.591971 
1415.000000	96.599207 
1414.000000	96.607429 
1413.000000	96.610122 
1412.000000	96.610217 
1411.000000	96.613471 
1410.000000	96.619458 
1409.000000	96.625495 
1408.000000	96.631855 
1407.000000	96.640054 
1406.000000	96.649361 
1405.000000	96.658022 
1404.000000	96.667061 
1403.000000	96.675942 
1402.000000	96.682112 
1401.000000	96.687712 
1400.000000	96.699234 
1399.000000	96.718703 
1398.000000	96.739216 
1397.000000	96.754443 
1396.000000	96.765755 
1395.000000	96.777816 
1394.000000	96.790876 
1393.000000	96.802688 
1392.000000	96.814611 
1391.000000	96.828242 
1390.000000	96.842192 
1389.000000	96.853790 
1388.000000	96.861538 
1387.000000	96.865968 
1386.000000	96.869187 
1385.000000	96.874057 
1384.000000	96.882768 
1383.000000	96.894465 
1382.000000	96.905658 
1381.000000	96.914100 
1380.000000	96.920203 
1379.000000	96.926139 
1378.000000	96.933888 
1377.000000	96.943805 
1376.000000	96.954456 
1375.000000	96.963693 
1374.000000	96.970557 
1373.000000	96.977136 
1372.000000	96.986219 
1371.000000	96.998091 
1370.000000	97.010511 
1369.000000	97.019966 
1368.000000	97.025725 
1367.000000	97.030269 
1366.000000	97.036574 
1365.000000	97.046268 
1364.000000	97.058122 
1363.000000	97.067896 
1362.000000	97.072684 
1361.000000	97.074872 
1360.000000	97.079341 
1359.000000	97.088535 
1358.000000	97.100914 
1357.000000	97.112903 
1356.000000	97.122225 
1355.000000	97.128977 
1354.000000	97.134513 
1353.000000	97.140705 
1352.000000	97.148210 
1351.000000	97.156689 
1350.000000	97.165735 
1349.000000	97.173583 
1348.000000	97.179390 
1347.000000	97.184472 
1346.000000	97.190812 
1345.000000	97.198225 
1344.000000	97.204953 
1343.000000	97.210593 
1342.000000	97.216750 
1341.000000	97.223838 
1340.000000	97.229194 
1339.000000	97.230271 
1338.000000	97.227950 
1337.000000	97.225292 
1336.000000	97.224397 
1335.000000	97.225331 
1334.000000	97.227398 
1333.000000	97.230220 
1332.000000	97.233412 
1331.000000	97.236540 
1330.000000	97.239219 
1329.000000	97.240843 
1328.000000	97.240885 
1327.000000	97.240234 
1326.000000	97.240715 
1325.000000	97.242185 
1324.000000	97.242932 
1323.000000	97.241625 
1322.000000	97.238619 
1321.000000	97.235553 
1320.000000	97.234223 
1319.000000	97.235280 
1318.000000	97.237733 
1317.000000	97.239915 
1316.000000	97.240585 
1315.000000	97.239298 
1314.000000	97.236603 
1313.000000	97.234539 
1312.000000	97.235297 
1311.000000	97.238422 
1310.000000	97.240510 
1309.000000	97.239126 
1308.000000	97.235917 
1307.000000	97.234864 
1306.000000	97.237821 
1305.000000	97.242682 
1304.000000	97.246600 
1303.000000	97.248053 
1302.000000	97.246580 
1301.000000	97.242636 
1300.000000	97.238508 
1299.000000	97.237227 
1298.000000	97.239462 
1297.000000	97.242447 
1296.000000	97.242819 
1295.000000	97.240139 
1294.000000	97.236800 
1293.000000	97.235442 
1292.000000	97.236955 
1291.000000	97.240220 
1290.000000	97.243113 
1289.000000	97.243921 
1288.000000	97.242166 
1287.000000	97.238454 
1286.000000	97.233959 
1285.000000	97.230379 
1284.000000	97.229526 
1283.000000	97.231435 
1282.000000	97.233361 
1281.000000	97.232136 
1280.000000	97.227834 
1279.000000	97.224138 
1278.000000	97.224544 
1277.000000	97.229051 
1276.000000	97.234560 
1275.000000	97.237944 
1274.000000	97.238289 
1273.000000	97.237049 
1272.000000	97.236547 
1271.000000	97.237863 
1270.000000	97.239850 
1269.000000	97.240517 
1268.000000	97.239231 
1267.000000	97.236761 
1266.000000	97.233620 
1265.000000	97.230288 
1264.000000	97.228626 
1263.000000	97.230791 
1262.000000	97.236324 
1261.000000	97.241989 
1260.000000	97.245493 
1259.000000	97.247941 
1258.000000	97.251098 
1257.000000	97.253828 
1256.000000	97.252865 
1255.000000	97.247224 
1254.000000	97.240512 
1253.000000	97.237737 
1252.000000	97.239807 
1251.000000	97.242595 
1250.000000	97.242070 
1249.000000	97.239160 
1248.000000	97.237983 
1247.000000	97.239913 
1246.000000	97.241918 
1245.000000	97.241491 
1244.000000	97.240127 
1243.000000	97.240258 
1242.000000	97.241507 
1241.000000	97.242442 
1240.000000	97.243613 
1239.000000	97.245799 
1238.000000	97.247084 
1237.000000	97.244964 
1236.000000	97.240164 
1235.000000	97.235171 
1234.000000	97.229959 
1233.000000	97.222419 
1232.000000	97.212307 
1231.000000	97.201247 
1230.000000	97.189437 
1229.000000	97.175873 
1228.000000	97.161134 
1227.000000	97.145756 
1226.000000	97.125824 
1225.000000	97.094593 
1224.000000	97.049789 
1223.000000	96.996151 
1222.000000	96.939572 
1221.000000	96.881563 
1220.000000	96.820582 
1219.000000	96.755354 
1218.000000	96.684805 
1217.000000	96.607591 
1216.000000	96.523803 
1215.000000	96.435321 
1214.000000	96.343518 
1213.000000	96.248807 
1212.000000	96.152577 
1211.000000	96.055953 
1210.000000	95.956168 
1209.000000	95.848494 
1208.000000	95.733260 
1207.000000	95.616697 
1206.000000	95.503024 
1205.000000	95.389785 
1204.000000	95.272957 
1203.000000	95.152421 
1202.000000	95.030207 
1201.000000	94.906989 
1200.000000	94.782965 
1199.000000	94.659211 
1198.000000	94.535698 
1197.000000	94.410729 
1196.000000	94.283851 
1195.000000	94.156491 
1194.000000	94.028755 
1193.000000	93.898747 
1192.000000	93.765972 
1191.000000	93.631921 
1190.000000	93.496469 
1189.000000	93.357279 
1188.000000	93.213489 
1187.000000	93.066510 
1186.000000	92.917067 
1185.000000	92.765235 
1184.000000	92.612888 
1183.000000	92.461448 
1182.000000	92.307802 
1181.000000	92.147672 
1180.000000	91.982320 
1179.000000	91.815951 
1178.000000	91.647072 
1177.000000	91.469497 
1176.000000	91.281896 
1175.000000	91.089038 
1174.000000	90.893428 
1173.000000	90.693483 
1172.000000	90.490500 
1171.000000	90.288371 
1170.000000	90.085217 
1169.000000	89.875197 
1168.000000	89.661645 
1167.000000	89.459758 
1166.000000	89.284098 
1165.000000	89.143104 
1164.000000	89.047700 
1163.000000	89.012573 
1162.000000	89.041858 
1161.000000	89.120025 
1160.000000	89.219344 
1159.000000	89.309447 
1158.000000	89.360856 
1157.000000	89.352673 
1156.000000	89.283234 
1155.000000	89.167499 
1154.000000	89.021610 
1153.000000	88.855529 
1152.000000	88.679669 
1151.000000	88.506252 
1150.000000	88.339306 
1149.000000	88.173417 
1148.000000	88.006756 
1147.000000	87.845154 
1146.000000	87.689202 
1145.000000	87.528927 
1144.000000	87.357623 
1143.000000	87.181090 
1142.000000	87.006943 
1141.000000	86.834040 
1140.000000	86.658695 
1139.000000	86.482248 
1138.000000	86.306144 
1137.000000	86.127706 
1136.000000	85.946242 
1135.000000	85.765358 
1134.000000	85.584813 
1133.000000	85.398651 
1132.000000	85.205400 
1131.000000	85.010946 
1130.000000	84.817722 
1129.000000	84.620934 
1128.000000	84.419057 
1127.000000	84.217274 
1126.000000	84.016454 
1125.000000	83.809857 
1124.000000	83.595144 
1123.000000	83.378551 
1122.000000	83.162851 
1121.000000	82.942916 
1120.000000	82.717940 
1119.000000	82.495941 
1118.000000	82.281502 
1117.000000	82.071943 
1116.000000	81.869655 
1115.000000	81.683742 
1114.000000	81.514398 
1113.000000	81.350279 
1112.000000	81.186366 
1111.000000	81.028746 
1110.000000	80.877077 
1109.000000	80.719465 
1108.000000	80.550380 
1107.000000	80.377268 
1106.000000	80.204580 
1105.000000	80.027643 
1104.000000	79.846962 
1103.000000	79.671332 
1102.000000	79.500754 
1101.000000	79.324113 
1100.000000	79.139172 
1099.000000	78.957154 
1098.000000	78.784229 
1097.000000	78.613935 
1096.000000	78.443416 
1095.000000	78.278205 
1094.000000	78.116655 
1093.000000	77.949153 
1092.000000	77.778342 
1091.000000	77.620501 
1090.000000	77.480817 
1089.000000	77.346142 
1088.000000	77.207266 
1087.000000	77.068744 
1086.000000	76.932306 
1085.000000	76.791511 
1084.000000	76.648177 
1083.000000	76.513302 
1082.000000	76.386271 
1081.000000	76.253759 
1080.000000	76.113629 
1079.000000	75.977793 
1078.000000	75.846495 
1077.000000	75.702618 
1076.000000	75.537121 
1075.000000	75.356943 
1074.000000	75.162372 
1073.000000	74.940463 
1072.000000	74.687109 
1071.000000	74.411810 
1070.000000	74.113984 
1069.000000	73.778506 
1068.000000	73.402609 
1067.000000	73.004459 
1066.000000	72.597997 
1065.000000	72.182211 
1064.000000	71.761729 
1063.000000	71.351399 
1062.000000	70.951077 
1061.000000	70.541845 
1060.000000	70.117262 
1059.000000	69.693297 
1058.000000	69.278225 
1057.000000	68.858489 
1056.000000	68.424097 
1055.000000	67.981919 
1054.000000	67.533832 
1053.000000	67.067932 
1052.000000	66.583116 
1051.000000	66.095576 
1050.000000	65.608414 
1049.000000	65.104095 
1048.000000	64.578583 
1047.000000	64.050739 
1046.000000	63.528676 
1045.000000	62.999623 
1044.000000	62.460449 
1043.000000	61.926196 
1042.000000	61.400789 
1041.000000	60.870379 
1040.000000	60.333997 
1039.000000	59.809590 
1038.000000	59.301485 
1037.000000	58.794810 
1036.000000	58.290920 
1035.000000	57.814154 
1034.000000	57.373807 
1033.000000	56.953776 
1032.000000	56.548991 
1031.000000	56.176490 
1030.000000	55.840302 
1029.000000	55.521794 
1028.000000	55.215653 
1027.000000	54.939325 
1026.000000	54.695859 
1025.000000	54.463490 
1024.000000	54.232325 
1023.000000	54.015123 
1022.000000	53.811997 
1021.000000	53.602087 
1020.000000	53.380381 
1019.000000	53.165403 
1018.000000	52.960893 
1017.000000	52.748055 
1016.000000	52.524821 
1015.000000	52.313093 
1014.000000	52.116801 
1013.000000	51.913023 
1012.000000	51.695945 
1011.000000	51.489584 
1010.000000	51.304837 
1009.000000	51.124000 
1008.000000	50.940393 
1007.000000	50.773940 
1006.000000	50.634499 
1005.000000	50.508519 
1004.000000	50.394001 
1003.000000	50.309257 
1002.000000	50.254531 
1001.000000	50.204511 
1000.000000	50.152104 
999.000000	 50.120772 
998.000000	 50.120311 
997.000000	 50.129248 
996.000000	 50.134309 
995.000000	 50.149556 
994.000000	 50.182966 
993.000000	 50.221442 
992.000000	 50.261887 
991.000000	 50.320349 
990.000000	 50.397934 
989.000000	 50.474147 
988.000000	 50.545630 
987.000000	 50.635164 
986.000000	 50.751654 
985.000000	 50.878532 
984.000000	 51.011952 
983.000000	 51.172210 
982.000000	 51.365690 
981.000000	 51.573300 
980.000000	 51.788216 
979.000000	 52.028128 
978.000000	 52.298616 
977.000000	 52.581727 
976.000000	 52.872376 
975.000000	 53.189433 
974.000000	 53.538748 
973.000000	 53.900850 
972.000000	 54.266623 
971.000000	 54.650430 
970.000000	 55.057083 
969.000000	 55.470534 
968.000000	 55.885785 
967.000000	 56.317948 
966.000000	 56.769384 
965.000000	 57.221089 
964.000000	 57.665926 
963.000000	 58.117290 
962.000000	 58.576332 
961.000000	 59.024218 
960.000000	 59.455866 
959.000000	 59.888360 
958.000000	 60.326974 
957.000000	 60.755269 
956.000000	 61.167675 
955.000000	 61.579420 
954.000000	 61.994964 
953.000000	 62.397963 
952.000000	 62.781323 
951.000000	 63.155942 
950.000000	 63.521447 
949.000000	 63.859657 
948.000000	 64.166190 
947.000000	 64.458501 
946.000000	 64.744038 
945.000000	 65.009588 
944.000000	 65.250454 
943.000000	 65.480501 
942.000000	 65.704938 
941.000000	 65.912464 
940.000000	 66.103370 
939.000000	 66.296429 
938.000000	 66.498760 
937.000000	 66.697058 
936.000000	 66.887454 
935.000000	 67.085569 
934.000000	 67.298244 
933.000000	 67.513393 
932.000000	 67.726158 
931.000000	 67.946801 
930.000000	 68.174687 
929.000000	 68.393048 
928.000000	 68.598076 
927.000000	 68.805248 
926.000000	 69.018473 
925.000000	 69.220455 
924.000000	 69.401602 
923.000000	 69.571220 
922.000000	 69.732916 
921.000000	 69.877020 
920.000000	 70.004974 
919.000000	 70.132685 
918.000000	 70.261198 
917.000000	 70.372435 
916.000000	 70.463674 
915.000000	 70.559568 
914.000000	 70.681359 
913.000000	 70.831076 
912.000000	 71.013331 
911.000000	 71.243584 
910.000000	 71.525271 
909.000000	 71.846080 
908.000000	 72.204954 
907.000000	 72.615302 
906.000000	 73.074686 
905.000000	 73.559896 
904.000000	 74.058918 
903.000000	 74.579725 
902.000000	 75.121930 
901.000000	 75.669147 
900.000000	 76.215388 
899.000000	 76.770263 
898.000000	 77.331723 
897.000000	 77.880970 
896.000000	 78.409481 
895.000000	 78.924185 
894.000000	 79.422108 
893.000000	 79.888126 
892.000000	 80.323181 
891.000000	 80.747773 
890.000000	 81.171420 
889.000000	 81.583391 
888.000000	 81.978027 
887.000000	 82.363248 
886.000000	 82.739224 
885.000000	 83.094748 
884.000000	 83.430259 
883.000000	 83.759350 
882.000000	 84.083249 
881.000000	 84.390422 
880.000000	 84.686045 
879.000000	 84.993321 
878.000000	 85.318994 
877.000000	 85.645801 
876.000000	 85.965521 
875.000000	 86.290131 
874.000000	 86.624280 
873.000000	 86.957386 
872.000000	 87.290270 
871.000000	 87.639243 
870.000000	 88.005324 
869.000000	 88.367718 
868.000000	 88.715959 
867.000000	 89.062065 
866.000000	 89.413705 
865.000000	 89.761181 
864.000000	 90.099617 
863.000000	 90.439798 
862.000000	 90.786994 
861.000000	 91.129869 
860.000000	 91.459272 
859.000000	 91.778691 
858.000000	 92.088942 
857.000000	 92.381438 
856.000000	 92.653537 
855.000000	 92.912297 
854.000000	 93.156691 
853.000000	 93.374248 
852.000000	 93.562020 
851.000000	 93.734141 
850.000000	 93.902748 
849.000000	 94.066831 
848.000000	 94.223166 
847.000000	 94.370118 
846.000000	 94.497154 
845.000000	 94.590020 
844.000000	 94.651327 
843.000000	 94.697936 
842.000000	 94.733597 
841.000000	 94.742615 
840.000000	 94.714576 
839.000000	 94.656120 
838.000000	 94.574926 
837.000000	 94.473187 
836.000000	 94.362809 
835.000000	 94.265598 
834.000000	 94.189205 
833.000000	 94.121651 
832.000000	 94.057818 
831.000000	 94.012207 
830.000000	 93.997565 
829.000000	 94.011512 
828.000000	 94.053593 
827.000000	 94.132955 
826.000000	 94.246747 
825.000000	 94.373410 
824.000000	 94.500317 
823.000000	 94.635191 
822.000000	 94.779511 
821.000000	 94.916248 
820.000000	 95.033610 
819.000000	 95.135562 
818.000000	 95.220590 
817.000000	 95.272175 
816.000000	 95.278131 
815.000000	 95.240200 
814.000000	 95.156206 
813.000000	 95.009532 
812.000000	 94.783756 
811.000000	 94.470584 
810.000000	 94.055655 
809.000000	 93.515343 
808.000000	 92.839972 
807.000000	 92.047029 
806.000000	 91.163392 
805.000000	 90.211186 
804.000000	 89.221849 
803.000000	 88.245260 
802.000000	 87.330272 
801.000000	 86.512031 
800.000000	 85.826610 
799.000000	 85.312422 
798.000000	 84.982013 
797.000000	 84.814109 
796.000000	 84.783191 
795.000000	 84.871682 
794.000000	 85.046086 
793.000000	 85.253789 
792.000000	 85.458523 
791.000000	 85.654306 
790.000000	 85.834593 
789.000000	 85.973656 
788.000000	 86.048322 
787.000000	 86.052372 
786.000000	 85.978801 
785.000000	 85.812326 
784.000000	 85.552472 
783.000000	 85.225094 
782.000000	 84.863189 
781.000000	 84.497819 
780.000000	 84.173205 
779.000000	 83.941580 
778.000000	 83.829143 
777.000000	 83.828565 
776.000000	 83.930611 
775.000000	 84.134489 
774.000000	 84.419887 
773.000000	 84.741663 
772.000000	 85.065833 
771.000000	 85.384855 
770.000000	 85.689466 
769.000000	 85.955678 
768.000000	 86.171169 
767.000000	 86.346747 
766.000000	 86.489856 
765.000000	 86.593286 
764.000000	 86.662088 
763.000000	 86.724763 
762.000000	 86.803234 
761.000000	 86.894699 
760.000000	 86.994235 
759.000000	 87.109634 
758.000000	 87.241553 
757.000000	 87.375529 
756.000000	 87.508168 
755.000000	 87.656734 
754.000000	 87.828111 
753.000000	 88.001165 
752.000000	 88.154288 
751.000000	 88.290093 
750.000000	 88.421832 
749.000000	 88.556893 
748.000000	 88.704345 
747.000000	 88.875988 
746.000000	 89.067665 
745.000000	 89.260478 
744.000000	 89.451606 
743.000000	 89.662815 
742.000000	 89.908352 
741.000000	 90.177116 
740.000000	 90.456281 
739.000000	 90.747917 
738.000000	 91.049904 
737.000000	 91.342811 
736.000000	 91.609514 
735.000000	 91.850087 
734.000000	 92.067837 
733.000000	 92.259272 
732.000000	 92.425508 
731.000000	 92.574070 
730.000000	 92.701895 
729.000000	 92.795197 
728.000000	 92.855091 
727.000000	 92.903993 
726.000000	 92.960197 
725.000000	 93.028757 
724.000000	 93.119839 
723.000000	 93.248215 
722.000000	 93.407546 
721.000000	 93.571218 
720.000000	 93.727376 
719.000000	 93.887204 
718.000000	 94.052234 
717.000000	 94.206378 
716.000000	 94.346792 
715.000000	 94.489378 
714.000000	 94.633027 
713.000000	 94.749665 
712.000000	 94.826327 
711.000000	 94.886471 
710.000000	 94.950850 
709.000000	 95.006799 
708.000000	 95.035189 
707.000000	 95.041578 
706.000000	 95.036380 
705.000000	 95.009731 
704.000000	 94.947942 
703.000000	 94.848218 
702.000000	 94.696564 
701.000000	 94.454284 
700.000000	 94.089321 
699.000000	 93.610837 
698.000000	 93.060608 
697.000000	 92.497134 
696.000000	 92.003830 
695.000000	 91.674900 
694.000000	 91.562740 
693.000000	 91.646825 
692.000000	 91.863603 
691.000000	 92.154078 
690.000000	 92.472486 
689.000000	 92.779871 
688.000000	 93.056673 
687.000000	 93.306294 
686.000000	 93.532382 
685.000000	 93.727624 
684.000000	 93.893408 
683.000000	 94.048484 
682.000000	 94.204669 
681.000000	 94.355924 
680.000000	 94.500353 
679.000000	 94.651820 
678.000000	 94.815766 
677.000000	 94.977399 
676.000000	 95.136546 
675.000000	 95.304076 
674.000000	 95.466243 
673.000000	 95.591157 
672.000000	 95.683474 
671.000000	 95.799481 
670.000000	 96.008554 
669.000000	 96.340191 
668.000000	 96.662345 
667.000000	 96.777783 
666.000000	 96.767436 
665.000000	 96.756147 
664.000000	 96.764080 
663.000000	 96.804782 
662.000000	 96.888116 
661.000000	 96.989614 
660.000000	 97.089236 
659.000000	 97.195231 
658.000000	 97.301609 
657.000000	 97.364744 
656.000000	 97.368812 
655.000000	 97.347831 
654.000000	 97.323189 
653.000000	 97.271173 
652.000000	 97.187572 
651.000000	 97.129851 
650.000000	 97.148052 

