4000.000000	97.548300 
3999.000000	97.547835 
3998.000000	97.546016 
3997.000000	97.543415 
3996.000000	97.541170 
3995.000000	97.540065 
3994.000000	97.540228 
3993.000000	97.541135 
3992.000000	97.541991 
3991.000000	97.542256 
3990.000000	97.541848 
3989.000000	97.541047 
3988.000000	97.540219 
3987.000000	97.539632 
3986.000000	97.539442 
3985.000000	97.539657 
3984.000000	97.540000 
3983.000000	97.540017 
3982.000000	97.539530 
3981.000000	97.538871 
3980.000000	97.538476 
3979.000000	97.538386 
3978.000000	97.538331 
3977.000000	97.538100 
3976.000000	97.537573 
3975.000000	97.536523 
3974.000000	97.534717 
3973.000000	97.532235 
3972.000000	97.529514 
3971.000000	97.527123 
3970.000000	97.525544 
3969.000000	97.525148 
3968.000000	97.526120 
3967.000000	97.528205 
3966.000000	97.530569 
3965.000000	97.532091 
3964.000000	97.531908 
3963.000000	97.529908 
3962.000000	97.526979 
3961.000000	97.524501 
3960.000000	97.523273 
3959.000000	97.523083 
3958.000000	97.523140 
3957.000000	97.522788 
3956.000000	97.521753 
3955.000000	97.519945 
3954.000000	97.517490 
3953.000000	97.514852 
3952.000000	97.512707 
3951.000000	97.511477 
3950.000000	97.510931 
3949.000000	97.510390 
3948.000000	97.509208 
3947.000000	97.507236 
3946.000000	97.505075 
3945.000000	97.503741 
3944.000000	97.503855 
3943.000000	97.504975 
3942.000000	97.506172 
3941.000000	97.507124 
3940.000000	97.508142 
3939.000000	97.509369 
3938.000000	97.510312 
3937.000000	97.510262 
3936.000000	97.508970 
3935.000000	97.506750 
3934.000000	97.504293 
3933.000000	97.502249 
3932.000000	97.500933 
3931.000000	97.500165 
3930.000000	97.499618 
3929.000000	97.499359 
3928.000000	97.499575 
3927.000000	97.500094 
3926.000000	97.500411 
3925.000000	97.500108 
3924.000000	97.499248 
3923.000000	97.498210 
3922.000000	97.497301 
3921.000000	97.496749 
3920.000000	97.496717 
3919.000000	97.497188 
3918.000000	97.497828 
3917.000000	97.498145 
3916.000000	97.497897 
3915.000000	97.497231 
3914.000000	97.496488 
3913.000000	97.495880 
3912.000000	97.495402 
3911.000000	97.494977 
3910.000000	97.494529 
3909.000000	97.494043 
3908.000000	97.493551 
3907.000000	97.493050 
3906.000000	97.492492 
3905.000000	97.491813 
3904.000000	97.491018 
3903.000000	97.490198 
3902.000000	97.489465 
3901.000000	97.488874 
3900.000000	97.488399 
3899.000000	97.487961 
3898.000000	97.487493 
3897.000000	97.486978 
3896.000000	97.486432 
3895.000000	97.485872 
3894.000000	97.485304 
3893.000000	97.484727 
3892.000000	97.484132 
3891.000000	97.483510 
3890.000000	97.482857 
3889.000000	97.482178 
3888.000000	97.481491 
3887.000000	97.480809 
3886.000000	97.480138 
3885.000000	97.479471 
3884.000000	97.478791 
3883.000000	97.478088 
3882.000000	97.477364 
3881.000000	97.476632 
3880.000000	97.475908 
3879.000000	97.475198 
3878.000000	97.474503 
3877.000000	97.473818 
3876.000000	97.473146 
3875.000000	97.472484 
3874.000000	97.471827 
3873.000000	97.471169 
3872.000000	97.470515 
3871.000000	97.469874 
3870.000000	97.469260 
3869.000000	97.468684 
3868.000000	97.468152 
3867.000000	97.467665 
3866.000000	97.467219 
3865.000000	97.466804 
3864.000000	97.466409 
3863.000000	97.466020 
3862.000000	97.465632 
3861.000000	97.465241 
3860.000000	97.464838 
3859.000000	97.464413 
3858.000000	97.463956 
3857.000000	97.463472 
3856.000000	97.462976 
3855.000000	97.462491 
3854.000000	97.462038 
3853.000000	97.461626 
3852.000000	97.461254 
3851.000000	97.460927 
3850.000000	97.460653 
3849.000000	97.460440 
3848.000000	97.460287 
3847.000000	97.460177 
3846.000000	97.460077 
3845.000000	97.459951 
3844.000000	97.459788 
3843.000000	97.459597 
3842.000000	97.459394 
3841.000000	97.459199 
3840.000000	97.459034 
3839.000000	97.458911 
3838.000000	97.458824 
3837.000000	97.458754 
3836.000000	97.458685 
3835.000000	97.458617 
3834.000000	97.458556 
3833.000000	97.458515 
3832.000000	97.458507 
3831.000000	97.458536 
3830.000000	97.458596 
3829.000000	97.458680 
3828.000000	97.458788 
3827.000000	97.458921 
3826.000000	97.459070 
3825.000000	97.459201 
3824.000000	97.459283 
3823.000000	97.459314 
3822.000000	97.459341 
3821.000000	97.459416 
3820.000000	97.459533 
3819.000000	97.459643 
3818.000000	97.459734 
3817.000000	97.459904 
3816.000000	97.460267 
3815.000000	97.460824 
3814.000000	97.461416 
3813.000000	97.461905 
3812.000000	97.462303 
3811.000000	97.462737 
3810.000000	97.463258 
3809.000000	97.463753 
3808.000000	97.464115 
3807.000000	97.464387 
3806.000000	97.464581 
3805.000000	97.464475 
3804.000000	97.463862 
3803.000000	97.463178 
3802.000000	97.463299 
3801.000000	97.464443 
3800.000000	97.465680 
3799.000000	97.465985 
3798.000000	97.465456 
3797.000000	97.465274 
3796.000000	97.466386 
3795.000000	97.468435 
3794.000000	97.470246 
3793.000000	97.471268 
3792.000000	97.472002 
3791.000000	97.473199 
3790.000000	97.474752 
3789.000000	97.475789 
3788.000000	97.475768 
3787.000000	97.475026 
3786.000000	97.474405 
3785.000000	97.474436 
3784.000000	97.474911 
3783.000000	97.475083 
3782.000000	97.474315 
3781.000000	97.472884 
3780.000000	97.472053 
3779.000000	97.472834 
3778.000000	97.474682 
3777.000000	97.476232 
3776.000000	97.476993 
3775.000000	97.477576 
3774.000000	97.478099 
3773.000000	97.477398 
3772.000000	97.474841 
3771.000000	97.471701 
3770.000000	97.469915 
3769.000000	97.469860 
3768.000000	97.470003 
3767.000000	97.468940 
3766.000000	97.467227 
3765.000000	97.466160 
3764.000000	97.465905 
3763.000000	97.465307 
3762.000000	97.463690 
3761.000000	97.461596 
3760.000000	97.459196 
3759.000000	97.456291 
3758.000000	97.452709 
3757.000000	97.448559 
3756.000000	97.443992 
3755.000000	97.438503 
3754.000000	97.431969 
3753.000000	97.425361 
3752.000000	97.419838 
3751.000000	97.415315 
3750.000000	97.410985 
3749.000000	97.407003 
3748.000000	97.403143 
3747.000000	97.398755 
3746.000000	97.395989 
3745.000000	97.398400 
3744.000000	97.407120 
3743.000000	97.416257 
3742.000000	97.417592 
3741.000000	97.410144 
3740.000000	97.400691 
3739.000000	97.397325 
3738.000000	97.402134 
3737.000000	97.410301 
3736.000000	97.417737 
3735.000000	97.424882 
3734.000000	97.432481 
3733.000000	97.438426 
3732.000000	97.441548 
3731.000000	97.443015 
3730.000000	97.442536 
3729.000000	97.438910 
3728.000000	97.434109 
3727.000000	97.432221 
3726.000000	97.434221 
3725.000000	97.436556 
3724.000000	97.436755 
3723.000000	97.436556 
3722.000000	97.438514 
3721.000000	97.442056 
3720.000000	97.443343 
3719.000000	97.440805 
3718.000000	97.436623 
3717.000000	97.432342 
3716.000000	97.426719 
3715.000000	97.416840 
3714.000000	97.402040 
3713.000000	97.385774 
3712.000000	97.372606 
3711.000000	97.364282 
3710.000000	97.358828 
3709.000000	97.353600 
3708.000000	97.347531 
3707.000000	97.339999 
3706.000000	97.330807 
3705.000000	97.321025 
3704.000000	97.312374 
3703.000000	97.304979 
3702.000000	97.295324 
3701.000000	97.279440 
3700.000000	97.257260 
3699.000000	97.233487 
3698.000000	97.214496 
3697.000000	97.203427 
3696.000000	97.198359 
3695.000000	97.194819 
3694.000000	97.190358 
3693.000000	97.186458 
3692.000000	97.185721 
3691.000000	97.187910 
3690.000000	97.189139 
3689.000000	97.186886 
3688.000000	97.183401 
3687.000000	97.180294 
3686.000000	97.175493 
3685.000000	97.167298 
3684.000000	97.156898 
3683.000000	97.147047 
3682.000000	97.138671 
3681.000000	97.129880 
3680.000000	97.117769 
3679.000000	97.099521 
3678.000000	97.074800 
3677.000000	97.047642 
3676.000000	97.023816 
3675.000000	97.005897 
3674.000000	96.989890 
3673.000000	96.970235 
3672.000000	96.947529 
3671.000000	96.929121 
3670.000000	96.918243 
3669.000000	96.908330 
3668.000000	96.892607 
3667.000000	96.871877 
3666.000000	96.852067 
3665.000000	96.837239 
3664.000000	96.825571 
3663.000000	96.812484 
3662.000000	96.794692 
3661.000000	96.771271 
3660.000000	96.743101 
3659.000000	96.711834 
3658.000000	96.680353 
3657.000000	96.651525 
3656.000000	96.626409 
3655.000000	96.604137 
3654.000000	96.582490 
3653.000000	96.559978 
3652.000000	96.536484 
3651.000000	96.511538 
3650.000000	96.483357 
3649.000000	96.452919 
3648.000000	96.426634 
3647.000000	96.409548 
3646.000000	96.400870 
3645.000000	96.397072 
3644.000000	96.395013 
3643.000000	96.391976 
3642.000000	96.384274 
3641.000000	96.368303 
3640.000000	96.344103 
3639.000000	96.315964 
3638.000000	96.289006 
3637.000000	96.265238 
3636.000000	96.243940 
3635.000000	96.224195 
3634.000000	96.205253 
3633.000000	96.185052 
3632.000000	96.160301 
3631.000000	96.129679 
3630.000000	96.096869 
3629.000000	96.068709 
3628.000000	96.049088 
3627.000000	96.037037 
3626.000000	96.030423 
3625.000000	96.029915 
3624.000000	96.036933 
3623.000000	96.049425 
3622.000000	96.061735 
3621.000000	96.067763 
3620.000000	96.063222 
3619.000000	96.048037 
3618.000000	96.028309 
3617.000000	96.013631 
3616.000000	96.012174 
3615.000000	96.026714 
3614.000000	96.052183 
3613.000000	96.078012 
3612.000000	96.095530 
3611.000000	96.102993 
3610.000000	96.104695 
3609.000000	96.106641 
3608.000000	96.112121 
3607.000000	96.121384 
3606.000000	96.133955 
3605.000000	96.150086 
3604.000000	96.169665 
3603.000000	96.190229 
3602.000000	96.207621 
3601.000000	96.219091 
3600.000000	96.224849 
3599.000000	96.227476 
3598.000000	96.230319 
3597.000000	96.235342 
3596.000000	96.242600 
3595.000000	96.249933 
3594.000000	96.254379 
3593.000000	96.255127 
3592.000000	96.254121 
3591.000000	96.254152 
3590.000000	96.257273 
3589.000000	96.263249 
3588.000000	96.268766 
3587.000000	96.270067 
3586.000000	96.267544 
3585.000000	96.265761 
3584.000000	96.269269 
3583.000000	96.278548 
3582.000000	96.289852 
3581.000000	96.297857 
3580.000000	96.299375 
3579.000000	96.295152 
3578.000000	96.288776 
3577.000000	96.283986 
3576.000000	96.282103 
3575.000000	96.281936 
3574.000000	96.281234 
3573.000000	96.278604 
3572.000000	96.273955 
3571.000000	96.267392 
3570.000000	96.258568 
3569.000000	96.247665 
3568.000000	96.236392 
3567.000000	96.227243 
3566.000000	96.221645 
3565.000000	96.219272 
3564.000000	96.219201 
3563.000000	96.220930 
3562.000000	96.223730 
3561.000000	96.226011 
3560.000000	96.225954 
3559.000000	96.222887 
3558.000000	96.218115 
3557.000000	96.214163 
3556.000000	96.212809 
3555.000000	96.213852 
3554.000000	96.215636 
3553.000000	96.216139 
3552.000000	96.213898 
3551.000000	96.208574 
3550.000000	96.201493 
3549.000000	96.195550 
3548.000000	96.193368 
3547.000000	96.194637 
3546.000000	96.196081 
3545.000000	96.194796 
3544.000000	96.191211 
3543.000000	96.187925 
3542.000000	96.186693 
3541.000000	96.187541 
3540.000000	96.189821 
3539.000000	96.192781 
3538.000000	96.195312 
3537.000000	96.196161 
3536.000000	96.195003 
3535.000000	96.192687 
3534.000000	96.190426 
3533.000000	96.188950 
3532.000000	96.188355 
3531.000000	96.188413 
3530.000000	96.188690 
3529.000000	96.188617 
3528.000000	96.187779 
3527.000000	96.186237 
3526.000000	96.184567 
3525.000000	96.183493 
3524.000000	96.183379 
3523.000000	96.183991 
3522.000000	96.184703 
3521.000000	96.184971 
3520.000000	96.184688 
3519.000000	96.184040 
3518.000000	96.183182 
3517.000000	96.182093 
3516.000000	96.180847 
3515.000000	96.179858 
3514.000000	96.179612 
3513.000000	96.180166 
3512.000000	96.180984 
3511.000000	96.181300 
3510.000000	96.180737 
3509.000000	96.179615 
3508.000000	96.178688 
3507.000000	96.178548 
3506.000000	96.179277 
3505.000000	96.180433 
3504.000000	96.181311 
3503.000000	96.181412 
3502.000000	96.180844 
3501.000000	96.180274 
3500.000000	96.180360 
3499.000000	96.181172 
3498.000000	96.182076 
3497.000000	96.182198 
3496.000000	96.181100 
3495.000000	96.179183 
3494.000000	96.177475 
3493.000000	96.176793 
3492.000000	96.177034 
3491.000000	96.177294 
3490.000000	96.176836 
3489.000000	96.175800 
3488.000000	96.174721 
3487.000000	96.173626 
3486.000000	96.172102 
3485.000000	96.170155 
3484.000000	96.168380 
3483.000000	96.167150 
3482.000000	96.166084 
3481.000000	96.164650 
3480.000000	96.162958 
3479.000000	96.161518 
3478.000000	96.160350 
3477.000000	96.158735 
3476.000000	96.155897 
3475.000000	96.151863 
3474.000000	96.147669 
3473.000000	96.144650 
3472.000000	96.143371 
3471.000000	96.143181 
3470.000000	96.142664 
3469.000000	96.140816 
3468.000000	96.137756 
3467.000000	96.134399 
3466.000000	96.131536 
3465.000000	96.129219 
3464.000000	96.126936 
3463.000000	96.124153 
3462.000000	96.120743 
3461.000000	96.117022 
3460.000000	96.113443 
3459.000000	96.110225 
3458.000000	96.107238 
3457.000000	96.104196 
3456.000000	96.100929 
3455.000000	96.097502 
3454.000000	96.094189 
3453.000000	96.091344 
3452.000000	96.089165 
3451.000000	96.087486 
3450.000000	96.085714 
3449.000000	96.083146 
3448.000000	96.079428 
3447.000000	96.074747 
3446.000000	96.069727 
3445.000000	96.065107 
3444.000000	96.061378 
3443.000000	96.058572 
3442.000000	96.056198 
3441.000000	96.053492 
3440.000000	96.050028 
3439.000000	96.046018 
3438.000000	96.042005 
3437.000000	96.038285 
3436.000000	96.034805 
3435.000000	96.031569 
3434.000000	96.028866 
3433.000000	96.026892 
3432.000000	96.025315 
3431.000000	96.023534 
3430.000000	96.021256 
3429.000000	96.018605 
3428.000000	96.015560 
3427.000000	96.011665 
3426.000000	96.006665 
3425.000000	96.001260 
3424.000000	95.996778 
3423.000000	95.993963 
3422.000000	95.992333 
3421.000000	95.990933 
3420.000000	95.989410 
3419.000000	95.987938 
3418.000000	95.986445 
3417.000000	95.984593 
3416.000000	95.982479 
3415.000000	95.980649 
3414.000000	95.979147 
3413.000000	95.977062 
3412.000000	95.973591 
3411.000000	95.969345 
3410.000000	95.966108 
3409.000000	95.965186 
3408.000000	95.966193 
3407.000000	95.967364 
3406.000000	95.966933 
3405.000000	95.964393 
3404.000000	95.960735 
3403.000000	95.957479 
3402.000000	95.955440 
3401.000000	95.954409 
3400.000000	95.953892 
3399.000000	95.953789 
3398.000000	95.954171 
3397.000000	95.954847 
3396.000000	95.955603 
3395.000000	95.956644 
3394.000000	95.958202 
3393.000000	95.959729 
3392.000000	95.959990 
3391.000000	95.958287 
3390.000000	95.955441 
3389.000000	95.953378 
3388.000000	95.953668 
3387.000000	95.956455 
3386.000000	95.960345 
3385.000000	95.963161 
3384.000000	95.963380 
3383.000000	95.961411 
3382.000000	95.959638 
3381.000000	95.960551 
3380.000000	95.964545 
3379.000000	95.969634 
3378.000000	95.973475 
3377.000000	95.975624 
3376.000000	95.977324 
3375.000000	95.979526 
3374.000000	95.981841 
3373.000000	95.983541 
3372.000000	95.984934 
3371.000000	95.987194 
3370.000000	95.990943 
3369.000000	95.995363 
3368.000000	95.998779 
3367.000000	96.000031 
3366.000000	95.999362 
3365.000000	95.998252 
3364.000000	95.998297 
3363.000000	96.000030 
3362.000000	96.002730 
3361.000000	96.005373 
3360.000000	96.007783 
3359.000000	96.010749 
3358.000000	96.015032 
3357.000000	96.020405 
3356.000000	96.025685 
3355.000000	96.029707 
3354.000000	96.032270 
3353.000000	96.034235 
3352.000000	96.036782 
3351.000000	96.040422 
3350.000000	96.044564 
3349.000000	96.047994 
3348.000000	96.049909 
3347.000000	96.050535 
3346.000000	96.050737 
3345.000000	96.051089 
3344.000000	96.051492 
3343.000000	96.051711 
3342.000000	96.052052 
3341.000000	96.053219 
3340.000000	96.055393 
3339.000000	96.057882 
3338.000000	96.059864 
3337.000000	96.061233 
3336.000000	96.062472 
3335.000000	96.063905 
3334.000000	96.065467 
3333.000000	96.067207 
3332.000000	96.069537 
3331.000000	96.072719 
3330.000000	96.076395 
3329.000000	96.079963 
3328.000000	96.083320 
3327.000000	96.086862 
3326.000000	96.090689 
3325.000000	96.094144 
3324.000000	96.096368 
3323.000000	96.097228 
3322.000000	96.097413 
3321.000000	96.097795 
3320.000000	96.098866 
3319.000000	96.100694 
3318.000000	96.103159 
3317.000000	96.105998 
3316.000000	96.108798 
3315.000000	96.111178 
3314.000000	96.113045 
3313.000000	96.114591 
3312.000000	96.116097 
3311.000000	96.117797 
3310.000000	96.119828 
3309.000000	96.122191 
3308.000000	96.124727 
3307.000000	96.127191 
3306.000000	96.129429 
3305.000000	96.131462 
3304.000000	96.133410 
3303.000000	96.135425 
3302.000000	96.137606 
3301.000000	96.139944 
3300.000000	96.142340 
3299.000000	96.144680 
3298.000000	96.146936 
3297.000000	96.149187 
3296.000000	96.151520 
3295.000000	96.153961 
3294.000000	96.156471 
3293.000000	96.159002 
3292.000000	96.161518 
3291.000000	96.164000 
3290.000000	96.166443 
3289.000000	96.168862 
3288.000000	96.171280 
3287.000000	96.173713 
3286.000000	96.176158 
3285.000000	96.178596 
3284.000000	96.181014 
3283.000000	96.183426 
3282.000000	96.185878 
3281.000000	96.188406 
3280.000000	96.191010 
3279.000000	96.193629 
3278.000000	96.196189 
3277.000000	96.198685 
3276.000000	96.201209 
3275.000000	96.203843 
3274.000000	96.206564 
3273.000000	96.209293 
3272.000000	96.212011 
3271.000000	96.214754 
3270.000000	96.217502 
3269.000000	96.220138 
3268.000000	96.222533 
3267.000000	96.224679 
3266.000000	96.226785 
3265.000000	96.229165 
3264.000000	96.231986 
3263.000000	96.235094 
3262.000000	96.238143 
3261.000000	96.240967 
3260.000000	96.243647 
3259.000000	96.246212 
3258.000000	96.248524 
3257.000000	96.250637 
3256.000000	96.253077 
3255.000000	96.256407 
3254.000000	96.260544 
3253.000000	96.264651 
3252.000000	96.267934 
3251.000000	96.270337 
3250.000000	96.272348 
3249.000000	96.274379 
3248.000000	96.276506 
3247.000000	96.278726 
3246.000000	96.281169 
3245.000000	96.283950 
3244.000000	96.286954 
3243.000000	96.289843 
3242.000000	96.292265 
3241.000000	96.294038 
3240.000000	96.295216 
3239.000000	96.296159 
3238.000000	96.297519 
3237.000000	96.299966 
3236.000000	96.303701 
3235.000000	96.308137 
3234.000000	96.312189 
3233.000000	96.315143 
3232.000000	96.317246 
3231.000000	96.319427 
3230.000000	96.322374 
3229.000000	96.325898 
3228.000000	96.329301 
3227.000000	96.332354 
3226.000000	96.335711 
3225.000000	96.340116 
3224.000000	96.345418 
3223.000000	96.350597 
3222.000000	96.354752 
3221.000000	96.357836 
3220.000000	96.360337 
3219.000000	96.362634 
3218.000000	96.364876 
3217.000000	96.367258 
3216.000000	96.370088 
3215.000000	96.373572 
3214.000000	96.377704 
3213.000000	96.382309 
3212.000000	96.387011 
3211.000000	96.391305 
3210.000000	96.394902 
3209.000000	96.398008 
3208.000000	96.401125 
3207.000000	96.404570 
3206.000000	96.408311 
3205.000000	96.412221 
3204.000000	96.416314 
3203.000000	96.420639 
3202.000000	96.425044 
3201.000000	96.429155 
3200.000000	96.432663 
3199.000000	96.435633 
3198.000000	96.438562 
3197.000000	96.441961 
3196.000000	96.445859 
3195.000000	96.449811 
3194.000000	96.453406 
3193.000000	96.456692 
3192.000000	96.460011 
3191.000000	96.463531 
3190.000000	96.467091 
3189.000000	96.470472 
3188.000000	96.473662 
3187.000000	96.476876 
3186.000000	96.480439 
3185.000000	96.484618 
3184.000000	96.489412 
3183.000000	96.494471 
3182.000000	96.499315 
3181.000000	96.503607 
3180.000000	96.507169 
3179.000000	96.509945 
3178.000000	96.512191 
3177.000000	96.514576 
3176.000000	96.517777 
3175.000000	96.521954 
3174.000000	96.526702 
3173.000000	96.531352 
3172.000000	96.535264 
3171.000000	96.538034 
3170.000000	96.539838 
3169.000000	96.541575 
3168.000000	96.544232 
3167.000000	96.547973 
3166.000000	96.552032 
3165.000000	96.555470 
3164.000000	96.557851 
3163.000000	96.559310 
3162.000000	96.560442 
3161.000000	96.562170 
3160.000000	96.565222 
3159.000000	96.569515 
3158.000000	96.574233 
3157.000000	96.578644 
3156.000000	96.582667 
3155.000000	96.586634 
3154.000000	96.590895 
3153.000000	96.595721 
3152.000000	96.601118 
3151.000000	96.606490 
3150.000000	96.610839 
3149.000000	96.613617 
3148.000000	96.615265 
3147.000000	96.616924 
3146.000000	96.619614 
3145.000000	96.623676 
3144.000000	96.628729 
3143.000000	96.633845 
3142.000000	96.638093 
3141.000000	96.641222 
3140.000000	96.643799 
3139.000000	96.646607 
3138.000000	96.649910 
3137.000000	96.653351 
3136.000000	96.656399 
3135.000000	96.658774 
3134.000000	96.660651 
3133.000000	96.662620 
3132.000000	96.665265 
3131.000000	96.668625 
3130.000000	96.672181 
3129.000000	96.675424 
3128.000000	96.678338 
3127.000000	96.681292 
3126.000000	96.684626 
3125.000000	96.688420 
3124.000000	96.692468 
3123.000000	96.696310 
3122.000000	96.699446 
3121.000000	96.701722 
3120.000000	96.703489 
3119.000000	96.705298 
3118.000000	96.707511 
3117.000000	96.710255 
3116.000000	96.713507 
3115.000000	96.717061 
3114.000000	96.720530 
3113.000000	96.723648 
3112.000000	96.726629 
3111.000000	96.730037 
3110.000000	96.734183 
3109.000000	96.738739 
3108.000000	96.742983 
3107.000000	96.746376 
3106.000000	96.748854 
3105.000000	96.750710 
3104.000000	96.752302 
3103.000000	96.753936 
3102.000000	96.755820 
3101.000000	96.757845 
3100.000000	96.759577 
3099.000000	96.760750 
3098.000000	96.761834 
3097.000000	96.763788 
3096.000000	96.767070 
3095.000000	96.771066 
3094.000000	96.774710 
3093.000000	96.777541 
3092.000000	96.779864 
3091.000000	96.782039 
3090.000000	96.784062 
3089.000000	96.785869 
3088.000000	96.787643 
3087.000000	96.789713 
3086.000000	96.792326 
3085.000000	96.795562 
3084.000000	96.799214 
3083.000000	96.802774 
3082.000000	96.805835 
3081.000000	96.808504 
3080.000000	96.811081 
3079.000000	96.813332 
3078.000000	96.814684 
3077.000000	96.815268 
3076.000000	96.816189 
3075.000000	96.818411 
3074.000000	96.821749 
3073.000000	96.825200 
3072.000000	96.827933 
3071.000000	96.829644 
3070.000000	96.830360 
3069.000000	96.830518 
3068.000000	96.830983 
3067.000000	96.832376 
3066.000000	96.834414 
3065.000000	96.836283 
3064.000000	96.837480 
3063.000000	96.837918 
3062.000000	96.837602 
3061.000000	96.836858 
3060.000000	96.836686 
3059.000000	96.838164 
3058.000000	96.841485 
3057.000000	96.845916 
3056.000000	96.850434 
3055.000000	96.853926 
3054.000000	96.855225 
3053.000000	96.854045 
3052.000000	96.852001 
3051.000000	96.851593 
3050.000000	96.853654 
3049.000000	96.856623 
3048.000000	96.858646 
3047.000000	96.859625 
3046.000000	96.860582 
3045.000000	96.861875 
3044.000000	96.863032 
3043.000000	96.864007 
3042.000000	96.865476 
3041.000000	96.867571 
3040.000000	96.869017 
3039.000000	96.868267 
3038.000000	96.865416 
3037.000000	96.862527 
3036.000000	96.861642 
3035.000000	96.862605 
3034.000000	96.863365 
3033.000000	96.862385 
3032.000000	96.860087 
3031.000000	96.857830 
3030.000000	96.856258 
3029.000000	96.855201 
3028.000000	96.854384 
3027.000000	96.853320 
3026.000000	96.851103 
3025.000000	96.847390 
3024.000000	96.843348 
3023.000000	96.840532 
3022.000000	96.838970 
3021.000000	96.837601 
3020.000000	96.836502 
3019.000000	96.837013 
3018.000000	96.839121 
3017.000000	96.840192 
3016.000000	96.837638 
3015.000000	96.832027 
3014.000000	96.826588 
3013.000000	96.823836 
3012.000000	96.823315 
3011.000000	96.822475 
3010.000000	96.819177 
3009.000000	96.813362 
3008.000000	96.806745 
3007.000000	96.801051 
3006.000000	96.796500 
3005.000000	96.792180 
3004.000000	96.787707 
3003.000000	96.783926 
3002.000000	96.781902 
3001.000000	96.781728 
3000.000000	96.782485 
2999.000000	96.782801 
2998.000000	96.781243 
2997.000000	96.776869 
2996.000000	96.770121 
2995.000000	96.762932 
2994.000000	96.757337 
2993.000000	96.753821 
2992.000000	96.751079 
2991.000000	96.747286 
2990.000000	96.741545 
2989.000000	96.734460 
2988.000000	96.727720 
2987.000000	96.723146 
2986.000000	96.721888 
2985.000000	96.724283 
2984.000000	96.730045 
2983.000000	96.738260 
2982.000000	96.747340 
2981.000000	96.755385 
2980.000000	96.760765 
2979.000000	96.762407 
2978.000000	96.760030 
2977.000000	96.754782 
2976.000000	96.749444 
2975.000000	96.747033 
2974.000000	96.748701 
2973.000000	96.753275 
2972.000000	96.758737 
2971.000000	96.763715 
2970.000000	96.767438 
2969.000000	96.769250 
2968.000000	96.768940 
2967.000000	96.767234 
2966.000000	96.765409 
2965.000000	96.764562 
2964.000000	96.765436 
2963.000000	96.768425 
2962.000000	96.773144 
2961.000000	96.778272 
2960.000000	96.782499 
2959.000000	96.785724 
2958.000000	96.789014 
2957.000000	96.793414 
2956.000000	96.798960 
2955.000000	96.804641 
2954.000000	96.809127 
2953.000000	96.812022 
2952.000000	96.814826 
2951.000000	96.820169 
2950.000000	96.829191 
2949.000000	96.839703 
2948.000000	96.847728 
2947.000000	96.850995 
2946.000000	96.850315 
2945.000000	96.847890 
2944.000000	96.845380 
2943.000000	96.843909 
2942.000000	96.844639 
2941.000000	96.847930 
2940.000000	96.852311 
2939.000000	96.855536 
2938.000000	96.856777 
2937.000000	96.856968 
2936.000000	96.857086 
2935.000000	96.857080 
2934.000000	96.856726 
2933.000000	96.856295 
2932.000000	96.855658 
2931.000000	96.853728 
2930.000000	96.849823 
2929.000000	96.845102 
2928.000000	96.841720 
2927.000000	96.840634 
2926.000000	96.841029 
2925.000000	96.841730 
2924.000000	96.842388 
2923.000000	96.843184 
2922.000000	96.844202 
2921.000000	96.845535 
2920.000000	96.847631 
2919.000000	96.851020 
2918.000000	96.855652 
2917.000000	96.860431 
2916.000000	96.863483 
2915.000000	96.863417 
2914.000000	96.860866 
2913.000000	96.858535 
2912.000000	96.858945 
2911.000000	96.861947 
2910.000000	96.864993 
2909.000000	96.865962 
2908.000000	96.865268 
2907.000000	96.864918 
2906.000000	96.866165 
2905.000000	96.868514 
2904.000000	96.870657 
2903.000000	96.871659 
2902.000000	96.871929 
2901.000000	96.872734 
2900.000000	96.875325 
2899.000000	96.880166 
2898.000000	96.886681 
2897.000000	96.893784 
2896.000000	96.900161 
2895.000000	96.904442 
2894.000000	96.906024 
2893.000000	96.906047 
2892.000000	96.906899 
2891.000000	96.909967 
2890.000000	96.914284 
2889.000000	96.917974 
2888.000000	96.920572 
2887.000000	96.923069 
2886.000000	96.926003 
2885.000000	96.928712 
2884.000000	96.930728 
2883.000000	96.932760 
2882.000000	96.935623 
2881.000000	96.938988 
2880.000000	96.942035 
2879.000000	96.944943 
2878.000000	96.948793 
2877.000000	96.954049 
2876.000000	96.959891 
2875.000000	96.965151 
2874.000000	96.969376 
2873.000000	96.972716 
2872.000000	96.975393 
2871.000000	96.977658 
2870.000000	96.979932 
2869.000000	96.982597 
2868.000000	96.985670 
2867.000000	96.988895 
2866.000000	96.992122 
2865.000000	96.995390 
2864.000000	96.998748 
2863.000000	97.002187 
2862.000000	97.005720 
2861.000000	97.009332 
2860.000000	97.012881 
2859.000000	97.016217 
2858.000000	97.019436 
2857.000000	97.022881 
2856.000000	97.026801 
2855.000000	97.031080 
2854.000000	97.035288 
2853.000000	97.039023 
2852.000000	97.042181 
2851.000000	97.044960 
2850.000000	97.047731 
2849.000000	97.050836 
2848.000000	97.054410 
2847.000000	97.058300 
2846.000000	97.062146 
2845.000000	97.065642 
2844.000000	97.068749 
2843.000000	97.071710 
2842.000000	97.074865 
2841.000000	97.078383 
2840.000000	97.082072 
2839.000000	97.085460 
2838.000000	97.088186 
2837.000000	97.090344 
2836.000000	97.092469 
2835.000000	97.095112 
2834.000000	97.098463 
2833.000000	97.102342 
2832.000000	97.106345 
2831.000000	97.109969 
2830.000000	97.112762 
2829.000000	97.114580 
2828.000000	97.115811 
2827.000000	97.117266 
2826.000000	97.119641 
2825.000000	97.123061 
2824.000000	97.126987 
2823.000000	97.130518 
2822.000000	97.133006 
2821.000000	97.134499 
2820.000000	97.135694 
2819.000000	97.137342 
2818.000000	97.139581 
2817.000000	97.141887 
2816.000000	97.143699 
2815.000000	97.145000 
2814.000000	97.146189 
2813.000000	97.147443 
2812.000000	97.148445 
2811.000000	97.148953 
2810.000000	97.149445 
2809.000000	97.150812 
2808.000000	97.153331 
2807.000000	97.156346 
2806.000000	97.159108 
2805.000000	97.161659 
2804.000000	97.164491 
2803.000000	97.167590 
2802.000000	97.170376 
2801.000000	97.172667 
2800.000000	97.175083 
2799.000000	97.178108 
2798.000000	97.181125 
2797.000000	97.183010 
2796.000000	97.183581 
2795.000000	97.183984 
2794.000000	97.185501 
2793.000000	97.188223 
2792.000000	97.191159 
2791.000000	97.193317 
2790.000000	97.194365 
2789.000000	97.194425 
2788.000000	97.193838 
2787.000000	97.193222 
2786.000000	97.193333 
2785.000000	97.194540 
2784.000000	97.196484 
2783.000000	97.198415 
2782.000000	97.199937 
2781.000000	97.201323 
2780.000000	97.203088 
2779.000000	97.205373 
2778.000000	97.207749 
2777.000000	97.209556 
2776.000000	97.210452 
2775.000000	97.210700 
2774.000000	97.210928 
2773.000000	97.211546 
2772.000000	97.212467 
2771.000000	97.213433 
2770.000000	97.214470 
2769.000000	97.215859 
2768.000000	97.217671 
2767.000000	97.219548 
2766.000000	97.221033 
2765.000000	97.222018 
2764.000000	97.222792 
2763.000000	97.223710 
2762.000000	97.224862 
2761.000000	97.226080 
2760.000000	97.227202 
2759.000000	97.228276 
2758.000000	97.229441 
2757.000000	97.230694 
2756.000000	97.231877 
2755.000000	97.232909 
2754.000000	97.233939 
2753.000000	97.235180 
2752.000000	97.236644 
2751.000000	97.238145 
2750.000000	97.239529 
2749.000000	97.240820 
2748.000000	97.242061 
2747.000000	97.243136 
2746.000000	97.243886 
2745.000000	97.244346 
2744.000000	97.244797 
2743.000000	97.245537 
2742.000000	97.246649 
2741.000000	97.248004 
2740.000000	97.249390 
2739.000000	97.250637 
2738.000000	97.251670 
2737.000000	97.252507 
2736.000000	97.253235 
2735.000000	97.253967 
2734.000000	97.254787 
2733.000000	97.255708 
2732.000000	97.256672 
2731.000000	97.257615 
2730.000000	97.258563 
2729.000000	97.259617 
2728.000000	97.260796 
2727.000000	97.261912 
2726.000000	97.262721 
2725.000000	97.263201 
2724.000000	97.263581 
2723.000000	97.264086 
2722.000000	97.264734 
2721.000000	97.265421 
2720.000000	97.266097 
2719.000000	97.266784 
2718.000000	97.267461 
2717.000000	97.268034 
2716.000000	97.268438 
2715.000000	97.268739 
2714.000000	97.269099 
2713.000000	97.269620 
2712.000000	97.270245 
2711.000000	97.270827 
2710.000000	97.271285 
2709.000000	97.271683 
2708.000000	97.272137 
2707.000000	97.272702 
2706.000000	97.273353 
2705.000000	97.274033 
2704.000000	97.274672 
2703.000000	97.275201 
2702.000000	97.275601 
2701.000000	97.275965 
2700.000000	97.276439 
2699.000000	97.277080 
2698.000000	97.277780 
2697.000000	97.278328 
2696.000000	97.278602 
2695.000000	97.278646 
2694.000000	97.278648 
2693.000000	97.278779 
2692.000000	97.279061 
2691.000000	97.279391 
2690.000000	97.279650 
2689.000000	97.279810 
2688.000000	97.279897 
2687.000000	97.279913 
2686.000000	97.279861 
2685.000000	97.279817 
2684.000000	97.279888 
2683.000000	97.280091 
2682.000000	97.280314 
2681.000000	97.280424 
2680.000000	97.280400 
2679.000000	97.280309 
2678.000000	97.280192 
2677.000000	97.280080 
2676.000000	97.280032 
2675.000000	97.280030 
2674.000000	97.279909 
2673.000000	97.279565 
2672.000000	97.279161 
2671.000000	97.278946 
2670.000000	97.278891 
2669.000000	97.278708 
2668.000000	97.278216 
2667.000000	97.277487 
2666.000000	97.276653 
2665.000000	97.275761 
2664.000000	97.274899 
2663.000000	97.274299 
2662.000000	97.274140 
2661.000000	97.274291 
2660.000000	97.274319 
2659.000000	97.273858 
2658.000000	97.272891 
2657.000000	97.271723 
2656.000000	97.270734 
2655.000000	97.270090 
2654.000000	97.269672 
2653.000000	97.269201 
2652.000000	97.268493 
2651.000000	97.267634 
2650.000000	97.266889 
2649.000000	97.266469 
2648.000000	97.266353 
2647.000000	97.266276 
2646.000000	97.265831 
2645.000000	97.264684 
2644.000000	97.262824 
2643.000000	97.260717 
2642.000000	97.259110 
2641.000000	97.258524 
2640.000000	97.258878 
2639.000000	97.259620 
2638.000000	97.260217 
2637.000000	97.260506 
2636.000000	97.260614 
2635.000000	97.260736 
2634.000000	97.261003 
2633.000000	97.261356 
2632.000000	97.261432 
2631.000000	97.260754 
2630.000000	97.259270 
2629.000000	97.257543 
2628.000000	97.256260 
2627.000000	97.255614 
2626.000000	97.255419 
2625.000000	97.255662 
2624.000000	97.256556 
2623.000000	97.258031 
2622.000000	97.259487 
2621.000000	97.260198 
2620.000000	97.259738 
2619.000000	97.257992 
2618.000000	97.255128 
2617.000000	97.251797 
2616.000000	97.249058 
2615.000000	97.247702 
2614.000000	97.247745 
2613.000000	97.248626 
2612.000000	97.249740 
2611.000000	97.250787 
2610.000000	97.251707 
2609.000000	97.252457 
2608.000000	97.252866 
2607.000000	97.252740 
2606.000000	97.252220 
2605.000000	97.251891 
2604.000000	97.252252 
2603.000000	97.253126 
2602.000000	97.253879 
2601.000000	97.254179 
2600.000000	97.254154 
2599.000000	97.253808 
2598.000000	97.252880 
2597.000000	97.251439 
2596.000000	97.249989 
2595.000000	97.248789 
2594.000000	97.247615 
2593.000000	97.246500 
2592.000000	97.246192 
2591.000000	97.247251 
2590.000000	97.248983 
2589.000000	97.249866 
2588.000000	97.249239 
2587.000000	97.247876 
2586.000000	97.246956 
2585.000000	97.246867 
2584.000000	97.247291 
2583.000000	97.247765 
2582.000000	97.247796 
2581.000000	97.247002 
2580.000000	97.245588 
2579.000000	97.244386 
2578.000000	97.244038 
2577.000000	97.244295 
2576.000000	97.244379 
2575.000000	97.243913 
2574.000000	97.243232 
2573.000000	97.242878 
2572.000000	97.242966 
2571.000000	97.243056 
2570.000000	97.242638 
2569.000000	97.241809 
2568.000000	97.241356 
2567.000000	97.241819 
2566.000000	97.242603 
2565.000000	97.242490 
2564.000000	97.241068 
2563.000000	97.239181 
2562.000000	97.237829 
2561.000000	97.237312 
2560.000000	97.237750 
2559.000000	97.239703 
2558.000000	97.243416 
2557.000000	97.247777 
2556.000000	97.250943 
2555.000000	97.252157 
2554.000000	97.252269 
2553.000000	97.252339 
2552.000000	97.252427 
2551.000000	97.252250 
2550.000000	97.252153 
2549.000000	97.252415 
2548.000000	97.252082 
2547.000000	97.249794 
2546.000000	97.245861 
2545.000000	97.242612 
2544.000000	97.241945 
2543.000000	97.243325 
2542.000000	97.244677 
2541.000000	97.244893 
2540.000000	97.244660 
2539.000000	97.244872 
2538.000000	97.245294 
2537.000000	97.245247 
2536.000000	97.244846 
2535.000000	97.244705 
2534.000000	97.244750 
2533.000000	97.244152 
2532.000000	97.242537 
2531.000000	97.240576 
2530.000000	97.239073 
2529.000000	97.237917 
2528.000000	97.236465 
2527.000000	97.234823 
2526.000000	97.234116 
2525.000000	97.235225 
2524.000000	97.237631 
2523.000000	97.239766 
2522.000000	97.240484 
2521.000000	97.239864 
2520.000000	97.238708 
2519.000000	97.237639 
2518.000000	97.236719 
2517.000000	97.235544 
2516.000000	97.233541 
2515.000000	97.230593 
2514.000000	97.227691 
2513.000000	97.226483 
2512.000000	97.227727 
2511.000000	97.230479 
2510.000000	97.233012 
2509.000000	97.234350 
2508.000000	97.234389 
2507.000000	97.233116 
2506.000000	97.230797 
2505.000000	97.228806 
2504.000000	97.228946 
2503.000000	97.231470 
2502.000000	97.234541 
2501.000000	97.236179 
2500.000000	97.236354 
2499.000000	97.236378 
2498.000000	97.236990 
2497.000000	97.237947 
2496.000000	97.239127 
2495.000000	97.240929 
2494.000000	97.243404 
2493.000000	97.245796 
2492.000000	97.247390 
2491.000000	97.248436 
2490.000000	97.249809 
2489.000000	97.251841 
2488.000000	97.253767 
2487.000000	97.254447 
2486.000000	97.253517 
2485.000000	97.251803 
2484.000000	97.250696 
2483.000000	97.251188 
2482.000000	97.253478 
2481.000000	97.257058 
2480.000000	97.260845 
2479.000000	97.263535 
2478.000000	97.264465 
2477.000000	97.264183 
2476.000000	97.263752 
2475.000000	97.263483 
2474.000000	97.262860 
2473.000000	97.261680 
2472.000000	97.260523 
2471.000000	97.259871 
2470.000000	97.259504 
2469.000000	97.259136 
2468.000000	97.258970 
2467.000000	97.259111 
2466.000000	97.259061 
2465.000000	97.258518 
2464.000000	97.258341 
2463.000000	97.259902 
2462.000000	97.263411 
2461.000000	97.267346 
2460.000000	97.269775 
2459.000000	97.269956 
2458.000000	97.268395 
2457.000000	97.265727 
2456.000000	97.261959 
2455.000000	97.257118 
2454.000000	97.252268 
2453.000000	97.249026 
2452.000000	97.248005 
2451.000000	97.248449 
2450.000000	97.249613 
2449.000000	97.251614 
2448.000000	97.254223 
2447.000000	97.255811 
2446.000000	97.254788 
2445.000000	97.251716 
2444.000000	97.248874 
2443.000000	97.247784 
2442.000000	97.248186 
2441.000000	97.249242 
2440.000000	97.250468 
2439.000000	97.251458 
2438.000000	97.251977 
2437.000000	97.252691 
2436.000000	97.254615 
2435.000000	97.257528 
2434.000000	97.259935 
2433.000000	97.260940 
2432.000000	97.261231 
2431.000000	97.261910 
2430.000000	97.263275 
2429.000000	97.265105 
2428.000000	97.267139 
2427.000000	97.268793 
2426.000000	97.269196 
2425.000000	97.268067 
2424.000000	97.266175 
2423.000000	97.264583 
2422.000000	97.263866 
2421.000000	97.264330 
2420.000000	97.266267 
2419.000000	97.269424 
2418.000000	97.272711 
2417.000000	97.275169 
2416.000000	97.276594 
2415.000000	97.277182 
2414.000000	97.277066 
2413.000000	97.276777 
2412.000000	97.277484 
2411.000000	97.279729 
2410.000000	97.282530 
2409.000000	97.284637 
2408.000000	97.286151 
2407.000000	97.287880 
2406.000000	97.289692 
2405.000000	97.290737 
2404.000000	97.290917 
2403.000000	97.290976 
2402.000000	97.291374 
2401.000000	97.292181 
2400.000000	97.293872 
2399.000000	97.297075 
2398.000000	97.301541 
2397.000000	97.306249 
2396.000000	97.310460 
2395.000000	97.313850 
2394.000000	97.315911 
2393.000000	97.316431 
2392.000000	97.316580 
2391.000000	97.318287 
2390.000000	97.322141 
2389.000000	97.326683 
2388.000000	97.329827 
2387.000000	97.330270 
2386.000000	97.327618 
2385.000000	97.322536 
2384.000000	97.317293 
2383.000000	97.315095 
2382.000000	97.318252 
2381.000000	97.327437 
2380.000000	97.342333 
2379.000000	97.361450 
2378.000000	97.380514 
2377.000000	97.393189 
2376.000000	97.395457 
2375.000000	97.388952 
2374.000000	97.379363 
2373.000000	97.370916 
2372.000000	97.364213 
2371.000000	97.359517 
2370.000000	97.358723 
2369.000000	97.362553 
2368.000000	97.367663 
2367.000000	97.368976 
2366.000000	97.365091 
2365.000000	97.360012 
2364.000000	97.358372 
2363.000000	97.359411 
2362.000000	97.359982 
2361.000000	97.360774 
2360.000000	97.363038 
2359.000000	97.365504 
2358.000000	97.364997 
2357.000000	97.361648 
2356.000000	97.359462 
2355.000000	97.360015 
2354.000000	97.364256 
2353.000000	97.371167 
2352.000000	97.379062 
2351.000000	97.385136 
2350.000000	97.383061 
2349.000000	97.370296 
2348.000000	97.349460 
2347.000000	97.330682 
2346.000000	97.320273 
2345.000000	97.314920 
2344.000000	97.311094 
2343.000000	97.307377 
2342.000000	97.309401 
2341.000000	97.319546 
2340.000000	97.334180 
2339.000000	97.346662 
2338.000000	97.352952 
2337.000000	97.353673 
2336.000000	97.350766 
2335.000000	97.344379 
2334.000000	97.335332 
2333.000000	97.324440 
2332.000000	97.313159 
2331.000000	97.302955 
2330.000000	97.290765 
2329.000000	97.275183 
2328.000000	97.252918 
2327.000000	97.227621 
2326.000000	97.205398 
2325.000000	97.190638 
2324.000000	97.187232 
2323.000000	97.193147 
2322.000000	97.204936 
2321.000000	97.213318 
2320.000000	97.213530 
2319.000000	97.208574 
2318.000000	97.205640 
2317.000000	97.208252 
2316.000000	97.213219 
2315.000000	97.216858 
2314.000000	97.217142 
2313.000000	97.215470 
2312.000000	97.213404 
2311.000000	97.212828 
2310.000000	97.213184 
2309.000000	97.211990 
2308.000000	97.207859 
2307.000000	97.203396 
2306.000000	97.202541 
2305.000000	97.204730 
2304.000000	97.206346 
2303.000000	97.205690 
2302.000000	97.205458 
2301.000000	97.208421 
2300.000000	97.213290 
2299.000000	97.216461 
2298.000000	97.215428 
2297.000000	97.211348 
2296.000000	97.207242 
2295.000000	97.206644 
2294.000000	97.211197 
2293.000000	97.219665 
2292.000000	97.228484 
2291.000000	97.234480 
2290.000000	97.237416 
2289.000000	97.239390 
2288.000000	97.242564 
2287.000000	97.246888 
2286.000000	97.250791 
2285.000000	97.253077 
2284.000000	97.254224 
2283.000000	97.255130 
2282.000000	97.255830 
2281.000000	97.255509 
2280.000000	97.253797 
2279.000000	97.251217 
2278.000000	97.248804 
2277.000000	97.247576 
2276.000000	97.248182 
2275.000000	97.250746 
2274.000000	97.254756 
2273.000000	97.259492 
2272.000000	97.264298 
2271.000000	97.268404 
2270.000000	97.270828 
2269.000000	97.271086 
2268.000000	97.269976 
2267.000000	97.269088 
2266.000000	97.269320 
2265.000000	97.270390 
2264.000000	97.271494 
2263.000000	97.271951 
2262.000000	97.271337 
2261.000000	97.269739 
2260.000000	97.267996 
2259.000000	97.267032 
2258.000000	97.267001 
2257.000000	97.267374 
2256.000000	97.267808 
2255.000000	97.268428 
2254.000000	97.269238 
2253.000000	97.269813 
2252.000000	97.269747 
2251.000000	97.269111 
2250.000000	97.268261 
2249.000000	97.267499 
2248.000000	97.266936 
2247.000000	97.266539 
2246.000000	97.266193 
2245.000000	97.265804 
2244.000000	97.265367 
2243.000000	97.264927 
2242.000000	97.264505 
2241.000000	97.264116 
2240.000000	97.263766 
2239.000000	97.263442 
2238.000000	97.263119 
2237.000000	97.262771 
2236.000000	97.262386 
2235.000000	97.261964 
2234.000000	97.261516 
2233.000000	97.261054 
2232.000000	97.260584 
2231.000000	97.260103 
2230.000000	97.259604 
2229.000000	97.259081 
2228.000000	97.258539 
2227.000000	97.257993 
2226.000000	97.257461 
2225.000000	97.256950 
2224.000000	97.256465 
2223.000000	97.256015 
2222.000000	97.255614 
2221.000000	97.255267 
2220.000000	97.254954 
2219.000000	97.254647 
2218.000000	97.254339 
2217.000000	97.254047 
2216.000000	97.253795 
2215.000000	97.253598 
2214.000000	97.253450 
2213.000000	97.253338 
2212.000000	97.253255 
2211.000000	97.253207 
2210.000000	97.253208 
2209.000000	97.253267 
2208.000000	97.253375 
2207.000000	97.253512 
2206.000000	97.253658 
2205.000000	97.253800 
2204.000000	97.253947 
2203.000000	97.254117 
2202.000000	97.254297 
2201.000000	97.254437 
2200.000000	97.254511 
2199.000000	97.254524 
2198.000000	97.254489 
2197.000000	97.254482 
2196.000000	97.254630 
2195.000000	97.254998 
2194.000000	97.255553 
2193.000000	97.256296 
2192.000000	97.257304 
2191.000000	97.258566 
2190.000000	97.259874 
2189.000000	97.260957 
2188.000000	97.261743 
2187.000000	97.262387 
2186.000000	97.263087 
2185.000000	97.263978 
2184.000000	97.265230 
2183.000000	97.267063 
2182.000000	97.269498 
2181.000000	97.272130 
2180.000000	97.274340 
2179.000000	97.275840 
2178.000000	97.276837 
2177.000000	97.277999 
2176.000000	97.279858 
2175.000000	97.282378 
2174.000000	97.285059 
2173.000000	97.287505 
2172.000000	97.289799 
2171.000000	97.292277 
2170.000000	97.295107 
2169.000000	97.298076 
2168.000000	97.300749 
2167.000000	97.302830 
2166.000000	97.304326 
2165.000000	97.305356 
2164.000000	97.305968 
2163.000000	97.306433 
2162.000000	97.307727 
2161.000000	97.311054 
2160.000000	97.316639 
2159.000000	97.323146 
2158.000000	97.328631 
2157.000000	97.332345 
2156.000000	97.334880 
2155.000000	97.337201 
2154.000000	97.339910 
2153.000000	97.343331 
2152.000000	97.347442 
2151.000000	97.351305 
2150.000000	97.353325 
2149.000000	97.352776 
2148.000000	97.350898 
2147.000000	97.350037 
2146.000000	97.351365 
2145.000000	97.354157 
2144.000000	97.357062 
2143.000000	97.359684 
2142.000000	97.362420 
2141.000000	97.365416 
2140.000000	97.368491 
2139.000000	97.371813 
2138.000000	97.375804 
2137.000000	97.380050 
2136.000000	97.382979 
2135.000000	97.383301 
2134.000000	97.381444 
2133.000000	97.379591 
2132.000000	97.380019 
2131.000000	97.383206 
2130.000000	97.387488 
2129.000000	97.390353 
2128.000000	97.390507 
2127.000000	97.388811 
2126.000000	97.387396 
2125.000000	97.387769 
2124.000000	97.389703 
2123.000000	97.391741 
2122.000000	97.392509 
2121.000000	97.391568 
2120.000000	97.389332 
2119.000000	97.386616 
2118.000000	97.384430 
2117.000000	97.383693 
2116.000000	97.384438 
2115.000000	97.385242 
2114.000000	97.384047 
2113.000000	97.380308 
2112.000000	97.376084 
2111.000000	97.374384 
2110.000000	97.376310 
2109.000000	97.380292 
2108.000000	97.383775 
2107.000000	97.385251 
2106.000000	97.384808 
2105.000000	97.383800 
2104.000000	97.384232 
2103.000000	97.387255 
2102.000000	97.391638 
2101.000000	97.394365 
2100.000000	97.393528 
2099.000000	97.390461 
2098.000000	97.388639 
2097.000000	97.390235 
2096.000000	97.394465 
2095.000000	97.398918 
2094.000000	97.401910 
2093.000000	97.403400 
2092.000000	97.404272 
2091.000000	97.405478 
2090.000000	97.407630 
2089.000000	97.410785 
2088.000000	97.414250 
2087.000000	97.416800 
2086.000000	97.417430 
2085.000000	97.416299 
2084.000000	97.414952 
2083.000000	97.415167 
2082.000000	97.417442 
2081.000000	97.420801 
2080.000000	97.424084 
2079.000000	97.427000 
2078.000000	97.429664 
2077.000000	97.431780 
2076.000000	97.432990 
2075.000000	97.433697 
2074.000000	97.434552 
2073.000000	97.435072 
2072.000000	97.433910 
2071.000000	97.430775 
2070.000000	97.427379 
2069.000000	97.426128 
2068.000000	97.428041 
2067.000000	97.432181 
2066.000000	97.436522 
2065.000000	97.439218 
2064.000000	97.439629 
2063.000000	97.438804 
2062.000000	97.438948 
2061.000000	97.441890 
2060.000000	97.447730 
2059.000000	97.454907 
2058.000000	97.461305 
2057.000000	97.465395 
2056.000000	97.466644 
2055.000000	97.465358 
2054.000000	97.462802 
2053.000000	97.461120 
2052.000000	97.462101 
2051.000000	97.465722 
2050.000000	97.470136 
2049.000000	97.473374 
2048.000000	97.475153 
2047.000000	97.476504 
2046.000000	97.478129 
2045.000000	97.480033 
2044.000000	97.482503 
2043.000000	97.486274 
2042.000000	97.491357 
2041.000000	97.496532 
2040.000000	97.500785 
2039.000000	97.504705 
2038.000000	97.509457 
2037.000000	97.514675 
2036.000000	97.518439 
2035.000000	97.519697 
2034.000000	97.520124 
2033.000000	97.522797 
2032.000000	97.528738 
2031.000000	97.535262 
2030.000000	97.538245 
2029.000000	97.536111 
2028.000000	97.531317 
2027.000000	97.527814 
2026.000000	97.527176 
2025.000000	97.528344 
2024.000000	97.530420 
2023.000000	97.534365 
2022.000000	97.541391 
2021.000000	97.550293 
2020.000000	97.557328 
2019.000000	97.559156 
2018.000000	97.555252 
2017.000000	97.548042 
2016.000000	97.541186 
2015.000000	97.536843 
2014.000000	97.534482 
2013.000000	97.532266 
2012.000000	97.529716 
2011.000000	97.528747 
2010.000000	97.531311 
2009.000000	97.536512 
2008.000000	97.540957 
2007.000000	97.542345 
2006.000000	97.541471 
2005.000000	97.540347 
2004.000000	97.539751 
2003.000000	97.539468 
2002.000000	97.539642 
2001.000000	97.540376 
2000.000000	97.540526 
1999.000000	97.538356 
1998.000000	97.533546 
1997.000000	97.528017 
1996.000000	97.524453 
1995.000000	97.524000 
1994.000000	97.525672 
1993.000000	97.527225 
1992.000000	97.526932 
1991.000000	97.525022 
1990.000000	97.523451 
1989.000000	97.523927 
1988.000000	97.526155 
1987.000000	97.528040 
1986.000000	97.527756 
1985.000000	97.525438 
1984.000000	97.522752 
1983.000000	97.521115 
1982.000000	97.520671 
1981.000000	97.520993 
1980.000000	97.522022 
1979.000000	97.523833 
1978.000000	97.525867 
1977.000000	97.527181 
1976.000000	97.527516 
1975.000000	97.527673 
1974.000000	97.528690 
1973.000000	97.530797 
1972.000000	97.533206 
1971.000000	97.534882 
1970.000000	97.535358 
1969.000000	97.534686 
1968.000000	97.532912 
1967.000000	97.530120 
1966.000000	97.527131 
1965.000000	97.525511 
1964.000000	97.526373 
1963.000000	97.529477 
1962.000000	97.533373 
1961.000000	97.536301 
1960.000000	97.537123 
1959.000000	97.535574 
1958.000000	97.532427 
1957.000000	97.529372 
1956.000000	97.527757 
1955.000000	97.527358 
1954.000000	97.526860 
1953.000000	97.525542 
1952.000000	97.523886 
1951.000000	97.522512 
1950.000000	97.521506 
1949.000000	97.520999 
1948.000000	97.521392 
1947.000000	97.522520 
1946.000000	97.523201 
1945.000000	97.522377 
1944.000000	97.520235 
1943.000000	97.517777 
1942.000000	97.515619 
1941.000000	97.513683 
1940.000000	97.511826 
1939.000000	97.509986 
1938.000000	97.508052 
1937.000000	97.506203 
1936.000000	97.505001 
1935.000000	97.504580 
1934.000000	97.504094 
1933.000000	97.502724 
1932.000000	97.500891 
1931.000000	97.499686 
1930.000000	97.499356 
1929.000000	97.498973 
1928.000000	97.497699 
1927.000000	97.495722 
1926.000000	97.493805 
1925.000000	97.492331 
1924.000000	97.490980 
1923.000000	97.489261 
1922.000000	97.487018 
1921.000000	97.484436 
1920.000000	97.481852 
1919.000000	97.479491 
1918.000000	97.477362 
1917.000000	97.475330 
1916.000000	97.473337 
1915.000000	97.471557 
1914.000000	97.470189 
1913.000000	97.469106 
1912.000000	97.467880 
1911.000000	97.466220 
1910.000000	97.464211 
1909.000000	97.462181 
1908.000000	97.460423 
1907.000000	97.458956 
1906.000000	97.457447 
1905.000000	97.455436 
1904.000000	97.452711 
1903.000000	97.449648 
1902.000000	97.447071 
1901.000000	97.445484 
1900.000000	97.444692 
1899.000000	97.444021 
1898.000000	97.442911 
1897.000000	97.441337 
1896.000000	97.439635 
1895.000000	97.437998 
1894.000000	97.436164 
1893.000000	97.433655 
1892.000000	97.430483 
1891.000000	97.427409 
1890.000000	97.425253 
1889.000000	97.424103 
1888.000000	97.423659 
1887.000000	97.424049 
1886.000000	97.425298 
1885.000000	97.426184 
1884.000000	97.424899 
1883.000000	97.421259 
1882.000000	97.417511 
1881.000000	97.416112 
1880.000000	97.417213 
1879.000000	97.418528 
1878.000000	97.417518 
1877.000000	97.414123 
1876.000000	97.411016 
1875.000000	97.410882 
1874.000000	97.413949 
1873.000000	97.418218 
1872.000000	97.421665 
1871.000000	97.423581 
1870.000000	97.423776 
1869.000000	97.422064 
1868.000000	97.419334 
1867.000000	97.417873 
1866.000000	97.418694 
1865.000000	97.419654 
1864.000000	97.418188 
1863.000000	97.414935 
1862.000000	97.412945 
1861.000000	97.413939 
1860.000000	97.417166 
1859.000000	97.421644 
1858.000000	97.427285 
1857.000000	97.433514 
1856.000000	97.439338 
1855.000000	97.444912 
1854.000000	97.450549 
1853.000000	97.454661 
1852.000000	97.455840 
1851.000000	97.455882 
1850.000000	97.457732 
1849.000000	97.461467 
1848.000000	97.464408 
1847.000000	97.465193 
1846.000000	97.465299 
1845.000000	97.466285 
1844.000000	97.467467 
1843.000000	97.467868 
1842.000000	97.468042 
1841.000000	97.468510 
1840.000000	97.469781 
1839.000000	97.472797 
1838.000000	97.477213 
1837.000000	97.480257 
1836.000000	97.479266 
1835.000000	97.475182 
1834.000000	97.471545 
1833.000000	97.470647 
1832.000000	97.472471 
1831.000000	97.475494 
1830.000000	97.477347 
1829.000000	97.476692 
1828.000000	97.474553 
1827.000000	97.472799 
1826.000000	97.472289 
1825.000000	97.472770 
1824.000000	97.473530 
1823.000000	97.474225 
1822.000000	97.475001 
1821.000000	97.475682 
1820.000000	97.475729 
1819.000000	97.475071 
1818.000000	97.474574 
1817.000000	97.474977 
1816.000000	97.475710 
1815.000000	97.475977 
1814.000000	97.476061 
1813.000000	97.476735 
1812.000000	97.477807 
1811.000000	97.478067 
1810.000000	97.477302 
1809.000000	97.476718 
1808.000000	97.476947 
1807.000000	97.477331 
1806.000000	97.477173 
1805.000000	97.476452 
1804.000000	97.475345 
1803.000000	97.473971 
1802.000000	97.472720 
1801.000000	97.472370 
1800.000000	97.473168 
1799.000000	97.474405 
1798.000000	97.475431 
1797.000000	97.476095 
1796.000000	97.476324 
1795.000000	97.476280 
1794.000000	97.476507 
1793.000000	97.477421 
1792.000000	97.478542 
1791.000000	97.479201 
1790.000000	97.479690 
1789.000000	97.480613 
1788.000000	97.482009 
1787.000000	97.483526 
1786.000000	97.484842 
1785.000000	97.485815 
1784.000000	97.486428 
1783.000000	97.486910 
1782.000000	97.487607 
1781.000000	97.488719 
1780.000000	97.490177 
1779.000000	97.491724 
1778.000000	97.493228 
1777.000000	97.494634 
1776.000000	97.495827 
1775.000000	97.496767 
1774.000000	97.497603 
1773.000000	97.498672 
1772.000000	97.500156 
1771.000000	97.501846 
1770.000000	97.503419 
1769.000000	97.504798 
1768.000000	97.506070 
1767.000000	97.507287 
1766.000000	97.508445 
1765.000000	97.509596 
1764.000000	97.510855 
1763.000000	97.512252 
1762.000000	97.513638 
1761.000000	97.514882 
1760.000000	97.516063 
1759.000000	97.517295 
1758.000000	97.518542 
1757.000000	97.519646 
1756.000000	97.520546 
1755.000000	97.521247 
1754.000000	97.521654 
1753.000000	97.521699 
1752.000000	97.521748 
1751.000000	97.522532 
1750.000000	97.524425 
1749.000000	97.526867 
1748.000000	97.528837 
1747.000000	97.529829 
1746.000000	97.529939 
1745.000000	97.529760 
1744.000000	97.530042 
1743.000000	97.530881 
1742.000000	97.531534 
1741.000000	97.531537 
1740.000000	97.531405 
1739.000000	97.531747 
1738.000000	97.532110 
1737.000000	97.531531 
1736.000000	97.529509 
1735.000000	97.526189 
1734.000000	97.521703 
1733.000000	97.517249 
1732.000000	97.515740 
1731.000000	97.518639 
1730.000000	97.524719 
1729.000000	97.530501 
1728.000000	97.533138 
1727.000000	97.532534 
1726.000000	97.529950 
1725.000000	97.526296 
1724.000000	97.522288 
1723.000000	97.519152 
1722.000000	97.518271 
1721.000000	97.519411 
1720.000000	97.520747 
1719.000000	97.520077 
1718.000000	97.516159 
1717.000000	97.510661 
1716.000000	97.505893 
1715.000000	97.502275 
1714.000000	97.500116 
1713.000000	97.499047 
1712.000000	97.497440 
1711.000000	97.494879 
1710.000000	97.492397 
1709.000000	97.490463 
1708.000000	97.488911 
1707.000000	97.487974 
1706.000000	97.487462 
1705.000000	97.484748 
1704.000000	97.476057 
1703.000000	97.461500 
1702.000000	97.445362 
1701.000000	97.434959 
1700.000000	97.431004 
1699.000000	97.426314 
1698.000000	97.420468 
1697.000000	97.415864 
1696.000000	97.410603 
1695.000000	97.402965 
1694.000000	97.396023 
1693.000000	97.391961 
1692.000000	97.388099 
1691.000000	97.381709 
1690.000000	97.372273 
1689.000000	97.360507 
1688.000000	97.347354 
1687.000000	97.334135 
1686.000000	97.323612 
1685.000000	97.319272 
1684.000000	97.316968 
1683.000000	97.310932 
1682.000000	97.304295 
1681.000000	97.299616 
1680.000000	97.297336 
1679.000000	97.296548 
1678.000000	97.295182 
1677.000000	97.291825 
1676.000000	97.286516 
1675.000000	97.279100 
1674.000000	97.269049 
1673.000000	97.258192 
1672.000000	97.249580 
1671.000000	97.245006 
1670.000000	97.243116 
1669.000000	97.239539 
1668.000000	97.233870 
1667.000000	97.229100 
1666.000000	97.224864 
1665.000000	97.219432 
1664.000000	97.213389 
1663.000000	97.208184 
1662.000000	97.202558 
1661.000000	97.194197 
1660.000000	97.184784 
1659.000000	97.177819 
1658.000000	97.174282 
1657.000000	97.170521 
1656.000000	97.164013 
1655.000000	97.155999 
1654.000000	97.150211 
1653.000000	97.137040 
1652.000000	97.113975 
1651.000000	97.100899 
1650.000000	97.097845 
1649.000000	97.095935 
1648.000000	97.093383 
1647.000000	97.090581 
1646.000000	97.085449 
1645.000000	97.078952 
1644.000000	97.073983 
1643.000000	97.071415 
1642.000000	97.070697 
1641.000000	97.070675 
1640.000000	97.069432 
1639.000000	97.064976 
1638.000000	97.057230 
1637.000000	97.049359 
1636.000000	97.044883 
1635.000000	97.044763 
1634.000000	97.048201 
1633.000000	97.051622 
1632.000000	97.050576 
1631.000000	97.046195 
1630.000000	97.043481 
1629.000000	97.044264 
1628.000000	97.046784 
1627.000000	97.050246 
1626.000000	97.054530 
1625.000000	97.057458 
1624.000000	97.057415 
1623.000000	97.056856 
1622.000000	97.059767 
1621.000000	97.065447 
1620.000000	97.070563 
1619.000000	97.074739 
1618.000000	97.081273 
1617.000000	97.090105 
1616.000000	97.097608 
1615.000000	97.106789 
1614.000000	97.120311 
1613.000000	97.133291 
1612.000000	97.141317 
1611.000000	97.145983 
1610.000000	97.151755 
1609.000000	97.160901 
1608.000000	97.173627 
1607.000000	97.189567 
1606.000000	97.205818 
1605.000000	97.218386 
1604.000000	97.226798 
1603.000000	97.233248 
1602.000000	97.239024 
1601.000000	97.244098 
1600.000000	97.249293 
1599.000000	97.256076 
1598.000000	97.263971 
1597.000000	97.271431 
1596.000000	97.278469 
1595.000000	97.286452 
1594.000000	97.295467 
1593.000000	97.303625 
1592.000000	97.309924 
1591.000000	97.315715 
1590.000000	97.322404 
1589.000000	97.329725 
1588.000000	97.337628 
1587.000000	97.347134 
1586.000000	97.357470 
1585.000000	97.365388 
1584.000000	97.370089 
1583.000000	97.374389 
1582.000000	97.379606 
1581.000000	97.384027 
1580.000000	97.386640 
1579.000000	97.389220 
1578.000000	97.394428 
1577.000000	97.403168 
1576.000000	97.412117 
1575.000000	97.419877 
1574.000000	97.428327 
1573.000000	97.436160 
1572.000000	97.442785 
1571.000000	97.450955 
1570.000000	97.459776 
1569.000000	97.462108 
1568.000000	97.458333 
1567.000000	97.455651 
1566.000000	97.456506 
1565.000000	97.458297 
1564.000000	97.459665 
1563.000000	97.458052 
1562.000000	97.451335 
1561.000000	97.438028 
1560.000000	97.427494 
1559.000000	97.426610 
1558.000000	97.427396 
1557.000000	97.432347 
1556.000000	97.441590 
1555.000000	97.450370 
1554.000000	97.453279 
1553.000000	97.451820 
1552.000000	97.449651 
1551.000000	97.448190 
1550.000000	97.445770 
1549.000000	97.442189 
1548.000000	97.438376 
1547.000000	97.434154 
1546.000000	97.426950 
1545.000000	97.415980 
1544.000000	97.404488 
1543.000000	97.395900 
1542.000000	97.391425 
1541.000000	97.390562 
1540.000000	97.385126 
1539.000000	97.371835 
1538.000000	97.360394 
1537.000000	97.353701 
1536.000000	97.347693 
1535.000000	97.342062 
1534.000000	97.339408 
1533.000000	97.338411 
1532.000000	97.334949 
1531.000000	97.327067 
1530.000000	97.316326 
1529.000000	97.304963 
1528.000000	97.293682 
1527.000000	97.282421 
1526.000000	97.271196 
1525.000000	97.260429 
1524.000000	97.250746 
1523.000000	97.242798 
1522.000000	97.236867 
1521.000000	97.230650 
1520.000000	97.221571 
1519.000000	97.210042 
1518.000000	97.197402 
1517.000000	97.185186 
1516.000000	97.174682 
1515.000000	97.166386 
1514.000000	97.159658 
1513.000000	97.153047 
1512.000000	97.144820 
1511.000000	97.133413 
1510.000000	97.119065 
1509.000000	97.103885 
1508.000000	97.091399 
1507.000000	97.082764 
1506.000000	97.075106 
1505.000000	97.066768 
1504.000000	97.058183 
1503.000000	97.049162 
1502.000000	97.039373 
1501.000000	97.029355 
1500.000000	97.019640 
1499.000000	97.010029 
1498.000000	96.999438 
1497.000000	96.987683 
1496.000000	96.976018 
1495.000000	96.965631 
1494.000000	96.956616 
1493.000000	96.948432 
1492.000000	96.940660 
1491.000000	96.932979 
1490.000000	96.924732 
1489.000000	96.915696 
1488.000000	96.905894 
1487.000000	96.895204 
1486.000000	96.884412 
1485.000000	96.873534 
1484.000000	96.862189 
1483.000000	96.851097 
1482.000000	96.841028 
1481.000000	96.831974 
1480.000000	96.822939 
1479.000000	96.813168 
1478.000000	96.802660 
1477.000000	96.791530 
1476.000000	96.778673 
1475.000000	96.762590 
1474.000000	96.744621 
1473.000000	96.730071 
1472.000000	96.723042 
1471.000000	96.720771 
1470.000000	96.718013 
1469.000000	96.712117 
1468.000000	96.702340 
1467.000000	96.688899 
1466.000000	96.674089 
1465.000000	96.661931 
1464.000000	96.654271 
1463.000000	96.647518 
1462.000000	96.637116 
1461.000000	96.622398 
1460.000000	96.605711 
1459.000000	96.589454 
1458.000000	96.572751 
1457.000000	96.555743 
1456.000000	96.544812 
1455.000000	96.541977 
1454.000000	96.539842 
1453.000000	96.534691 
1452.000000	96.528885 
1451.000000	96.525355 
1450.000000	96.523907 
1449.000000	96.524178 
1448.000000	96.525273 
1447.000000	96.524109 
1446.000000	96.518102 
1445.000000	96.509335 
1444.000000	96.502796 
1443.000000	96.499834 
1442.000000	96.497989 
1441.000000	96.494493 
1440.000000	96.488299 
1439.000000	96.478877 
1438.000000	96.466233 
1437.000000	96.454699 
1436.000000	96.450467 
1435.000000	96.451898 
1434.000000	96.451822 
1433.000000	96.448286 
1432.000000	96.444494 
1431.000000	96.444053 
1430.000000	96.446692 
1429.000000	96.450385 
1428.000000	96.454013 
1427.000000	96.457360 
1426.000000	96.460794 
1425.000000	96.465503 
1424.000000	96.473610 
1423.000000	96.482186 
1422.000000	96.485061 
1421.000000	96.482432 
1420.000000	96.482172 
1419.000000	96.487605 
1418.000000	96.492086 
1417.000000	96.495040 
1416.000000	96.503522 
1415.000000	96.518287 
1414.000000	96.531398 
1413.000000	96.536869 
1412.000000	96.538717 
1411.000000	96.544278 
1410.000000	96.553735 
1409.000000	96.563507 
1408.000000	96.573143 
1407.000000	96.584542 
1406.000000	96.598129 
1405.000000	96.613233 
1404.000000	96.630424 
1403.000000	96.647254 
1402.000000	96.659186 
1401.000000	96.667483 
1400.000000	96.679452 
1399.000000	96.698966 
1398.000000	96.719968 
1397.000000	96.735702 
1396.000000	96.748078 
1395.000000	96.763687 
1394.000000	96.784074 
1393.000000	96.806467 
1392.000000	96.830781 
1391.000000	96.856350 
1390.000000	96.879264 
1389.000000	96.896318 
1388.000000	96.908431 
1387.000000	96.919179 
1386.000000	96.930809 
1385.000000	96.944079 
1384.000000	96.959877 
1383.000000	96.977368 
1382.000000	96.993356 
1381.000000	97.006141 
1380.000000	97.017314 
1379.000000	97.029776 
1378.000000	97.044552 
1377.000000	97.060437 
1376.000000	97.076272 
1375.000000	97.092375 
1374.000000	97.109315 
1373.000000	97.126879 
1372.000000	97.144264 
1371.000000	97.160821 
1370.000000	97.175969 
1369.000000	97.188441 
1368.000000	97.198926 
1367.000000	97.209915 
1366.000000	97.223027 
1365.000000	97.238077 
1364.000000	97.252891 
1363.000000	97.264341 
1362.000000	97.271836 
1361.000000	97.278977 
1360.000000	97.290203 
1359.000000	97.306892 
1358.000000	97.326450 
1357.000000	97.344437 
1356.000000	97.358111 
1355.000000	97.367912 
1354.000000	97.376284 
1353.000000	97.386070 
1352.000000	97.398024 
1351.000000	97.411098 
1350.000000	97.424151 
1349.000000	97.434819 
1348.000000	97.441387 
1347.000000	97.444859 
1346.000000	97.448770 
1345.000000	97.455949 
1344.000000	97.466173 
1343.000000	97.476888 
1342.000000	97.485350 
1341.000000	97.489695 
1340.000000	97.489979 
1339.000000	97.489287 
1338.000000	97.491703 
1337.000000	97.498688 
1336.000000	97.508394 
1335.000000	97.517731 
1334.000000	97.524677 
1333.000000	97.528891 
1332.000000	97.530805 
1331.000000	97.531554 
1330.000000	97.533089 
1329.000000	97.536935 
1328.000000	97.542791 
1327.000000	97.549060 
1326.000000	97.553992 
1325.000000	97.555680 
1324.000000	97.553585 
1323.000000	97.549181 
1322.000000	97.544833 
1321.000000	97.542216 
1320.000000	97.541929 
1319.000000	97.543508 
1318.000000	97.545418 
1317.000000	97.546096 
1316.000000	97.545285 
1315.000000	97.543940 
1314.000000	97.542886 
1313.000000	97.542390 
1312.000000	97.542498 
1311.000000	97.542972 
1310.000000	97.543027 
1309.000000	97.542330 
1308.000000	97.542074 
1307.000000	97.544197 
1306.000000	97.549136 
1305.000000	97.554680 
1304.000000	97.558290 
1303.000000	97.558788 
1302.000000	97.556223 
1301.000000	97.551576 
1300.000000	97.547265 
1299.000000	97.546195 
1298.000000	97.548912 
1297.000000	97.552403 
1296.000000	97.552947 
1295.000000	97.550191 
1294.000000	97.547237 
1293.000000	97.546940 
1292.000000	97.549111 
1291.000000	97.551487 
1290.000000	97.552509 
1289.000000	97.552300 
1288.000000	97.551183 
1287.000000	97.548561 
1286.000000	97.544160 
1285.000000	97.539997 
1284.000000	97.539619 
1283.000000	97.544171 
1282.000000	97.550007 
1281.000000	97.551648 
1280.000000	97.547360 
1279.000000	97.541034 
1278.000000	97.538200 
1277.000000	97.540921 
1276.000000	97.546788 
1275.000000	97.552165 
1274.000000	97.555278 
1273.000000	97.556468 
1272.000000	97.556517 
1271.000000	97.555347 
1270.000000	97.552288 
1269.000000	97.547299 
1268.000000	97.541533 
1267.000000	97.536163 
1266.000000	97.530902 
1265.000000	97.524999 
1264.000000	97.519437 
1263.000000	97.516528 
1262.000000	97.517132 
1261.000000	97.519747 
1260.000000	97.523252 
1259.000000	97.529076 
1258.000000	97.538631 
1257.000000	97.549589 
1256.000000	97.556638 
1255.000000	97.556806 
1254.000000	97.553134 
1253.000000	97.551605 
1252.000000	97.554221 
1251.000000	97.556776 
1250.000000	97.554464 
1249.000000	97.548414 
1248.000000	97.544715 
1247.000000	97.547069 
1246.000000	97.552472 
1245.000000	97.555364 
1244.000000	97.553941 
1243.000000	97.550763 
1242.000000	97.548819 
1241.000000	97.549071 
1240.000000	97.550789 
1239.000000	97.551952 
1238.000000	97.549725 
1237.000000	97.542539 
1236.000000	97.531800 
1235.000000	97.520447 
1234.000000	97.510312 
1233.000000	97.501777 
1232.000000	97.494576 
1231.000000	97.486813 
1230.000000	97.474597 
1229.000000	97.455609 
1228.000000	97.432349 
1227.000000	97.408917 
1226.000000	97.384780 
1225.000000	97.354844 
1224.000000	97.316088 
1223.000000	97.270843 
1222.000000	97.222475 
1221.000000	97.170823 
1220.000000	97.114058 
1219.000000	97.052749 
1218.000000	96.989394 
1217.000000	96.924965 
1216.000000	96.857798 
1215.000000	96.785402 
1214.000000	96.706515 
1213.000000	96.622507 
1212.000000	96.537302 
1211.000000	96.454222 
1210.000000	96.372289 
1209.000000	96.287416 
1208.000000	96.197661 
1207.000000	96.105115 
1206.000000	96.012207 
1205.000000	95.918601 
1204.000000	95.822634 
1203.000000	95.723688 
1202.000000	95.622456 
1201.000000	95.520695 
1200.000000	95.421101 
1199.000000	95.325264 
1198.000000	95.231170 
1197.000000	95.135127 
1196.000000	95.036345 
1195.000000	94.937109 
1194.000000	94.838368 
1193.000000	94.737863 
1192.000000	94.633048 
1191.000000	94.523389 
1190.000000	94.409591 
1189.000000	94.292968 
1188.000000	94.175338 
1187.000000	94.056947 
1186.000000	93.935107 
1185.000000	93.807735 
1184.000000	93.677069 
1183.000000	93.546484 
1182.000000	93.415193 
1181.000000	93.280170 
1180.000000	93.141612 
1179.000000	93.001305 
1178.000000	92.856941 
1177.000000	92.704210 
1176.000000	92.544013 
1175.000000	92.381415 
1174.000000	92.217773 
1173.000000	92.050451 
1172.000000	91.880326 
1171.000000	91.712057 
1170.000000	91.546265 
1169.000000	91.379488 
1168.000000	91.213671 
1167.000000	91.058318 
1166.000000	90.921947 
1165.000000	90.809717 
1164.000000	90.731004 
1163.000000	90.699042 
1162.000000	90.717574 
1161.000000	90.772944 
1160.000000	90.841274 
1159.000000	90.898386 
1158.000000	90.923780 
1157.000000	90.905011 
1156.000000	90.842763 
1155.000000	90.747170 
1154.000000	90.627550 
1153.000000	90.489994 
1152.000000	90.343798 
1151.000000	90.201038 
1150.000000	90.066957 
1149.000000	89.938222 
1148.000000	89.812625 
1147.000000	89.692220 
1146.000000	89.574987 
1145.000000	89.453127 
1144.000000	89.323754 
1143.000000	89.193210 
1142.000000	89.066874 
1141.000000	88.942228 
1140.000000	88.815543 
1139.000000	88.687576 
1138.000000	88.559058 
1137.000000	88.428134 
1136.000000	88.295678 
1135.000000	88.165694 
1134.000000	88.037495 
1133.000000	87.905266 
1132.000000	87.767807 
1131.000000	87.630117 
1130.000000	87.492855 
1129.000000	87.349707 
1128.000000	87.198732 
1127.000000	87.046960 
1126.000000	86.899807 
1125.000000	86.754741 
1124.000000	86.609032 
1123.000000	86.464294 
1122.000000	86.319289 
1121.000000	86.168164 
1120.000000	86.010948 
1119.000000	85.856702 
1118.000000	85.711369 
1117.000000	85.571797 
1116.000000	85.435589 
1115.000000	85.306570 
1114.000000	85.185978 
1113.000000	85.068525 
1112.000000	84.951705 
1111.000000	84.838846 
1110.000000	84.729269 
1109.000000	84.616143 
1108.000000	84.497334 
1107.000000	84.377677 
1106.000000	84.258588 
1105.000000	84.136584 
1104.000000	84.013313 
1103.000000	83.894731 
1102.000000	83.778362 
1101.000000	83.655346 
1100.000000	83.526919 
1099.000000	83.404432 
1098.000000	83.292623 
1097.000000	83.184723 
1096.000000	83.076554 
1095.000000	82.970186 
1094.000000	82.862669 
1093.000000	82.747629 
1092.000000	82.630866 
1091.000000	82.527854 
1090.000000	82.442133 
1089.000000	82.361712 
1088.000000	82.279181 
1087.000000	82.198521 
1086.000000	82.119892 
1085.000000	82.036532 
1084.000000	81.950883 
1083.000000	81.875134 
1082.000000	81.809928 
1081.000000	81.739882 
1080.000000	81.656079 
1079.000000	81.566588 
1078.000000	81.479714 
1077.000000	81.392732 
1076.000000	81.301643 
1075.000000	81.205257 
1074.000000	81.095072 
1073.000000	80.958093 
1072.000000	80.793892 
1071.000000	80.612756 
1070.000000	80.414048 
1069.000000	80.184512 
1068.000000	79.922178 
1067.000000	79.643228 
1066.000000	79.360032 
1065.000000	79.070963 
1064.000000	78.777630 
1063.000000	78.491690 
1062.000000	78.216565 
1061.000000	77.941438 
1060.000000	77.661038 
1059.000000	77.382511 
1058.000000	77.106095 
1057.000000	76.819423 
1056.000000	76.519470 
1055.000000	76.220789 
1054.000000	75.932637 
1053.000000	75.645715 
1052.000000	75.350565 
1051.000000	75.050223 
1050.000000	74.745351 
1049.000000	74.428199 
1048.000000	74.101711 
1047.000000	73.782702 
1046.000000	73.476893 
1045.000000	73.171006 
1044.000000	72.855012 
1043.000000	72.532599 
1042.000000	72.206481 
1041.000000	71.874997 
1040.000000	71.548232 
1039.000000	71.245212 
1038.000000	70.968166 
1037.000000	70.699856 
1036.000000	70.431448 
1035.000000	70.172159 
1034.000000	69.928124 
1033.000000	69.695934 
1032.000000	69.481036 
1031.000000	69.296675 
1030.000000	69.138686 
1029.000000	68.986291 
1028.000000	68.833991 
1027.000000	68.697635 
1026.000000	68.583530 
1025.000000	68.477928 
1024.000000	68.372941 
1023.000000	68.276147 
1022.000000	68.187376 
1021.000000	68.092555 
1020.000000	67.988537 
1019.000000	67.889093 
1018.000000	67.799122 
1017.000000	67.707191 
1016.000000	67.609264 
1015.000000	67.514905 
1014.000000	67.424832 
1013.000000	67.328399 
1012.000000	67.228897 
1011.000000	67.144780 
1010.000000	67.079577 
1009.000000	67.016691 
1008.000000	66.949878 
1007.000000	66.892812 
1006.000000	66.852906 
1005.000000	66.822614 
1004.000000	66.802111 
1003.000000	66.802744 
1002.000000	66.821268 
1001.000000	66.837984 
1000.000000	66.847817 
999.000000	 66.867043 
998.000000	 66.902795 
997.000000	 66.943121 
996.000000	 66.983899 
995.000000	 67.038167 
994.000000	 67.110387 
993.000000	 67.187075 
992.000000	 67.260701 
991.000000	 67.338693 
990.000000	 67.422744 
989.000000	 67.504629 
988.000000	 67.588264 
987.000000	 67.689921 
986.000000	 67.810724 
985.000000	 67.934713 
984.000000	 68.059553 
983.000000	 68.202443 
982.000000	 68.369521 
981.000000	 68.546756 
980.000000	 68.727788 
979.000000	 68.923693 
978.000000	 69.137395 
977.000000	 69.355332 
976.000000	 69.573370 
975.000000	 69.805752 
974.000000	 70.059290 
973.000000	 70.322463 
972.000000	 70.587985 
971.000000	 70.863245 
970.000000	 71.150753 
969.000000	 71.440607 
968.000000	 71.729346 
967.000000	 72.024698 
966.000000	 72.325802 
965.000000	 72.620566 
964.000000	 72.907958 
963.000000	 73.201036 
962.000000	 73.502724 
961.000000	 73.800377 
960.000000	 74.089081 
959.000000	 74.377917 
958.000000	 74.667874 
957.000000	 74.945885 
956.000000	 75.207144 
955.000000	 75.462645 
954.000000	 75.718959 
953.000000	 75.969949 
952.000000	 76.212741 
951.000000	 76.451459 
950.000000	 76.681358 
949.000000	 76.890379 
948.000000	 77.080714 
947.000000	 77.268221 
946.000000	 77.456427 
945.000000	 77.632017 
944.000000	 77.790134 
943.000000	 77.942358 
942.000000	 78.094767 
941.000000	 78.239712 
940.000000	 78.375232 
939.000000	 78.511328 
938.000000	 78.651045 
937.000000	 78.786122 
936.000000	 78.917375 
935.000000	 79.058262 
934.000000	 79.211428 
933.000000	 79.362442 
932.000000	 79.503776 
931.000000	 79.644820 
930.000000	 79.791466 
929.000000	 79.935975 
928.000000	 80.074783 
927.000000	 80.216637 
926.000000	 80.364441 
925.000000	 80.506819 
924.000000	 80.635576 
923.000000	 80.755007 
922.000000	 80.867767 
921.000000	 80.968959 
920.000000	 81.060692 
919.000000	 81.155070 
918.000000	 81.255576 
917.000000	 81.351726 
916.000000	 81.438706 
915.000000	 81.526869 
914.000000	 81.626494 
913.000000	 81.739379 
912.000000	 81.870167 
911.000000	 82.028467 
910.000000	 82.213872 
909.000000	 82.415385 
908.000000	 82.631089 
907.000000	 82.872550 
906.000000	 83.145680 
905.000000	 83.442987 
904.000000	 83.756503 
903.000000	 84.081027 
902.000000	 84.403636 
901.000000	 84.709992 
900.000000	 85.004994 
899.000000	 85.309427 
898.000000	 85.632566 
897.000000	 85.963411 
896.000000	 86.288938 
895.000000	 86.602605 
894.000000	 86.894763 
893.000000	 87.156025 
892.000000	 87.394847 
891.000000	 87.633988 
890.000000	 87.883578 
889.000000	 88.131489 
888.000000	 88.362296 
887.000000	 88.569997 
886.000000	 88.751669 
885.000000	 88.906799 
884.000000	 89.046142 
883.000000	 89.184859 
882.000000	 89.323941 
881.000000	 89.454360 
880.000000	 89.579483 
879.000000	 89.713640 
878.000000	 89.858154 
877.000000	 90.001986 
876.000000	 90.149104 
875.000000	 90.320213 
874.000000	 90.521283 
873.000000	 90.734507 
872.000000	 90.947655 
871.000000	 91.169517 
870.000000	 91.408475 
869.000000	 91.657274 
868.000000	 91.907600 
867.000000	 92.160530 
866.000000	 92.414164 
865.000000	 92.658183 
864.000000	 92.889257 
863.000000	 93.117638 
862.000000	 93.351551 
861.000000	 93.587916 
860.000000	 93.823358 
859.000000	 94.059465 
858.000000	 94.290989 
857.000000	 94.503022 
856.000000	 94.687446 
855.000000	 94.851825 
854.000000	 95.006991 
853.000000	 95.155322 
852.000000	 95.294543 
851.000000	 95.422779 
850.000000	 95.537704 
849.000000	 95.640926 
848.000000	 95.743605 
847.000000	 95.855764 
846.000000	 95.969501 
845.000000	 96.066058 
844.000000	 96.139126 
843.000000	 96.196268 
842.000000	 96.238457 
841.000000	 96.256823 
840.000000	 96.252336 
839.000000	 96.239786 
838.000000	 96.226528 
837.000000	 96.204563 
836.000000	 96.170489 
835.000000	 96.136832 
834.000000	 96.115438 
833.000000	 96.104517 
832.000000	 96.100368 
831.000000	 96.107025 
830.000000	 96.125329 
829.000000	 96.147266 
828.000000	 96.172213 
827.000000	 96.215339 
826.000000	 96.287345 
825.000000	 96.377176 
824.000000	 96.465414 
823.000000	 96.542361 
822.000000	 96.605073 
821.000000	 96.652438 
820.000000	 96.692160 
819.000000	 96.737626 
818.000000	 96.787995 
817.000000	 96.821335 
816.000000	 96.813305 
815.000000	 96.753618 
814.000000	 96.641978 
813.000000	 96.480514 
812.000000	 96.275351 
811.000000	 96.031400 
810.000000	 95.734452 
809.000000	 95.348568 
808.000000	 94.844237 
807.000000	 94.227568 
806.000000	 93.538323 
805.000000	 92.825223 
804.000000	 92.127320 
803.000000	 91.467956 
802.000000	 90.855232 
801.000000	 90.294187 
800.000000	 89.804539 
799.000000	 89.419732 
798.000000	 89.166324 
797.000000	 89.052534 
796.000000	 89.070870 
795.000000	 89.191527 
794.000000	 89.355391 
793.000000	 89.499594 
792.000000	 89.598610 
791.000000	 89.668973 
790.000000	 89.737373 
789.000000	 89.817493 
788.000000	 89.905026 
787.000000	 89.967187 
786.000000	 89.943121 
785.000000	 89.788047 
784.000000	 89.523759 
783.000000	 89.224289 
782.000000	 88.950962 
781.000000	 88.724337 
780.000000	 88.552426 
779.000000	 88.445221 
778.000000	 88.393761 
777.000000	 88.375136 
776.000000	 88.396369 
775.000000	 88.500936 
774.000000	 88.711441 
773.000000	 88.989868 
772.000000	 89.268336 
771.000000	 89.497151 
770.000000	 89.656007 
769.000000	 89.751892 
768.000000	 89.825856 
767.000000	 89.932663 
766.000000	 90.086176 
765.000000	 90.240520 
764.000000	 90.342795 
763.000000	 90.388174 
762.000000	 90.411399 
761.000000	 90.448089 
760.000000	 90.522973 
759.000000	 90.651319 
758.000000	 90.823131 
757.000000	 90.997612 
756.000000	 91.135889 
755.000000	 91.234695 
754.000000	 91.318102 
753.000000	 91.409694 
752.000000	 91.524432 
751.000000	 91.668216 
750.000000	 91.824513 
749.000000	 91.954300 
748.000000	 92.031922 
747.000000	 92.078459 
746.000000	 92.145613 
745.000000	 92.268895 
744.000000	 92.445282 
743.000000	 92.645597 
742.000000	 92.833683 
741.000000	 92.982166 
740.000000	 93.089466 
739.000000	 93.185232 
738.000000	 93.308472 
737.000000	 93.475052 
736.000000	 93.666889 
735.000000	 93.847842 
734.000000	 93.986546 
733.000000	 94.071679 
732.000000	 94.117997 
731.000000	 94.160044 
730.000000	 94.230120 
729.000000	 94.333249 
728.000000	 94.441977 
727.000000	 94.516004 
726.000000	 94.534307 
725.000000	 94.520307 
724.000000	 94.532638 
723.000000	 94.617068 
722.000000	 94.765474 
721.000000	 94.929079 
720.000000	 95.067308 
719.000000	 95.170004 
718.000000	 95.239219 
717.000000	 95.280039 
716.000000	 95.315893 
715.000000	 95.384155 
714.000000	 95.497246 
713.000000	 95.623295 
712.000000	 95.722004 
711.000000	 95.786313 
710.000000	 95.838374 
709.000000	 95.901892 
708.000000	 95.987220 
707.000000	 96.089444 
706.000000	 96.179503 
705.000000	 96.211763 
704.000000	 96.162602 
703.000000	 96.054311 
702.000000	 95.927270 
701.000000	 95.791785 
700.000000	 95.617683 
699.000000	 95.369579 
698.000000	 95.042607 
697.000000	 94.674625 
696.000000	 94.337162 
695.000000	 94.105453 
694.000000	 94.026137 
693.000000	 94.102998 
692.000000	 94.300997 
691.000000	 94.559943 
690.000000	 94.813769 
689.000000	 95.021710 
688.000000	 95.189813 
687.000000	 95.348577 
686.000000	 95.510508 
685.000000	 95.661434 
684.000000	 95.786945 
683.000000	 95.888258 
682.000000	 95.971256 
681.000000	 96.041081 
680.000000	 96.110471 
679.000000	 96.196663 
678.000000	 96.300701 
677.000000	 96.402969 
676.000000	 96.496227 
675.000000	 96.581476 
674.000000	 96.650198 
673.000000	 96.698247 
672.000000	 96.753539 
671.000000	 96.864933 
670.000000	 97.069583 
669.000000	 97.352870 
668.000000	 97.542136 
667.000000	 97.483385 
666.000000	 97.348504 
665.000000	 97.285195 
664.000000	 97.279675 
663.000000	 97.311816 
662.000000	 97.364795 
661.000000	 97.410159 
660.000000	 97.442474 
659.000000	 97.488563 
658.000000	 97.556629 
657.000000	 97.609172 
656.000000	 97.624644 
655.000000	 97.622564 
654.000000	 97.614688 
653.000000	 97.578689 
652.000000	 97.511287 
651.000000	 97.466405 
650.000000	 97.497388 

