PE IR       SUBTECH     SPECTRUM    ASCII       PEDS        4.00        
   -1
BH-1(1)50-51_1.asc
24/05/14
11:16:14.00
24/05/14
11:16:19.00
Administrator
?品 006 用? Administrator 日期 Tuesday, May 14 2024
550.000000
#HDR
-1
-1
#GR
cm-1
%T
1.0
0.0
4000.000000
-1.000000
3451
8
100.588530
79.293114
#DATA
4000.000000	100.475160
3999.000000	100.474931
3998.000000	100.474687
3997.000000	100.474418
3996.000000	100.474122
3995.000000	100.473804
3994.000000	100.473473
3993.000000	100.473135
3992.000000	100.472793
3991.000000	100.472443
3990.000000	100.472084
3989.000000	100.471719
3988.000000	100.471350
3987.000000	100.470977
3986.000000	100.470611
3985.000000	100.470271
3984.000000	100.469957
3983.000000	100.469636
3982.000000	100.469255
3981.000000	100.468753
3980.000000	100.468103
3979.000000	100.467408
3978.000000	100.466901
3977.000000	100.466806
3976.000000	100.467114
3975.000000	100.467431
3974.000000	100.467291
3973.000000	100.466536
3972.000000	100.465473
3971.000000	100.464599
3970.000000	100.464132
3969.000000	100.463968
3968.000000	100.463962
3967.000000	100.464127
3966.000000	100.464486
3965.000000	100.464841
3964.000000	100.464882
3963.000000	100.464589
3962.000000	100.464418
3961.000000	100.464853
3960.000000	100.465768
3959.000000	100.466397
3958.000000	100.466055
3957.000000	100.464775
3956.000000	100.463140
3955.000000	100.461578
3954.000000	100.460017
3953.000000	100.458139
3952.000000	100.455788
3951.000000	100.453187
3950.000000	100.451014
3949.000000	100.450052
3948.000000	100.450532
3947.000000	100.452088
3946.000000	100.454207
3945.000000	100.456441
3944.000000	100.458277
3943.000000	100.459270
3942.000000	100.459662
3941.000000	100.460355
3940.000000	100.461769
3939.000000	100.463061
3938.000000	100.462946
3937.000000	100.461170
3936.000000	100.458681
3935.000000	100.456581
3934.000000	100.455301
3933.000000	100.454687
3932.000000	100.454615
3931.000000	100.455152
3930.000000	100.456207
3929.000000	100.457286
3928.000000	100.457677
3927.000000	100.457023
3926.000000	100.455498
3925.000000	100.453670
3924.000000	100.452205
3923.000000	100.451438
3922.000000	100.451170
3921.000000	100.450916
3920.000000	100.450488
3919.000000	100.450126
3918.000000	100.450012
3917.000000	100.449983
3916.000000	100.449814
3915.000000	100.449525
3914.000000	100.449291
3913.000000	100.449137
3912.000000	100.448890
3911.000000	100.448381
3910.000000	100.447585
3909.000000	100.446688
3908.000000	100.445916
3907.000000	100.445356
3906.000000	100.444927
3905.000000	100.444471
3904.000000	100.443887
3903.000000	100.443199
3902.000000	100.442526
3901.000000	100.441967
3900.000000	100.441516
3899.000000	100.441112
3898.000000	100.440720
3897.000000	100.440355
3896.000000	100.440025
3895.000000	100.439726
3894.000000	100.439445
3893.000000	100.439169
3892.000000	100.438895
3891.000000	100.438619
3890.000000	100.438342
3889.000000	100.438072
3888.000000	100.437818
3887.000000	100.437581
3886.000000	100.437365
3885.000000	100.437180
3884.000000	100.437045
3883.000000	100.436969
3882.000000	100.436947
3881.000000	100.436963
3880.000000	100.437001
3879.000000	100.437050
3878.000000	100.437106
3877.000000	100.437166
3876.000000	100.437221
3875.000000	100.437268
3874.000000	100.437309
3873.000000	100.437350
3872.000000	100.437397
3871.000000	100.437450
3870.000000	100.437513
3869.000000	100.437599
3868.000000	100.437730
3867.000000	100.437915
3866.000000	100.438141
3865.000000	100.438391
3864.000000	100.438660
3863.000000	100.438949
3862.000000	100.439253
3861.000000	100.439561
3860.000000	100.439868
3859.000000	100.440177
3858.000000	100.440492
3857.000000	100.440816
3856.000000	100.441148
3855.000000	100.441482
3854.000000	100.441807
3853.000000	100.442121
3852.000000	100.442443
3851.000000	100.442801
3850.000000	100.443202
3849.000000	100.443632
3848.000000	100.444078
3847.000000	100.444543
3846.000000	100.445030
3845.000000	100.445537
3844.000000	100.446059
3843.000000	100.446581
3842.000000	100.447086
3841.000000	100.447570
3840.000000	100.448040
3839.000000	100.448504
3838.000000	100.448966
3837.000000	100.449429
3836.000000	100.449901
3835.000000	100.450391
3834.000000	100.450902
3833.000000	100.451435
3832.000000	100.451987
3831.000000	100.452560
3830.000000	100.453157
3829.000000	100.453783
3828.000000	100.454434
3827.000000	100.455101
3826.000000	100.455768
3825.000000	100.456422
3824.000000	100.457058
3823.000000	100.457677
3822.000000	100.458269
3821.000000	100.458826
3820.000000	100.459356
3819.000000	100.459884
3818.000000	100.460427
3817.000000	100.460975
3816.000000	100.461511
3815.000000	100.462026
3814.000000	100.462526
3813.000000	100.463015
3812.000000	100.463488
3811.000000	100.463938
3810.000000	100.464360
3809.000000	100.464742
3808.000000	100.465072
3807.000000	100.465344
3806.000000	100.465573
3805.000000	100.465776
3804.000000	100.465962
3803.000000	100.466131
3802.000000	100.466282
3801.000000	100.466427
3800.000000	100.466589
3799.000000	100.466782
3798.000000	100.467004
3797.000000	100.467223
3796.000000	100.467407
3795.000000	100.467566
3794.000000	100.467727
3793.000000	100.467894
3792.000000	100.468024
3791.000000	100.468088
3790.000000	100.468107
3789.000000	100.468114
3788.000000	100.468087
3787.000000	100.467966
3786.000000	100.467699
3785.000000	100.467268
3784.000000	100.466712
3783.000000	100.466122
3782.000000	100.465586
3781.000000	100.465121
3780.000000	100.464692
3779.000000	100.464281
3778.000000	100.463905
3777.000000	100.463548
3776.000000	100.463110
3775.000000	100.462492
3774.000000	100.461759
3773.000000	100.461059
3772.000000	100.460456
3771.000000	100.459882
3770.000000	100.459236
3769.000000	100.458514
3768.000000	100.457778
3767.000000	100.457071
3766.000000	100.456380
3765.000000	100.455679
3764.000000	100.454965
3763.000000	100.454292
3762.000000	100.453735
3761.000000	100.453324
3760.000000	100.453041
3759.000000	100.452823
3758.000000	100.452456
3757.000000	100.451625
3756.000000	100.450170
3755.000000	100.448262
3754.000000	100.446232
3753.000000	100.444470
3752.000000	100.443518
3751.000000	100.443427
3750.000000	100.443102
3749.000000	100.441454
3748.000000	100.439021
3747.000000	100.437415
3746.000000	100.437186
3745.000000	100.436719
3744.000000	100.434073
3743.000000	100.430751
3742.000000	100.430606
3741.000000	100.432488
3740.000000	100.431001
3739.000000	100.427187
3738.000000	100.426505
3737.000000	100.429219
3736.000000	100.430649
3735.000000	100.427815
3734.000000	100.423397
3733.000000	100.421309
3732.000000	100.421151
3731.000000	100.420775
3730.000000	100.420549
3729.000000	100.421294
3728.000000	100.421925
3727.000000	100.421668
3726.000000	100.421490
3725.000000	100.422562
3724.000000	100.424649
3723.000000	100.425821
3722.000000	100.424682
3721.000000	100.422329
3720.000000	100.420112
3719.000000	100.417741
3718.000000	100.413852
3717.000000	100.408026
3716.000000	100.401679
3715.000000	100.396461
3714.000000	100.392537
3713.000000	100.389025
3712.000000	100.384987
3711.000000	100.379830
3710.000000	100.373956
3709.000000	100.368278
3708.000000	100.362681
3707.000000	100.356628
3706.000000	100.349961
3705.000000	100.341766
3704.000000	100.330313
3703.000000	100.315292
3702.000000	100.299860
3701.000000	100.288724
3700.000000	100.284271
3699.000000	100.284750
3698.000000	100.285386
3697.000000	100.282124
3696.000000	100.275564
3695.000000	100.269813
3694.000000	100.267224
3693.000000	100.266307
3692.000000	100.264706
3691.000000	100.262182
3690.000000	100.259567
3689.000000	100.257682
3688.000000	100.257698
3687.000000	100.261277
3686.000000	100.267775
3685.000000	100.271621
3684.000000	100.267484
3683.000000	100.256515
3682.000000	100.243141
3681.000000	100.228503
3680.000000	100.211527
3679.000000	100.194223
3678.000000	100.182640
3677.000000	100.179176
3676.000000	100.175650
3675.000000	100.161884
3674.000000	100.141094
3673.000000	100.125250
3672.000000	100.115869
3671.000000	100.106459
3670.000000	100.095761
3669.000000	100.086509
3668.000000	100.081397
3667.000000	100.079234
3666.000000	100.074084
3665.000000	100.064224
3664.000000	100.053664
3663.000000	100.044759
3662.000000	100.035941
3661.000000	100.025106
3660.000000	100.013252
3659.000000	100.003612
3658.000000	99.997211
3657.000000	99.989231
3656.000000	99.973116
3655.000000	99.949142
3654.000000	99.924402
3653.000000	99.902616
3652.000000	99.881132
3651.000000	99.858267
3650.000000	99.835817
3649.000000	99.818289
3648.000000	99.811004
3647.000000	99.813541
3646.000000	99.819196
3645.000000	99.822548
3644.000000	99.821494
3643.000000	99.815927
3642.000000	99.807743
3641.000000	99.800129
3640.000000	99.794893
3639.000000	99.789804
3638.000000	99.780388
3637.000000	99.765052
3636.000000	99.746835
3635.000000	99.728795
3634.000000	99.711009
3633.000000	99.693256
3632.000000	99.677568
3631.000000	99.665564
3630.000000	99.655197
3629.000000	99.641455
3628.000000	99.624195
3627.000000	99.613772
3626.000000	99.615243
3625.000000	99.616785
3624.000000	99.608777
3623.000000	99.596314
3622.000000	99.587728
3621.000000	99.587856
3620.000000	99.598229
3619.000000	99.615340
3618.000000	99.632449
3617.000000	99.645770
3616.000000	99.656123
3615.000000	99.665788
3614.000000	99.676536
3613.000000	99.688307
3612.000000	99.699764
3611.000000	99.710464
3610.000000	99.720935
3609.000000	99.731589
3608.000000	99.742266
3607.000000	99.752704
3606.000000	99.762634
3605.000000	99.771331
3604.000000	99.778542
3603.000000	99.785352
3602.000000	99.792640
3601.000000	99.799340
3600.000000	99.804219
3599.000000	99.807799
3598.000000	99.811882
3597.000000	99.817977
3596.000000	99.827191
3595.000000	99.838555
3594.000000	99.848150
3593.000000	99.852541
3592.000000	99.852145
3591.000000	99.850219
3590.000000	99.849687
3589.000000	99.851201
3588.000000	99.853409
3587.000000	99.856065
3586.000000	99.860820
3585.000000	99.867234
3584.000000	99.871038
3583.000000	99.869553
3582.000000	99.866231
3581.000000	99.866823
3580.000000	99.873630
3579.000000	99.884317
3578.000000	99.894673
3577.000000	99.901139
3576.000000	99.901700
3575.000000	99.896234
3574.000000	99.886878
3573.000000	99.877586
3572.000000	99.871543
3571.000000	99.868849
3570.000000	99.866919
3569.000000	99.863185
3568.000000	99.857531
3567.000000	99.852341
3566.000000	99.849899
3565.000000	99.849919
3564.000000	99.850017
3563.000000	99.848787
3562.000000	99.847858
3561.000000	99.849607
3560.000000	99.853628
3559.000000	99.856895
3558.000000	99.856844
3557.000000	99.853631
3556.000000	99.849556
3555.000000	99.846891
3554.000000	99.846062
3553.000000	99.845771
3552.000000	99.844684
3551.000000	99.842626
3550.000000	99.839974
3549.000000	99.836614
3548.000000	99.832316
3547.000000	99.827917
3546.000000	99.825162
3545.000000	99.825083
3544.000000	99.826980
3543.000000	99.828993
3542.000000	99.829478
3541.000000	99.827944
3540.000000	99.825051
3539.000000	99.822163
3538.000000	99.820573
3537.000000	99.820593
3536.000000	99.821306
3535.000000	99.821403
3534.000000	99.820430
3533.000000	99.819079
3532.000000	99.818358
3531.000000	99.818485
3530.000000	99.818580
3529.000000	99.817502
3528.000000	99.815022
3527.000000	99.812018
3526.000000	99.809589
3525.000000	99.808329
3524.000000	99.808470
3523.000000	99.810201
3522.000000	99.813319
3521.000000	99.816706
3520.000000	99.818752
3519.000000	99.818588
3518.000000	99.816786
3517.000000	99.814786
3516.000000	99.813557
3515.000000	99.812935
3514.000000	99.812251
3513.000000	99.811255
3512.000000	99.810255
3511.000000	99.809565
3510.000000	99.809129
3509.000000	99.808602
3508.000000	99.807547
3507.000000	99.805500
3506.000000	99.802084
3505.000000	99.797306
3504.000000	99.791861
3503.000000	99.786972
3502.000000	99.783884
3501.000000	99.783421
3500.000000	99.785773
3499.000000	99.790246
3498.000000	99.795078
3497.000000	99.798100
3496.000000	99.798145
3495.000000	99.795737
3494.000000	99.792533
3493.000000	99.789936
3492.000000	99.788280
3491.000000	99.787242
3490.000000	99.786621
3489.000000	99.786481
3488.000000	99.786666
3487.000000	99.786520
3486.000000	99.785306
3485.000000	99.782899
3484.000000	99.779969
3483.000000	99.777449
3482.000000	99.775766
3481.000000	99.774574
3480.000000	99.773258
3479.000000	99.771603
3478.000000	99.769934
3477.000000	99.768649
3476.000000	99.767709
3475.000000	99.766577
3474.000000	99.764635
3473.000000	99.761665
3472.000000	99.758005
3471.000000	99.754240
3470.000000	99.750763
3469.000000	99.747658
3468.000000	99.744961
3467.000000	99.742908
3466.000000	99.741758
3465.000000	99.741315
3464.000000	99.740749
3463.000000	99.739162
3462.000000	99.736422
3461.000000	99.733317
3460.000000	99.730827
3459.000000	99.729275
3458.000000	99.728229
3457.000000	99.727046
3456.000000	99.725494
3455.000000	99.723763
3454.000000	99.721967
3453.000000	99.719884
3452.000000	99.717305
3451.000000	99.714425
3450.000000	99.711734
3449.000000	99.709590
3448.000000	99.707948
3447.000000	99.706418
3446.000000	99.704499
3445.000000	99.701914
3444.000000	99.698888
3443.000000	99.696035
3442.000000	99.693760
3441.000000	99.691765
3440.000000	99.689442
3439.000000	99.686723
3438.000000	99.684130
3437.000000	99.681819
3436.000000	99.679039
3435.000000	99.675145
3434.000000	99.670917
3433.000000	99.667999
3432.000000	99.666983
3431.000000	99.666785
3430.000000	99.666060
3429.000000	99.664756
3428.000000	99.663771
3427.000000	99.663532
3426.000000	99.663440
3425.000000	99.662528
3424.000000	99.660182
3423.000000	99.656216
3422.000000	99.650845
3421.000000	99.644977
3420.000000	99.640199
3419.000000	99.637799
3418.000000	99.637685
3417.000000	99.638545
3416.000000	99.639179
3415.000000	99.639405
3414.000000	99.639471
3413.000000	99.639151
3412.000000	99.638121
3411.000000	99.637036
3410.000000	99.637292
3409.000000	99.639294
3408.000000	99.641465
3407.000000	99.641552
3406.000000	99.638724
3405.000000	99.634022
3404.000000	99.629109
3403.000000	99.624974
3402.000000	99.621837
3401.000000	99.619580
3400.000000	99.617777
3399.000000	99.615634
3398.000000	99.612705
3397.000000	99.609827
3396.000000	99.608776
3395.000000	99.610619
3394.000000	99.614587
3393.000000	99.618692
3392.000000	99.621594
3391.000000	99.623696
3390.000000	99.626270
3389.000000	99.629849
3388.000000	99.633662
3387.000000	99.636350
3386.000000	99.637016
3385.000000	99.635822
3384.000000	99.633931
3383.000000	99.632822
3382.000000	99.633222
3381.000000	99.634496
3380.000000	99.635208
3379.000000	99.634528
3378.000000	99.633081
3377.000000	99.632351
3376.000000	99.633250
3375.000000	99.635393
3374.000000	99.637626
3373.000000	99.639062
3372.000000	99.639598
3371.000000	99.639677
3370.000000	99.639799
3369.000000	99.640294
3368.000000	99.641367
3367.000000	99.643127
3366.000000	99.645471
3365.000000	99.648004
3364.000000	99.650196
3363.000000	99.651678
3362.000000	99.652391
3361.000000	99.652522
3360.000000	99.652458
3359.000000	99.652762
3358.000000	99.653927
3357.000000	99.656005
3356.000000	99.658520
3355.000000	99.660814
3354.000000	99.662585
3353.000000	99.664016
3352.000000	99.665481
3351.000000	99.667234
3350.000000	99.669270
3349.000000	99.671339
3348.000000	99.673096
3347.000000	99.674351
3346.000000	99.675197
3345.000000	99.675978
3344.000000	99.677028
3343.000000	99.678450
3342.000000	99.680127
3341.000000	99.681873
3340.000000	99.683544
3339.000000	99.685067
3338.000000	99.686455
3337.000000	99.687830
3336.000000	99.689355
3335.000000	99.691108
3334.000000	99.693066
3333.000000	99.695200
3332.000000	99.697463
3331.000000	99.699654
3330.000000	99.701441
3329.000000	99.702656
3328.000000	99.703523
3327.000000	99.704471
3326.000000	99.705717
3325.000000	99.707165
3324.000000	99.708704
3323.000000	99.710431
3322.000000	99.712469
3321.000000	99.714632
3320.000000	99.716460
3319.000000	99.717643
3318.000000	99.718314
3317.000000	99.718925
3316.000000	99.719858
3315.000000	99.721184
3314.000000	99.722694
3313.000000	99.724080
3312.000000	99.725160
3311.000000	99.726002
3310.000000	99.726838
3309.000000	99.727847
3308.000000	99.729061
3307.000000	99.730466
3306.000000	99.732143
3305.000000	99.734199
3304.000000	99.736530
3303.000000	99.738793
3302.000000	99.740671
3301.000000	99.742134
3300.000000	99.743464
3299.000000	99.744994
3298.000000	99.746801
3297.000000	99.748644
3296.000000	99.750208
3295.000000	99.751440
3294.000000	99.752629
3293.000000	99.754157
3292.000000	99.756133
3291.000000	99.758346
3290.000000	99.760474
3289.000000	99.762389
3288.000000	99.764179
3287.000000	99.765984
3286.000000	99.767862
3285.000000	99.769795
3284.000000	99.771773
3283.000000	99.773800
3282.000000	99.775852
3281.000000	99.777866
3280.000000	99.779793
3279.000000	99.781629
3278.000000	99.783401
3277.000000	99.785149
3276.000000	99.786943
3275.000000	99.788869
3274.000000	99.790972
3273.000000	99.793189
3272.000000	99.795358
3271.000000	99.797360
3270.000000	99.799214
3269.000000	99.801083
3268.000000	99.803126
3267.000000	99.805355
3266.000000	99.807642
3265.000000	99.809868
3264.000000	99.812064
3263.000000	99.814361
3262.000000	99.816829
3261.000000	99.819363
3260.000000	99.821750
3259.000000	99.823858
3258.000000	99.825757
3257.000000	99.827652
3256.000000	99.829687
3255.000000	99.831865
3254.000000	99.834147
3253.000000	99.836575
3252.000000	99.839204
3251.000000	99.841918
3250.000000	99.844421
3249.000000	99.846525
3248.000000	99.848368
3247.000000	99.850188
3246.000000	99.851948
3245.000000	99.853447
3244.000000	99.854796
3243.000000	99.856505
3242.000000	99.858913
3241.000000	99.861762
3240.000000	99.864413
3239.000000	99.866512
3238.000000	99.868213
3237.000000	99.869845
3236.000000	99.871629
3235.000000	99.873761
3234.000000	99.876454
3233.000000	99.879676
3232.000000	99.882996
3231.000000	99.885906
3230.000000	99.888290
3229.000000	99.890479
3228.000000	99.892915
3227.000000	99.895767
3226.000000	99.898825
3225.000000	99.901653
3224.000000	99.903915
3223.000000	99.905666
3222.000000	99.907359
3221.000000	99.909507
3220.000000	99.912290
3219.000000	99.915467
3218.000000	99.918607
3217.000000	99.921348
3216.000000	99.923496
3215.000000	99.925038
3214.000000	99.926202
3213.000000	99.927434
3212.000000	99.929115
3211.000000	99.931212
3210.000000	99.933265
3209.000000	99.934917
3208.000000	99.936467
3207.000000	99.938768
3206.000000	99.942471
3205.000000	99.947473
3204.000000	99.952998
3203.000000	99.958071
3202.000000	99.961991
3201.000000	99.964540
3200.000000	99.966022
3199.000000	99.967060
3198.000000	99.968194
3197.000000	99.969707
3196.000000	99.971868
3195.000000	99.974996
3194.000000	99.979014
3193.000000	99.983129
3192.000000	99.986331
3191.000000	99.988209
3190.000000	99.989061
3189.000000	99.989374
3188.000000	99.989560
3187.000000	99.990097
3186.000000	99.991439
3185.000000	99.993656
3184.000000	99.996591
3183.000000	100.000392
3182.000000	100.005379
3181.000000	100.011252
3180.000000	100.016966
3179.000000	100.021685
3178.000000	100.025386
3177.000000	100.028284
3176.000000	100.030216
3175.000000	100.031085
3174.000000	100.031527
3173.000000	100.032514
3172.000000	100.034389
3171.000000	100.036741
3170.000000	100.039113
3169.000000	100.041388
3168.000000	100.043563
3167.000000	100.045630
3166.000000	100.047749
3165.000000	100.050194
3164.000000	100.052975
3163.000000	100.055708
3162.000000	100.057996
3161.000000	100.059805
3160.000000	100.061424
3159.000000	100.063200
3158.000000	100.065321
3157.000000	100.067730
3156.000000	100.070158
3155.000000	100.072322
3154.000000	100.074195
3153.000000	100.076038
3152.000000	100.078160
3151.000000	100.080649
3150.000000	100.083355
3149.000000	100.086015
3148.000000	100.088397
3147.000000	100.090430
3146.000000	100.092221
3145.000000	100.094013
3144.000000	100.096031
3143.000000	100.098321
3142.000000	100.100772
3141.000000	100.103179
3140.000000	100.105385
3139.000000	100.107377
3138.000000	100.109276
3137.000000	100.111209
3136.000000	100.113176
3135.000000	100.115107
3134.000000	100.116972
3133.000000	100.118804
3132.000000	100.120639
3131.000000	100.122483
3130.000000	100.124363
3129.000000	100.126378
3128.000000	100.128609
3127.000000	100.131030
3126.000000	100.133530
3125.000000	100.135988
3124.000000	100.138291
3123.000000	100.140346
3122.000000	100.142115
3121.000000	100.143655
3120.000000	100.145089
3119.000000	100.146531
3118.000000	100.148060
3117.000000	100.149705
3116.000000	100.151463
3115.000000	100.153408
3114.000000	100.155723
3113.000000	100.158533
3112.000000	100.161634
3111.000000	100.164499
3110.000000	100.166721
3109.000000	100.168327
3108.000000	100.169675
3107.000000	100.171087
3106.000000	100.172663
3105.000000	100.174413
3104.000000	100.176303
3103.000000	100.178148
3102.000000	100.179649
3101.000000	100.180697
3100.000000	100.181568
3099.000000	100.182695
3098.000000	100.184303
3097.000000	100.186323
3096.000000	100.188508
3095.000000	100.190579
3094.000000	100.192391
3093.000000	100.194034
3092.000000	100.195728
3091.000000	100.197513
3090.000000	100.199129
3089.000000	100.200320
3088.000000	100.201216
3087.000000	100.202267
3086.000000	100.203808
3085.000000	100.205815
3084.000000	100.207986
3083.000000	100.209858
3082.000000	100.210947
3081.000000	100.211112
3080.000000	100.210953
3079.000000	100.211523
3078.000000	100.213303
3077.000000	100.215579
3076.000000	100.217093
3075.000000	100.217383
3074.000000	100.217284
3073.000000	100.218121
3072.000000	100.220489
3071.000000	100.223848
3070.000000	100.227043
3069.000000	100.229195
3068.000000	100.230228
3067.000000	100.230716
3066.000000	100.231268
3065.000000	100.232017
3064.000000	100.232650
3063.000000	100.232786
3062.000000	100.232295
3061.000000	100.231401
3060.000000	100.230560
3059.000000	100.230110
3058.000000	100.229989
3057.000000	100.229889
3056.000000	100.229711
3055.000000	100.229656
3054.000000	100.229804
3053.000000	100.229895
3052.000000	100.229715
3051.000000	100.229516
3050.000000	100.229813
3049.000000	100.230903
3048.000000	100.232729
3047.000000	100.235065
3046.000000	100.237584
3045.000000	100.239779
3044.000000	100.241191
3043.000000	100.241946
3042.000000	100.242852
3041.000000	100.244617
3040.000000	100.246886
3039.000000	100.248356
3038.000000	100.248145
3037.000000	100.246951
3036.000000	100.246482
3035.000000	100.247449
3034.000000	100.248529
3033.000000	100.247852
3032.000000	100.245311
3031.000000	100.242906
3030.000000	100.242706
3029.000000	100.244848
3028.000000	100.247586
3027.000000	100.248832
3026.000000	100.247587
3025.000000	100.244413
3024.000000	100.241042
3023.000000	100.239210
3022.000000	100.239417
3021.000000	100.240756
3020.000000	100.241920
3019.000000	100.242053
3018.000000	100.240525
3017.000000	100.236675
3016.000000	100.230693
3015.000000	100.224524
3014.000000	100.221004
3013.000000	100.221879
3012.000000	100.226739
3011.000000	100.233286
3010.000000	100.238275
3009.000000	100.239113
3008.000000	100.235793
3007.000000	100.231206
3006.000000	100.228432
3005.000000	100.227677
3004.000000	100.226829
3003.000000	100.224934
3002.000000	100.223683
3001.000000	100.224975
3000.000000	100.228087
2999.000000	100.230078
2998.000000	100.228568
2997.000000	100.223684
2996.000000	100.217602
2995.000000	100.212304
2994.000000	100.207324
2993.000000	100.199843
2992.000000	100.187796
2991.000000	100.172953
2990.000000	100.159944
2989.000000	100.151769
2988.000000	100.147227
2987.000000	100.143194
2986.000000	100.138321
2985.000000	100.133487
2984.000000	100.129333
2983.000000	100.124920
2982.000000	100.119044
2981.000000	100.111841
2980.000000	100.104529
2979.000000	100.097981
2978.000000	100.092080
2977.000000	100.086519
2976.000000	100.082013
2975.000000	100.080532
2974.000000	100.084078
2973.000000	100.093232
2972.000000	100.106861
2971.000000	100.122887
2970.000000	100.138922
2969.000000	100.152748
2968.000000	100.163435
2967.000000	100.172360
2966.000000	100.182005
2965.000000	100.192994
2964.000000	100.203127
2963.000000	100.210310
2962.000000	100.215626
2961.000000	100.221954
2960.000000	100.229863
2959.000000	100.236757
2958.000000	100.240649
2957.000000	100.242955
2956.000000	100.246088
2955.000000	100.249605
2954.000000	100.250879
2953.000000	100.249320
2952.000000	100.247683
2951.000000	100.248563
2950.000000	100.251301
2949.000000	100.253657
2948.000000	100.255234
2947.000000	100.257588
2946.000000	100.261531
2945.000000	100.266024
2944.000000	100.269649
2943.000000	100.271762
2942.000000	100.272199
2941.000000	100.271387
2940.000000	100.270982
2939.000000	100.272772
2938.000000	100.276302
2937.000000	100.279149
2936.000000	100.280459
2935.000000	100.282719
2934.000000	100.288623
2933.000000	100.297474
2932.000000	100.306195
2931.000000	100.313009
2930.000000	100.318313
2929.000000	100.322637
2928.000000	100.326006
2927.000000	100.329373
2926.000000	100.334520
2925.000000	100.341705
2924.000000	100.348849
2923.000000	100.353814
2922.000000	100.356432
2921.000000	100.357990
2920.000000	100.359964
2919.000000	100.363571
2918.000000	100.368930
2917.000000	100.373655
2916.000000	100.373529
2915.000000	100.365915
2914.000000	100.352359
2913.000000	100.337431
2912.000000	100.325008
2911.000000	100.316010
2910.000000	100.309310
2909.000000	100.303852
2908.000000	100.299652
2907.000000	100.297060
2906.000000	100.295499
2905.000000	100.293530
2904.000000	100.290545
2903.000000	100.287889
2902.000000	100.287389
2901.000000	100.288922
2900.000000	100.290387
2899.000000	100.290143
2898.000000	100.288410
2897.000000	100.286128
2896.000000	100.283708
2895.000000	100.281513
2894.000000	100.280374
2893.000000	100.280615
2892.000000	100.281263
2891.000000	100.281192
2890.000000	100.280560
2889.000000	100.280294
2888.000000	100.280633
2887.000000	100.281124
2886.000000	100.281766
2885.000000	100.283053
2884.000000	100.284752
2883.000000	100.285476
2882.000000	100.284002
2881.000000	100.280749
2880.000000	100.277615
2879.000000	100.276287
2878.000000	100.276797
2877.000000	100.277902
2876.000000	100.279061
2875.000000	100.281658
2874.000000	100.287548
2873.000000	100.296479
2872.000000	100.305920
2871.000000	100.313908
2870.000000	100.321062
2869.000000	100.328942
2868.000000	100.337282
2867.000000	100.343977
2866.000000	100.347461
2865.000000	100.348067
2864.000000	100.347237
2863.000000	100.346493
2862.000000	100.347377
2861.000000	100.351309
2860.000000	100.358675
2859.000000	100.368241
2858.000000	100.377865
2857.000000	100.385758
2856.000000	100.391154
2855.000000	100.394268
2854.000000	100.396020
2853.000000	100.397703
2852.000000	100.400518
2851.000000	100.404924
2850.000000	100.409931
2849.000000	100.413046
2848.000000	100.411725
2847.000000	100.405692
2846.000000	100.397832
2845.000000	100.392024
2844.000000	100.389591
2843.000000	100.388379
2842.000000	100.385452
2841.000000	100.380252
2840.000000	100.374932
2839.000000	100.372129
2838.000000	100.372938
2837.000000	100.376740
2836.000000	100.382073
2835.000000	100.387415
2834.000000	100.391669
2833.000000	100.394392
2832.000000	100.395560
2831.000000	100.395087
2830.000000	100.392923
2829.000000	100.389783
2828.000000	100.387272
2827.000000	100.386673
2826.000000	100.387818
2825.000000	100.389626
2824.000000	100.391540
2823.000000	100.393768
2822.000000	100.396239
2821.000000	100.398263
2820.000000	100.399417
2819.000000	100.399944
2818.000000	100.399971
2817.000000	100.399232
2816.000000	100.398078
2815.000000	100.397856
2814.000000	100.399433
2813.000000	100.402037
2812.000000	100.404354
2811.000000	100.406209
2810.000000	100.408294
2809.000000	100.410642
2808.000000	100.412401
2807.000000	100.413052
2806.000000	100.413024
2805.000000	100.413051
2804.000000	100.413422
2803.000000	100.413933
2802.000000	100.414310
2801.000000	100.414537
2800.000000	100.414928
2799.000000	100.415959
2798.000000	100.417833
2797.000000	100.420100
2796.000000	100.421930
2795.000000	100.422862
2794.000000	100.423017
2793.000000	100.422646
2792.000000	100.421846
2791.000000	100.420931
2790.000000	100.420620
2789.000000	100.421396
2788.000000	100.422968
2787.000000	100.424711
2786.000000	100.426466
2785.000000	100.428520
2784.000000	100.430915
2783.000000	100.433149
2782.000000	100.434581
2781.000000	100.434936
2780.000000	100.434477
2779.000000	100.433929
2778.000000	100.434000
2777.000000	100.434716
2776.000000	100.435362
2775.000000	100.435389
2774.000000	100.435243
2773.000000	100.435924
2772.000000	100.437819
2771.000000	100.440380
2770.000000	100.442821
2769.000000	100.444746
2768.000000	100.446012
2767.000000	100.446515
2766.000000	100.446358
2765.000000	100.445863
2764.000000	100.445164
2763.000000	100.444112
2762.000000	100.442798
2761.000000	100.441859
2760.000000	100.441871
2759.000000	100.442750
2758.000000	100.444029
2757.000000	100.445417
2756.000000	100.446786
2755.000000	100.447843
2754.000000	100.448344
2753.000000	100.448614
2752.000000	100.449434
2751.000000	100.451247
2750.000000	100.453700
2749.000000	100.455920
2748.000000	100.457202
2747.000000	100.457392
2746.000000	100.456822
2745.000000	100.456212
2744.000000	100.456266
2743.000000	100.457128
2742.000000	100.458326
2741.000000	100.459284
2740.000000	100.459883
2739.000000	100.460367
2738.000000	100.460835
2737.000000	100.461088
2736.000000	100.461024
2735.000000	100.460892
2734.000000	100.461010
2733.000000	100.461356
2732.000000	100.461617
2731.000000	100.461596
2730.000000	100.461422
2729.000000	100.461377
2728.000000	100.461606
2727.000000	100.462066
2726.000000	100.462652
2725.000000	100.463283
2724.000000	100.463871
2723.000000	100.464319
2722.000000	100.464587
2721.000000	100.464738
2720.000000	100.464913
2719.000000	100.465216
2718.000000	100.465631
2717.000000	100.466069
2716.000000	100.466456
2715.000000	100.466783
2714.000000	100.467080
2713.000000	100.467357
2712.000000	100.467590
2711.000000	100.467753
2710.000000	100.467845
2709.000000	100.467900
2708.000000	100.467959
2707.000000	100.468046
2706.000000	100.468158
2705.000000	100.468289
2704.000000	100.468428
2703.000000	100.468564
2702.000000	100.468690
2701.000000	100.468812
2700.000000	100.468944
2699.000000	100.469093
2698.000000	100.469260
2697.000000	100.469443
2696.000000	100.469641
2695.000000	100.469858
2694.000000	100.470099
2693.000000	100.470360
2692.000000	100.470631
2691.000000	100.470903
2690.000000	100.471171
2689.000000	100.471437
2688.000000	100.471700
2687.000000	100.471954
2686.000000	100.472194
2685.000000	100.472417
2684.000000	100.472628
2683.000000	100.472835
2682.000000	100.473045
2681.000000	100.473251
2680.000000	100.473439
2679.000000	100.473593
2678.000000	100.473709
2677.000000	100.473793
2676.000000	100.473854
2675.000000	100.473898
2674.000000	100.473929
2673.000000	100.473950
2672.000000	100.473964
2671.000000	100.473969
2670.000000	100.473963
2669.000000	100.473948
2668.000000	100.473928
2667.000000	100.473902
2666.000000	100.473866
2665.000000	100.473808
2664.000000	100.473720
2663.000000	100.473592
2662.000000	100.473426
2661.000000	100.473232
2660.000000	100.473020
2659.000000	100.472793
2658.000000	100.472546
2657.000000	100.472271
2656.000000	100.471965
2655.000000	100.471632
2654.000000	100.471274
2653.000000	100.470894
2652.000000	100.470496
2651.000000	100.470093
2650.000000	100.469697
2649.000000	100.469320
2648.000000	100.468960
2647.000000	100.468606
2646.000000	100.468248
2645.000000	100.467882
2644.000000	100.467517
2643.000000	100.467169
2642.000000	100.466845
2641.000000	100.466539
2640.000000	100.466239
2639.000000	100.465938
2638.000000	100.465642
2637.000000	100.465351
2636.000000	100.465102
2635.000000	100.464916
2634.000000	100.464710
2633.000000	100.464386
2632.000000	100.464009
2631.000000	100.463767
2630.000000	100.463755
2629.000000	100.463859
2628.000000	100.463862
2627.000000	100.463595
2626.000000	100.463042
2625.000000	100.462432
2624.000000	100.462111
2623.000000	100.462183
2622.000000	100.462369
2621.000000	100.462414
2620.000000	100.462486
2619.000000	100.462833
2618.000000	100.463202
2617.000000	100.463069
2616.000000	100.462556
2615.000000	100.462535
2614.000000	100.463477
2613.000000	100.464763
2612.000000	100.465619
2611.000000	100.466385
2610.000000	100.468060
2609.000000	100.470711
2608.000000	100.473134
2607.000000	100.474252
2606.000000	100.474113
2605.000000	100.473389
2604.000000	100.472608
2603.000000	100.472273
2602.000000	100.472957
2601.000000	100.474538
2600.000000	100.475885
2599.000000	100.476095
2598.000000	100.475659
2597.000000	100.475557
2596.000000	100.475640
2595.000000	100.474640
2594.000000	100.471734
2593.000000	100.467736
2592.000000	100.464531
2591.000000	100.463488
2590.000000	100.464487
2589.000000	100.466111
2588.000000	100.466787
2587.000000	100.466040
2586.000000	100.464682
2585.000000	100.463751
2584.000000	100.463439
2583.000000	100.463218
2582.000000	100.462723
2581.000000	100.462031
2580.000000	100.461200
2579.000000	100.460109
2578.000000	100.458948
2577.000000	100.458398
2576.000000	100.458991
2575.000000	100.460503
2574.000000	100.462236
2573.000000	100.463757
2572.000000	100.465074
2571.000000	100.466226
2570.000000	100.467011
2569.000000	100.467174
2568.000000	100.466614
2567.000000	100.465349
2566.000000	100.463530
2565.000000	100.461601
2564.000000	100.460201
2563.000000	100.459718
2562.000000	100.460040
2561.000000	100.460771
2560.000000	100.461554
2559.000000	100.462129
2558.000000	100.462280
2557.000000	100.461968
2556.000000	100.461494
2555.000000	100.461320
2554.000000	100.461623
2553.000000	100.462135
2552.000000	100.462455
2551.000000	100.462448
2550.000000	100.462253
2549.000000	100.462032
2548.000000	100.461842
2547.000000	100.461728
2546.000000	100.461769
2545.000000	100.461981
2544.000000	100.462252
2543.000000	100.462428
2542.000000	100.462442
2541.000000	100.462344
2540.000000	100.462230
2539.000000	100.462166
2538.000000	100.462162
2537.000000	100.462188
2536.000000	100.462218
2535.000000	100.462235
2534.000000	100.462235
2533.000000	100.462223
2532.000000	100.462225
2531.000000	100.462282
2530.000000	100.462401
2529.000000	100.462548
2528.000000	100.462686
2527.000000	100.462807
2526.000000	100.462926
2525.000000	100.463054
2524.000000	100.463197
2523.000000	100.463356
2522.000000	100.463529
2521.000000	100.463712
2520.000000	100.463894
2519.000000	100.464070
2518.000000	100.464238
2517.000000	100.464398
2516.000000	100.464556
2515.000000	100.464714
2514.000000	100.464871
2513.000000	100.465028
2512.000000	100.465190
2511.000000	100.465364
2510.000000	100.465549
2509.000000	100.465741
2508.000000	100.465923
2507.000000	100.466079
2506.000000	100.466205
2505.000000	100.466322
2504.000000	100.466450
2503.000000	100.466592
2502.000000	100.466730
2501.000000	100.466849
2500.000000	100.466952
2499.000000	100.467040
2498.000000	100.467099
2497.000000	100.467118
2496.000000	100.467127
2495.000000	100.467174
2494.000000	100.467275
2493.000000	100.467413
2492.000000	100.467582
2491.000000	100.467807
2490.000000	100.468067
2489.000000	100.468260
2488.000000	100.468284
2487.000000	100.468177
2486.000000	100.468110
2485.000000	100.468222
2484.000000	100.468505
2483.000000	100.468872
2482.000000	100.469243
2481.000000	100.469525
2480.000000	100.469566
2479.000000	100.469246
2478.000000	100.468601
2477.000000	100.467854
2476.000000	100.467292
2475.000000	100.467092
2474.000000	100.467228
2473.000000	100.467508
2472.000000	100.467694
2471.000000	100.467604
2470.000000	100.467194
2469.000000	100.466648
2468.000000	100.466338
2467.000000	100.466525
2466.000000	100.467067
2465.000000	100.467532
2464.000000	100.467625
2463.000000	100.467450
2462.000000	100.467258
2461.000000	100.467089
2460.000000	100.466794
2459.000000	100.466339
2458.000000	100.465954
2457.000000	100.465922
2456.000000	100.466270
2455.000000	100.466666
2454.000000	100.466643
2453.000000	100.466029
2452.000000	100.465228
2451.000000	100.464949
2450.000000	100.465544
2449.000000	100.466754
2448.000000	100.468035
2447.000000	100.469063
2446.000000	100.469814
2445.000000	100.470274
2444.000000	100.470357
2443.000000	100.470092
2442.000000	100.469723
2441.000000	100.469558
2440.000000	100.469761
2439.000000	100.470307
2438.000000	100.471027
2437.000000	100.471671
2436.000000	100.472026
2435.000000	100.472055
2434.000000	100.471924
2433.000000	100.471899
2432.000000	100.472191
2431.000000	100.472840
2430.000000	100.473633
2429.000000	100.474165
2428.000000	100.474124
2427.000000	100.473565
2426.000000	100.472886
2425.000000	100.472479
2424.000000	100.472444
2423.000000	100.472640
2422.000000	100.472866
2421.000000	100.472932
2420.000000	100.472751
2419.000000	100.472535
2418.000000	100.472744
2417.000000	100.473651
2416.000000	100.474986
2415.000000	100.476139
2414.000000	100.476667
2413.000000	100.476426
2412.000000	100.475423
2411.000000	100.473891
2410.000000	100.472468
2409.000000	100.471836
2408.000000	100.472044
2407.000000	100.472414
2406.000000	100.472315
2405.000000	100.471905
2404.000000	100.471907
2403.000000	100.472794
2402.000000	100.474363
2401.000000	100.475920
2400.000000	100.476793
2399.000000	100.476767
2398.000000	100.476137
2397.000000	100.475336
2396.000000	100.474458
2395.000000	100.473238
2394.000000	100.471621
2393.000000	100.470032
2392.000000	100.468934
2391.000000	100.468522
2390.000000	100.468650
2389.000000	100.469060
2388.000000	100.469523
2387.000000	100.469825
2386.000000	100.469552
2385.000000	100.468134
2384.000000	100.465473
2383.000000	100.462421
2382.000000	100.460222
2381.000000	100.459290
2380.000000	100.458799
2379.000000	100.457719
2378.000000	100.456022
2377.000000	100.454416
2376.000000	100.453271
2375.000000	100.452233
2374.000000	100.450844
2373.000000	100.449145
2372.000000	100.447323
2371.000000	100.445324
2370.000000	100.443088
2369.000000	100.440753
2368.000000	100.438455
2367.000000	100.436437
2366.000000	100.435406
2365.000000	100.435792
2364.000000	100.436800
2363.000000	100.437585
2362.000000	100.437369
2361.000000	100.435425
2360.000000	100.432611
2359.000000	100.429907
2358.000000	100.428338
2357.000000	100.427900
2356.000000	100.427357
2355.000000	100.426683
2354.000000	100.425617
2353.000000	100.423578
2352.000000	100.417946
2351.000000	100.407806
2350.000000	100.398404
2349.000000	100.395607
2348.000000	100.401872
2347.000000	100.412911
2346.000000	100.422169
2345.000000	100.427302
2344.000000	100.429439
2343.000000	100.431630
2342.000000	100.433395
2341.000000	100.434649
2340.000000	100.435740
2339.000000	100.436701
2338.000000	100.436955
2337.000000	100.436194
2336.000000	100.435181
2335.000000	100.434630
2334.000000	100.434497
2333.000000	100.434890
2332.000000	100.436448
2331.000000	100.438666
2330.000000	100.441565
2329.000000	100.443262
2328.000000	100.445061
2327.000000	100.447015
2326.000000	100.449263
2325.000000	100.450878
2324.000000	100.450936
2323.000000	100.450627
2322.000000	100.450453
2321.000000	100.451150
2320.000000	100.451877
2319.000000	100.451827
2318.000000	100.451181
2317.000000	100.450874
2316.000000	100.452442
2315.000000	100.455147
2314.000000	100.457780
2313.000000	100.458534
2312.000000	100.458183
2311.000000	100.457493
2310.000000	100.457779
2309.000000	100.458619
2308.000000	100.459869
2307.000000	100.460679
2306.000000	100.460716
2305.000000	100.459821
2304.000000	100.458939
2303.000000	100.458078
2302.000000	100.457104
2301.000000	100.455525
2300.000000	100.453951
2299.000000	100.452506
2298.000000	100.451594
2297.000000	100.450812
2296.000000	100.450453
2295.000000	100.450253
2294.000000	100.450259
2293.000000	100.450478
2292.000000	100.451401
2291.000000	100.452961
2290.000000	100.454396
2289.000000	100.455027
2288.000000	100.454896
2287.000000	100.454378
2286.000000	100.453305
2285.000000	100.451529
2284.000000	100.449453
2283.000000	100.447850
2282.000000	100.446792
2281.000000	100.445934
2280.000000	100.445246
2279.000000	100.445198
2278.000000	100.445804
2277.000000	100.446437
2276.000000	100.446725
2275.000000	100.446901
2274.000000	100.447204
2273.000000	100.447296
2272.000000	100.446933
2271.000000	100.446457
2270.000000	100.446342
2269.000000	100.446460
2268.000000	100.446309
2267.000000	100.445782
2266.000000	100.445364
2265.000000	100.445481
2264.000000	100.446035
2263.000000	100.446518
2262.000000	100.446521
2261.000000	100.446025
2260.000000	100.445268
2259.000000	100.444549
2258.000000	100.444006
2257.000000	100.443704
2256.000000	100.443667
2255.000000	100.443821
2254.000000	100.443940
2253.000000	100.443749
2252.000000	100.443199
2251.000000	100.442521
2250.000000	100.442033
2249.000000	100.441849
2248.000000	100.441886
2247.000000	100.442041
2246.000000	100.442288
2245.000000	100.442593
2244.000000	100.442850
2243.000000	100.442926
2242.000000	100.442762
2241.000000	100.442444
2240.000000	100.442203
2239.000000	100.442291
2238.000000	100.442752
2237.000000	100.443318
2236.000000	100.443597
2235.000000	100.443450
2234.000000	100.443124
2233.000000	100.443015
2232.000000	100.443297
2231.000000	100.443825
2230.000000	100.444294
2229.000000	100.444422
2228.000000	100.444065
2227.000000	100.443345
2226.000000	100.442705
2225.000000	100.442602
2224.000000	100.443034
2223.000000	100.443478
2222.000000	100.443502
2221.000000	100.443313
2220.000000	100.443366
2219.000000	100.443473
2218.000000	100.442796
2217.000000	100.440891
2216.000000	100.438453
2215.000000	100.436768
2214.000000	100.436405
2213.000000	100.436917
2212.000000	100.437548
2211.000000	100.438010
2210.000000	100.438424
2209.000000	100.438914
2208.000000	100.439516
2207.000000	100.440208
2206.000000	100.440822
2205.000000	100.441110
2204.000000	100.441092
2203.000000	100.441110
2202.000000	100.441396
2201.000000	100.441762
2200.000000	100.441882
2199.000000	100.441719
2198.000000	100.441493
2197.000000	100.441389
2196.000000	100.441468
2195.000000	100.441742
2194.000000	100.442137
2193.000000	100.442424
2192.000000	100.442358
2191.000000	100.441843
2190.000000	100.440936
2189.000000	100.439776
2188.000000	100.438578
2187.000000	100.437570
2186.000000	100.436875
2185.000000	100.436486
2184.000000	100.436423
2183.000000	100.436780
2182.000000	100.437529
2181.000000	100.438433
2180.000000	100.439294
2179.000000	100.440175
2178.000000	100.441239
2177.000000	100.442405
2176.000000	100.443306
2175.000000	100.443635
2174.000000	100.443461
2173.000000	100.443159
2172.000000	100.443040
2171.000000	100.443125
2170.000000	100.443246
2169.000000	100.443295
2168.000000	100.443295
2167.000000	100.443261
2166.000000	100.443138
2165.000000	100.442948
2164.000000	100.442896
2163.000000	100.443187
2162.000000	100.443759
2161.000000	100.444282
2160.000000	100.444468
2159.000000	100.444312
2158.000000	100.444054
2157.000000	100.443992
2156.000000	100.444245
2155.000000	100.444720
2154.000000	100.445198
2153.000000	100.445517
2152.000000	100.445681
2151.000000	100.445808
2150.000000	100.446017
2149.000000	100.446347
2148.000000	100.446786
2147.000000	100.447313
2146.000000	100.447894
2145.000000	100.448464
2144.000000	100.448958
2143.000000	100.449378
2142.000000	100.449789
2141.000000	100.450259
2140.000000	100.450792
2139.000000	100.451320
2138.000000	100.451767
2137.000000	100.452119
2136.000000	100.452435
2135.000000	100.452798
2134.000000	100.453245
2133.000000	100.453764
2132.000000	100.454322
2131.000000	100.454877
2130.000000	100.455351
2129.000000	100.455664
2128.000000	100.455811
2127.000000	100.455898
2126.000000	100.456072
2125.000000	100.456419
2124.000000	100.456941
2123.000000	100.457575
2122.000000	100.458203
2121.000000	100.458683
2120.000000	100.458923
2119.000000	100.458971
2118.000000	100.459021
2117.000000	100.459274
2116.000000	100.459791
2115.000000	100.460488
2114.000000	100.461241
2113.000000	100.461936
2112.000000	100.462515
2111.000000	100.462995
2110.000000	100.463428
2109.000000	100.463845
2108.000000	100.464257
2107.000000	100.464702
2106.000000	100.465241
2105.000000	100.465866
2104.000000	100.466483
2103.000000	100.467017
2102.000000	100.467488
2101.000000	100.467902
2100.000000	100.468142
2099.000000	100.468045
2098.000000	100.467613
2097.000000	100.467121
2096.000000	100.466923
2095.000000	100.467179
2094.000000	100.467748
2093.000000	100.468340
2092.000000	100.468808
2091.000000	100.469249
2090.000000	100.469829
2089.000000	100.470568
2088.000000	100.471322
2087.000000	100.471920
2086.000000	100.472268
2085.000000	100.472381
2084.000000	100.472409
2083.000000	100.472636
2082.000000	100.473321
2081.000000	100.474406
2080.000000	100.475428
2079.000000	100.475853
2078.000000	100.475529
2077.000000	100.474788
2076.000000	100.474111
2075.000000	100.473766
2074.000000	100.473775
2073.000000	100.474038
2072.000000	100.474410
2071.000000	100.474712
2070.000000	100.474846
2069.000000	100.474883
2068.000000	100.474947
2067.000000	100.474980
2066.000000	100.474775
2065.000000	100.474320
2064.000000	100.473967
2063.000000	100.474053
2062.000000	100.474439
2061.000000	100.474660
2060.000000	100.474568
2059.000000	100.474564
2058.000000	100.475027
2057.000000	100.475670
2056.000000	100.475740
2055.000000	100.474857
2054.000000	100.473422
2053.000000	100.472238
2052.000000	100.471778
2051.000000	100.471831
2050.000000	100.471799
2049.000000	100.471342
2048.000000	100.470801
2047.000000	100.470861
2046.000000	100.471701
2045.000000	100.472537
2044.000000	100.472341
2043.000000	100.470954
2042.000000	100.469212
2041.000000	100.467868
2040.000000	100.466654
2039.000000	100.464917
2038.000000	100.462778
2037.000000	100.461140
2036.000000	100.460578
2035.000000	100.460644
2034.000000	100.460398
2033.000000	100.459379
2032.000000	100.457794
2031.000000	100.456030
2030.000000	100.454294
2029.000000	100.452706
2028.000000	100.451399
2027.000000	100.450324
2026.000000	100.449249
2025.000000	100.448039
2024.000000	100.446890
2023.000000	100.445980
2022.000000	100.445142
2021.000000	100.444048
2020.000000	100.442728
2019.000000	100.441640
2018.000000	100.441142
2017.000000	100.440998
2016.000000	100.440579
2015.000000	100.439575
2014.000000	100.438291
2013.000000	100.437212
2012.000000	100.436397
2011.000000	100.435398
2010.000000	100.433748
2009.000000	100.431428
2008.000000	100.428910
2007.000000	100.426802
2006.000000	100.425441
2005.000000	100.424624
2004.000000	100.423755
2003.000000	100.422338
2002.000000	100.420585
2001.000000	100.419329
2000.000000	100.419122
1999.000000	100.419670
1998.000000	100.419942
1997.000000	100.419283
1996.000000	100.418072
1995.000000	100.417165
1994.000000	100.416871
1993.000000	100.416769
1992.000000	100.416328
1991.000000	100.415520
1990.000000	100.414717
1989.000000	100.414203
1988.000000	100.413971
1987.000000	100.413855
1986.000000	100.413693
1985.000000	100.413382
1984.000000	100.412889
1983.000000	100.412238
1982.000000	100.411491
1981.000000	100.410685
1980.000000	100.409809
1979.000000	100.408917
1978.000000	100.408106
1977.000000	100.407493
1976.000000	100.407093
1975.000000	100.406755
1974.000000	100.406263
1973.000000	100.405526
1972.000000	100.404645
1971.000000	100.403809
1970.000000	100.403172
1969.000000	100.402854
1968.000000	100.402897
1967.000000	100.403128
1966.000000	100.403179
1965.000000	100.402811
1964.000000	100.402099
1963.000000	100.401263
1962.000000	100.400465
1961.000000	100.399812
1960.000000	100.399464
1959.000000	100.399463
1958.000000	100.399455
1957.000000	100.398840
1956.000000	100.397309
1955.000000	100.395208
1954.000000	100.393359
1953.000000	100.392334
1952.000000	100.392051
1951.000000	100.391952
1950.000000	100.391689
1949.000000	100.391273
1948.000000	100.390659
1947.000000	100.389567
1946.000000	100.387873
1945.000000	100.386012
1944.000000	100.384682
1943.000000	100.384134
1942.000000	100.384014
1941.000000	100.384000
1940.000000	100.384258
1939.000000	100.384923
1938.000000	100.385544
1937.000000	100.385396
1936.000000	100.384277
1935.000000	100.382692
1934.000000	100.381196
1933.000000	100.379802
1932.000000	100.378089
1931.000000	100.375847
1930.000000	100.373705
1929.000000	100.372298
1928.000000	100.371321
1927.000000	100.369786
1926.000000	100.367185
1925.000000	100.364340
1924.000000	100.362207
1923.000000	100.360846
1922.000000	100.359542
1921.000000	100.357863
1920.000000	100.355980
1919.000000	100.354040
1918.000000	100.351845
1917.000000	100.349478
1916.000000	100.347628
1915.000000	100.346802
1914.000000	100.346512
1913.000000	100.345734
1912.000000	100.343981
1911.000000	100.341741
1910.000000	100.339897
1909.000000	100.338525
1908.000000	100.336845
1907.000000	100.334190
1906.000000	100.330790
1905.000000	100.327843
1904.000000	100.325914
1903.000000	100.324468
1902.000000	100.322560
1901.000000	100.319776
1900.000000	100.316736
1899.000000	100.314439
1898.000000	100.313301
1897.000000	100.313158
1896.000000	100.313128
1895.000000	100.312057
1894.000000	100.309404
1893.000000	100.305807
1892.000000	100.302494
1891.000000	100.300125
1890.000000	100.298573
1889.000000	100.297667
1888.000000	100.297478
1887.000000	100.297418
1886.000000	100.296033
1885.000000	100.292675
1884.000000	100.288600
1883.000000	100.285580
1882.000000	100.284046
1881.000000	100.283329
1880.000000	100.283368
1879.000000	100.284337
1878.000000	100.285094
1877.000000	100.284474
1876.000000	100.283074
1875.000000	100.282137
1874.000000	100.281507
1873.000000	100.279910
1872.000000	100.277153
1871.000000	100.274599
1870.000000	100.273190
1869.000000	100.272264
1868.000000	100.271382
1867.000000	100.271970
1866.000000	100.275063
1865.000000	100.279490
1864.000000	100.283278
1863.000000	100.285223
1862.000000	100.284878
1861.000000	100.282520
1860.000000	100.279926
1859.000000	100.279733
1858.000000	100.282832
1857.000000	100.287298
1856.000000	100.290747
1855.000000	100.292946
1854.000000	100.295178
1853.000000	100.297783
1852.000000	100.300198
1851.000000	100.302379
1850.000000	100.303839
1849.000000	100.304183
1848.000000	100.303988
1847.000000	100.304525
1846.000000	100.305904
1845.000000	100.306707
1844.000000	100.306137
1843.000000	100.305907
1842.000000	100.307909
1841.000000	100.310799
1840.000000	100.312229
1839.000000	100.311768
1838.000000	100.310836
1837.000000	100.310986
1836.000000	100.311926
1835.000000	100.312421
1834.000000	100.311985
1833.000000	100.311209
1832.000000	100.311072
1831.000000	100.311613
1830.000000	100.311325
1829.000000	100.309738
1828.000000	100.308585
1827.000000	100.309052
1826.000000	100.310239
1825.000000	100.310914
1824.000000	100.311404
1823.000000	100.313062
1822.000000	100.315814
1821.000000	100.317802
1820.000000	100.317950
1819.000000	100.317153
1818.000000	100.316934
1817.000000	100.317309
1816.000000	100.316480
1815.000000	100.313932
1814.000000	100.311283
1813.000000	100.310426
1812.000000	100.311846
1811.000000	100.313766
1810.000000	100.314368
1809.000000	100.313177
1808.000000	100.311008
1807.000000	100.309510
1806.000000	100.309419
1805.000000	100.309957
1804.000000	100.310347
1803.000000	100.311385
1802.000000	100.313436
1801.000000	100.314464
1800.000000	100.312792
1799.000000	100.309166
1798.000000	100.306123
1797.000000	100.304689
1796.000000	100.304851
1795.000000	100.307372
1794.000000	100.311970
1793.000000	100.315416
1792.000000	100.315022
1791.000000	100.313230
1790.000000	100.314187
1789.000000	100.316705
1788.000000	100.317776
1787.000000	100.318152
1786.000000	100.320812
1785.000000	100.326133
1784.000000	100.331332
1783.000000	100.335603
1782.000000	100.339465
1781.000000	100.341975
1780.000000	100.343250
1779.000000	100.344142
1778.000000	100.345823
1777.000000	100.347468
1776.000000	100.349132
1775.000000	100.353597
1774.000000	100.362224
1773.000000	100.371676
1772.000000	100.376407
1771.000000	100.377479
1770.000000	100.381619
1769.000000	100.390953
1768.000000	100.401678
1767.000000	100.410456
1766.000000	100.418282
1765.000000	100.428391
1764.000000	100.442168
1763.000000	100.458651
1762.000000	100.474686
1761.000000	100.486468
1760.000000	100.492617
1759.000000	100.493172
1758.000000	100.488821
1757.000000	100.479009
1756.000000	100.465274
1755.000000	100.452074
1754.000000	100.442251
1753.000000	100.435118
1752.000000	100.428755
1751.000000	100.421450
1750.000000	100.413268
1749.000000	100.405158
1748.000000	100.396177
1747.000000	100.387122
1746.000000	100.379773
1745.000000	100.375475
1744.000000	100.374365
1743.000000	100.374865
1742.000000	100.375931
1741.000000	100.376294
1740.000000	100.372700
1739.000000	100.364311
1738.000000	100.357039
1737.000000	100.355636
1736.000000	100.358800
1735.000000	100.363029
1734.000000	100.363191
1733.000000	100.359129
1732.000000	100.356802
1731.000000	100.356283
1730.000000	100.355444
1729.000000	100.354516
1728.000000	100.353754
1727.000000	100.352466
1726.000000	100.349200
1725.000000	100.344830
1724.000000	100.341524
1723.000000	100.339559
1722.000000	100.338247
1721.000000	100.336678
1720.000000	100.334211
1719.000000	100.330587
1718.000000	100.326172
1717.000000	100.322167
1716.000000	100.319259
1715.000000	100.316822
1714.000000	100.314275
1713.000000	100.311604
1712.000000	100.308918
1711.000000	100.306250
1710.000000	100.303587
1709.000000	100.300918
1708.000000	100.298245
1707.000000	100.295571
1706.000000	100.292900
1705.000000	100.290227
1704.000000	100.287550
1703.000000	100.284862
1702.000000	100.282156
1701.000000	100.279416
1700.000000	100.276637
1699.000000	100.273834
1698.000000	100.271030
1697.000000	100.268227
1696.000000	100.265409
1695.000000	100.262565
1694.000000	100.259697
1693.000000	100.256819
1692.000000	100.253952
1691.000000	100.251056
1690.000000	100.248025
1689.000000	100.244749
1688.000000	100.241300
1687.000000	100.237964
1686.000000	100.235004
1685.000000	100.232401
1684.000000	100.229259
1683.000000	100.226061
1682.000000	100.224523
1681.000000	100.223717
1680.000000	100.221774
1679.000000	100.218365
1678.000000	100.214508
1677.000000	100.211494
1676.000000	100.209133
1675.000000	100.205892
1674.000000	100.201711
1673.000000	100.199054
1672.000000	100.199071
1671.000000	100.200426
1670.000000	100.201169
1669.000000	100.199866
1668.000000	100.197896
1667.000000	100.196934
1666.000000	100.196545
1665.000000	100.196260
1664.000000	100.195509
1663.000000	100.193378
1662.000000	100.189754
1661.000000	100.185932
1660.000000	100.183564
1659.000000	100.181888
1658.000000	100.179245
1657.000000	100.175290
1656.000000	100.171967
1655.000000	100.169583
1654.000000	100.169920
1653.000000	100.169543
1652.000000	100.165653
1651.000000	100.166584
1650.000000	100.170527
1649.000000	100.172127
1648.000000	100.172496
1647.000000	100.172710
1646.000000	100.174210
1645.000000	100.178851
1644.000000	100.185214
1643.000000	100.191167
1642.000000	100.196395
1641.000000	100.200303
1640.000000	100.202885
1639.000000	100.204310
1638.000000	100.205139
1637.000000	100.206335
1636.000000	100.208551
1635.000000	100.211684
1634.000000	100.217262
1633.000000	100.226006
1632.000000	100.234474
1631.000000	100.240819
1630.000000	100.245012
1629.000000	100.247222
1628.000000	100.248346
1627.000000	100.250711
1626.000000	100.256531
1625.000000	100.265962
1624.000000	100.276757
1623.000000	100.284280
1622.000000	100.286292
1621.000000	100.286179
1620.000000	100.289248
1619.000000	100.297986
1618.000000	100.311642
1617.000000	100.324657
1616.000000	100.331262
1615.000000	100.333876
1614.000000	100.337024
1613.000000	100.341388
1612.000000	100.347256
1611.000000	100.355540
1610.000000	100.365423
1609.000000	100.374556
1608.000000	100.381452
1607.000000	100.386450
1606.000000	100.390177
1605.000000	100.393151
1604.000000	100.396877
1603.000000	100.401757
1602.000000	100.407003
1601.000000	100.412678
1600.000000	100.419492
1599.000000	100.426913
1598.000000	100.432793
1597.000000	100.435918
1596.000000	100.437077
1595.000000	100.437642
1594.000000	100.438444
1593.000000	100.440188
1592.000000	100.443864
1591.000000	100.449661
1590.000000	100.456286
1589.000000	100.462220
1588.000000	100.467347
1587.000000	100.471944
1586.000000	100.475702
1585.000000	100.477739
1584.000000	100.478946
1583.000000	100.480529
1582.000000	100.480350
1581.000000	100.476202
1580.000000	100.469489
1579.000000	100.463073
1578.000000	100.457622
1577.000000	100.453364
1576.000000	100.449670
1575.000000	100.447214
1574.000000	100.447644
1573.000000	100.448884
1572.000000	100.448500
1571.000000	100.445911
1570.000000	100.441106
1569.000000	100.435015
1568.000000	100.431178
1567.000000	100.429900
1566.000000	100.427708
1565.000000	100.422888
1564.000000	100.417280
1563.000000	100.412208
1562.000000	100.407309
1561.000000	100.400903
1560.000000	100.397534
1559.000000	100.398040
1558.000000	100.397146
1557.000000	100.400205
1556.000000	100.408104
1555.000000	100.416756
1554.000000	100.422752
1553.000000	100.423393
1552.000000	100.422103
1551.000000	100.421925
1550.000000	100.423105
1549.000000	100.423535
1548.000000	100.421366
1547.000000	100.417543
1546.000000	100.413522
1545.000000	100.410965
1544.000000	100.411483
1543.000000	100.415328
1542.000000	100.421610
1541.000000	100.428978
1540.000000	100.431677
1539.000000	100.425784
1538.000000	100.416753
1537.000000	100.409306
1536.000000	100.402354
1535.000000	100.395467
1534.000000	100.388083
1533.000000	100.379841
1532.000000	100.372402
1531.000000	100.365502
1530.000000	100.357520
1529.000000	100.348610
1528.000000	100.340309
1527.000000	100.334787
1526.000000	100.332488
1525.000000	100.331880
1524.000000	100.331805
1523.000000	100.331801
1522.000000	100.331445
1521.000000	100.329199
1520.000000	100.325300
1519.000000	100.321964
1518.000000	100.320339
1517.000000	100.321485
1516.000000	100.324719
1515.000000	100.327824
1514.000000	100.328757
1513.000000	100.326324
1512.000000	100.320667
1511.000000	100.313397
1510.000000	100.307681
1509.000000	100.305861
1508.000000	100.309507
1507.000000	100.317301
1506.000000	100.322786
1505.000000	100.323433
1504.000000	100.322648
1503.000000	100.322037
1502.000000	100.321630
1501.000000	100.321146
1500.000000	100.320242
1499.000000	100.319551
1498.000000	100.320463
1497.000000	100.323771
1496.000000	100.327137
1495.000000	100.327867
1494.000000	100.326084
1493.000000	100.323030
1492.000000	100.319902
1491.000000	100.318344
1490.000000	100.319933
1489.000000	100.324214
1488.000000	100.328239
1487.000000	100.329901
1486.000000	100.330198
1485.000000	100.330234
1484.000000	100.330523
1483.000000	100.331280
1482.000000	100.331898
1481.000000	100.331729
1480.000000	100.330542
1479.000000	100.329121
1478.000000	100.328507
1477.000000	100.329198
1476.000000	100.330347
1475.000000	100.331152
1474.000000	100.331814
1473.000000	100.333449
1472.000000	100.337371
1471.000000	100.343218
1470.000000	100.349055
1469.000000	100.352723
1468.000000	100.353357
1467.000000	100.352099
1466.000000	100.351048
1465.000000	100.350892
1464.000000	100.351248
1463.000000	100.351140
1462.000000	100.349969
1461.000000	100.347498
1460.000000	100.344207
1459.000000	100.341741
1458.000000	100.343040
1457.000000	100.348095
1456.000000	100.351387
1455.000000	100.350428
1454.000000	100.346314
1453.000000	100.339903
1452.000000	100.331441
1451.000000	100.321488
1450.000000	100.312739
1449.000000	100.307879
1448.000000	100.305314
1447.000000	100.301767
1446.000000	100.296194
1445.000000	100.290422
1444.000000	100.286644
1443.000000	100.283335
1442.000000	100.278331
1441.000000	100.272299
1440.000000	100.268306
1439.000000	100.268118
1438.000000	100.271397
1437.000000	100.275458
1436.000000	100.275780
1435.000000	100.271792
1434.000000	100.267533
1433.000000	100.266312
1432.000000	100.268111
1431.000000	100.270396
1430.000000	100.271414
1429.000000	100.272361
1428.000000	100.273950
1427.000000	100.275868
1426.000000	100.277355
1425.000000	100.277693
1424.000000	100.276784
1423.000000	100.274145
1422.000000	100.270918
1421.000000	100.269903
1420.000000	100.273369
1419.000000	100.279497
1418.000000	100.284394
1417.000000	100.287975
1416.000000	100.291755
1415.000000	100.295923
1414.000000	100.299606
1413.000000	100.301995
1412.000000	100.303009
1411.000000	100.303038
1410.000000	100.303437
1409.000000	100.306084
1408.000000	100.310971
1407.000000	100.316851
1406.000000	100.323084
1405.000000	100.329780
1404.000000	100.336586
1403.000000	100.341653
1402.000000	100.344252
1401.000000	100.345923
1400.000000	100.348328
1399.000000	100.351104
1398.000000	100.352965
1397.000000	100.354587
1396.000000	100.358431
1395.000000	100.366328
1394.000000	100.376641
1393.000000	100.385720
1392.000000	100.391513
1391.000000	100.393829
1390.000000	100.393697
1389.000000	100.393083
1388.000000	100.394136
1387.000000	100.398020
1386.000000	100.403906
1385.000000	100.409407
1384.000000	100.412452
1383.000000	100.412397
1382.000000	100.410769
1381.000000	100.410071
1380.000000	100.411125
1379.000000	100.412788
1378.000000	100.414006
1377.000000	100.415322
1376.000000	100.417964
1375.000000	100.422719
1374.000000	100.429649
1373.000000	100.438285
1372.000000	100.447055
1371.000000	100.453822
1370.000000	100.457795
1369.000000	100.460640
1368.000000	100.464896
1367.000000	100.470366
1366.000000	100.474205
1365.000000	100.474523
1364.000000	100.472487
1363.000000	100.471393
1362.000000	100.473553
1361.000000	100.477836
1360.000000	100.480864
1359.000000	100.480323
1358.000000	100.476778
1357.000000	100.473157
1356.000000	100.472094
1355.000000	100.473393
1354.000000	100.474681
1353.000000	100.474436
1352.000000	100.472859
1351.000000	100.470858
1350.000000	100.468889
1349.000000	100.467183
1348.000000	100.466429
1347.000000	100.467091
1346.000000	100.468806
1345.000000	100.470319
1344.000000	100.470007
1343.000000	100.467084
1342.000000	100.462968
1341.000000	100.460977
1340.000000	100.463278
1339.000000	100.467970
1338.000000	100.470888
1337.000000	100.470776
1336.000000	100.470283
1335.000000	100.472003
1334.000000	100.475625
1333.000000	100.478957
1332.000000	100.480098
1331.000000	100.478279
1330.000000	100.474175
1329.000000	100.470338
1328.000000	100.469832
1327.000000	100.473205
1326.000000	100.477394
1325.000000	100.478792
1324.000000	100.476898
1323.000000	100.473887
1322.000000	100.471757
1321.000000	100.471119
1320.000000	100.472067
1319.000000	100.474329
1318.000000	100.476557
1317.000000	100.477166
1316.000000	100.476301
1315.000000	100.475871
1314.000000	100.477187
1313.000000	100.479361
1312.000000	100.480316
1311.000000	100.478820
1310.000000	100.475363
1309.000000	100.471938
1308.000000	100.470961
1307.000000	100.473494
1306.000000	100.477838
1305.000000	100.480664
1304.000000	100.480194
1303.000000	100.477788
1302.000000	100.476267
1301.000000	100.476857
1300.000000	100.478239
1299.000000	100.478374
1298.000000	100.476698
1297.000000	100.474473
1296.000000	100.473345
1295.000000	100.473834
1294.000000	100.475256
1293.000000	100.476643
1292.000000	100.477248
1291.000000	100.476374
1290.000000	100.473485
1289.000000	100.468887
1288.000000	100.463871
1287.000000	100.459890
1286.000000	100.457879
1285.000000	100.458375
1284.000000	100.461348
1283.000000	100.465368
1282.000000	100.467933
1281.000000	100.467568
1280.000000	100.465126
1279.000000	100.462223
1278.000000	100.459128
1277.000000	100.455220
1276.000000	100.450858
1275.000000	100.447469
1274.000000	100.446039
1273.000000	100.446709
1272.000000	100.449500
1271.000000	100.454100
1270.000000	100.459230
1269.000000	100.463680
1268.000000	100.467940
1267.000000	100.473293
1266.000000	100.479316
1265.000000	100.483727
1264.000000	100.484821
1263.000000	100.482773
1262.000000	100.478613
1261.000000	100.473346
1260.000000	100.468157
1259.000000	100.463636
1258.000000	100.458437
1257.000000	100.450509
1256.000000	100.440213
1255.000000	100.430573
1254.000000	100.423586
1253.000000	100.417860
1252.000000	100.410991
1251.000000	100.402711
1250.000000	100.394233
1249.000000	100.385707
1248.000000	100.376116
1247.000000	100.365210
1246.000000	100.354115
1245.000000	100.344171
1244.000000	100.336172
1243.000000	100.330621
1242.000000	100.327600
1241.000000	100.326006
1240.000000	100.323319
1239.000000	100.316720
1238.000000	100.305076
1237.000000	100.290127
1236.000000	100.275125
1235.000000	100.261620
1234.000000	100.248068
1233.000000	100.232453
1232.000000	100.215405
1231.000000	100.199012
1230.000000	100.182975
1229.000000	100.164287
1228.000000	100.141147
1227.000000	100.115101
1226.000000	100.088455
1225.000000	100.061449
1224.000000	100.033290
1223.000000	100.004285
1222.000000	99.975088
1221.000000	99.944714
1220.000000	99.910988
1219.000000	99.872761
1218.000000	99.830782
1217.000000	99.786635
1216.000000	99.741193
1215.000000	99.693403
1214.000000	99.640207
1213.000000	99.578702
1212.000000	99.508985
1211.000000	99.434327
1210.000000	99.358531
1209.000000	99.284191
1208.000000	99.213333
1207.000000	99.147442
1206.000000	99.086065
1205.000000	99.027157
1204.000000	98.969266
1203.000000	98.911667
1202.000000	98.852562
1201.000000	98.789677
1200.000000	98.723204
1199.000000	98.656006
1198.000000	98.590260
1197.000000	98.525786
1196.000000	98.461633
1195.000000	98.396794
1194.000000	98.329413
1193.000000	98.258136
1192.000000	98.184345
1191.000000	98.110362
1190.000000	98.035786
1189.000000	97.958802
1188.000000	97.880609
1187.000000	97.804406
1186.000000	97.729792
1185.000000	97.652549
1184.000000	97.570486
1183.000000	97.485199
1182.000000	97.397589
1181.000000	97.306546
1180.000000	97.213009
1179.000000	97.120051
1178.000000	97.027190
1177.000000	96.929973
1176.000000	96.827522
1175.000000	96.725418
1174.000000	96.628198
1173.000000	96.533625
1172.000000	96.437570
1171.000000	96.340235
1170.000000	96.244257
1169.000000	96.150483
1168.000000	96.059104
1167.000000	95.972543
1166.000000	95.895426
1165.000000	95.834550
1164.000000	95.799206
1163.000000	95.796560
1162.000000	95.824606
1161.000000	95.872658
1160.000000	95.928209
1159.000000	95.978588
1158.000000	96.008224
1157.000000	96.003649
1156.000000	95.963975
1155.000000	95.900986
1154.000000	95.826755
1153.000000	95.745865
1152.000000	95.660888
1151.000000	95.577361
1150.000000	95.498482
1149.000000	95.420845
1148.000000	95.340471
1147.000000	95.258513
1146.000000	95.177258
1145.000000	95.095580
1144.000000	95.012673
1143.000000	94.931487
1142.000000	94.853790
1141.000000	94.775762
1140.000000	94.692784
1139.000000	94.605237
1138.000000	94.516187
1137.000000	94.426854
1136.000000	94.337482
1135.000000	94.248964
1134.000000	94.160480
1133.000000	94.068856
1132.000000	93.972565
1131.000000	93.872941
1130.000000	93.770232
1129.000000	93.663170
1128.000000	93.554036
1127.000000	93.448667
1126.000000	93.348904
1125.000000	93.249918
1124.000000	93.146993
1123.000000	93.039824
1122.000000	92.928643
1121.000000	92.812416
1120.000000	92.693699
1119.000000	92.579729
1118.000000	92.475703
1117.000000	92.381173
1116.000000	92.293628
1115.000000	92.209893
1114.000000	92.124056
1113.000000	92.031618
1112.000000	91.936557
1111.000000	91.846746
1110.000000	91.761951
1109.000000	91.674612
1108.000000	91.582553
1107.000000	91.491238
1106.000000	91.402189
1105.000000	91.309281
1104.000000	91.209387
1103.000000	91.107635
1102.000000	91.009436
1101.000000	90.915497
1100.000000	90.826177
1099.000000	90.741869
1098.000000	90.657584
1097.000000	90.566706
1096.000000	90.471183
1095.000000	90.378797
1094.000000	90.290407
1093.000000	90.200589
1092.000000	90.110630
1091.000000	90.028136
1090.000000	89.952668
1089.000000	89.874904
1088.000000	89.792059
1087.000000	89.711165
1086.000000	89.635070
1085.000000	89.558671
1084.000000	89.481793
1083.000000	89.412006
1082.000000	89.350966
1081.000000	89.291150
1080.000000	89.230165
1079.000000	89.175265
1078.000000	89.129177
1077.000000	89.083657
1076.000000	89.031323
1075.000000	88.972100
1074.000000	88.904652
1073.000000	88.823509
1072.000000	88.727833
1071.000000	88.621089
1070.000000	88.499319
1069.000000	88.352456
1068.000000	88.180625
1067.000000	87.996913
1066.000000	87.810473
1065.000000	87.619012
1064.000000	87.421541
1063.000000	87.224763
1062.000000	87.032367
1061.000000	86.841272
1060.000000	86.652933
1059.000000	86.474806
1058.000000	86.306186
1057.000000	86.136067
1056.000000	85.959108
1055.000000	85.780199
1054.000000	85.599868
1053.000000	85.410301
1052.000000	85.210967
1051.000000	85.012265
1050.000000	84.816935
1049.000000	84.614263
1048.000000	84.398697
1047.000000	84.176622
1046.000000	83.950781
1045.000000	83.716450
1044.000000	83.476553
1043.000000	83.242551
1042.000000	83.015953
1041.000000	82.785651
1040.000000	82.548328
1039.000000	82.315364
1038.000000	82.095186
1037.000000	81.885473
1036.000000	81.686789
1035.000000	81.506397
1034.000000	81.344026
1033.000000	81.191008
1032.000000	81.047267
1031.000000	80.921707
1030.000000	80.813158
1029.000000	80.710364
1028.000000	80.614098
1027.000000	80.538406
1026.000000	80.484841
1025.000000	80.435870
1024.000000	80.379792
1023.000000	80.322796
1022.000000	80.270230
1021.000000	80.215499
1020.000000	80.154360
1019.000000	80.092374
1018.000000	80.031981
1017.000000	79.968875
1016.000000	79.904987
1015.000000	79.846931
1014.000000	79.788484
1013.000000	79.714873
1012.000000	79.629241
1011.000000	79.554380
1010.000000	79.502130
1009.000000	79.460511
1008.000000	79.417123
1007.000000	79.375885
1006.000000	79.343419
1005.000000	79.317753
1004.000000	79.298789
1003.000000	79.293114
1002.000000	79.300640
1001.000000	79.311414
1000.000000	79.321328
999.000000	79.336314
998.000000	79.357368
997.000000	79.377816
996.000000	79.398958
995.000000	79.431040
994.000000	79.474366
993.000000	79.516616
992.000000	79.553316
991.000000	79.594048
990.000000	79.644396
989.000000	79.699476
988.000000	79.759714
987.000000	79.834802
986.000000	79.926330
985.000000	80.023604
984.000000	80.122561
983.000000	80.232698
982.000000	80.359903
981.000000	80.498637
980.000000	80.646386
979.000000	80.810086
978.000000	80.992218
977.000000	81.185138
976.000000	81.384592
975.000000	81.595678
974.000000	81.821350
973.000000	82.058035
972.000000	82.305408
971.000000	82.566964
970.000000	82.838278
969.000000	83.107988
968.000000	83.372647
967.000000	83.637706
966.000000	83.903060
965.000000	84.161759
964.000000	84.414055
963.000000	84.667820
962.000000	84.922697
961.000000	85.168055
960.000000	85.399590
959.000000	85.624585
958.000000	85.847819
957.000000	86.064898
956.000000	86.272552
955.000000	86.473403
954.000000	86.667575
953.000000	86.850607
952.000000	87.021993
951.000000	87.185396
950.000000	87.339309
949.000000	87.478327
948.000000	87.604110
947.000000	87.723629
946.000000	87.836370
945.000000	87.935481
944.000000	88.021992
943.000000	88.104816
942.000000	88.185467
941.000000	88.256306
940.000000	88.316068
939.000000	88.373752
938.000000	88.434360
937.000000	88.493852
936.000000	88.551664
935.000000	88.615226
934.000000	88.687779
933.000000	88.763282
932.000000	88.836865
931.000000	88.909233
930.000000	88.978881
929.000000	89.042744
928.000000	89.107148
927.000000	89.184477
926.000000	89.274308
925.000000	89.359923
924.000000	89.427892
923.000000	89.480003
922.000000	89.523081
921.000000	89.559954
920.000000	89.594792
919.000000	89.634183
918.000000	89.676651
917.000000	89.712613
916.000000	89.740996
915.000000	89.775222
914.000000	89.826641
913.000000	89.892401
912.000000	89.965898
911.000000	90.049515
910.000000	90.150479
909.000000	90.272491
908.000000	90.417130
907.000000	90.585618
906.000000	90.774185
905.000000	90.974486
904.000000	91.181957
903.000000	91.397520
902.000000	91.620402
901.000000	91.847230
900.000000	92.078360
899.000000	92.315892
898.000000	92.554682
897.000000	92.784400
896.000000	93.000986
895.000000	93.207048
894.000000	93.401664
893.000000	93.580612
892.000000	93.747422
891.000000	93.912863
890.000000	94.080436
889.000000	94.242142
888.000000	94.391536
887.000000	94.531471
886.000000	94.666079
885.000000	94.794961
884.000000	94.919688
883.000000	95.046972
882.000000	95.179905
881.000000	95.313292
880.000000	95.442332
879.000000	95.569166
878.000000	95.697153
877.000000	95.825756
876.000000	95.954985
875.000000	96.088085
874.000000	96.226169
873.000000	96.366602
872.000000	96.509709
871.000000	96.660443
870.000000	96.820133
869.000000	96.982257
868.000000	97.139309
867.000000	97.289373
866.000000	97.434407
865.000000	97.576332
864.000000	97.715743
863.000000	97.850278
862.000000	97.973742
861.000000	98.080906
860.000000	98.173348
859.000000	98.257290
858.000000	98.337600
857.000000	98.418861
856.000000	98.509257
855.000000	98.614134
854.000000	98.724699
853.000000	98.821892
852.000000	98.894911
851.000000	98.950474
850.000000	99.001905
849.000000	99.054429
848.000000	99.103586
847.000000	99.142886
846.000000	99.169712
845.000000	99.186747
844.000000	99.199355
843.000000	99.209188
842.000000	99.210720
841.000000	99.197344
840.000000	99.168952
839.000000	99.128662
838.000000	99.074977
837.000000	99.005203
836.000000	98.926043
835.000000	98.851943
834.000000	98.791078
833.000000	98.740995
832.000000	98.699974
831.000000	98.672966
830.000000	98.661860
829.000000	98.659042
828.000000	98.657849
827.000000	98.663202
826.000000	98.684766
825.000000	98.723813
824.000000	98.771934
823.000000	98.817553
822.000000	98.849879
821.000000	98.862987
820.000000	98.860901
819.000000	98.854382
818.000000	98.849167
817.000000	98.839906
816.000000	98.816104
815.000000	98.769399
814.000000	98.693611
813.000000	98.581962
812.000000	98.426219
811.000000	98.216015
810.000000	97.940009
809.000000	97.593639
808.000000	97.186885
807.000000	96.738790
806.000000	96.262829
805.000000	95.764496
804.000000	95.255104
803.000000	94.758729
802.000000	94.301515
801.000000	93.903241
800.000000	93.582508
799.000000	93.357067
798.000000	93.231148
797.000000	93.191284
796.000000	93.219297
795.000000	93.300455
794.000000	93.417482
793.000000	93.549346
792.000000	93.680530
791.000000	93.802135
790.000000	93.902255
789.000000	93.966123
788.000000	93.987507
787.000000	93.968830
786.000000	93.908261
785.000000	93.799290
784.000000	93.647252
783.000000	93.474217
782.000000	93.301749
781.000000	93.140079
780.000000	93.000289
779.000000	92.904751
778.000000	92.875639
777.000000	92.919883
776.000000	93.029681
775.000000	93.188119
774.000000	93.370479
773.000000	93.551955
772.000000	93.722140
771.000000	93.886159
770.000000	94.048464
769.000000	94.202404
768.000000	94.337426
767.000000	94.448030
766.000000	94.533304
765.000000	94.596465
764.000000	94.647699
763.000000	94.698849
762.000000	94.752076
761.000000	94.801384
760.000000	94.846440
759.000000	94.895065
758.000000	94.950775
757.000000	95.009761
756.000000	95.072847
755.000000	95.146994
754.000000	95.229821
753.000000	95.306519
752.000000	95.370505
751.000000	95.435533
750.000000	95.517176
749.000000	95.611173
748.000000	95.701011
747.000000	95.781411
746.000000	95.863955
745.000000	95.962091
744.000000	96.079134
743.000000	96.209876
742.000000	96.347449
741.000000	96.488255
740.000000	96.632822
739.000000	96.781483
738.000000	96.929686
737.000000	97.070751
736.000000	97.202341
735.000000	97.324831
734.000000	97.434191
733.000000	97.523644
732.000000	97.593194
731.000000	97.650877
730.000000	97.703049
729.000000	97.749485
728.000000	97.788614
727.000000	97.821623
726.000000	97.851067
725.000000	97.881169
724.000000	97.919817
723.000000	97.973635
722.000000	98.039964
721.000000	98.109851
720.000000	98.179005
719.000000	98.248935
718.000000	98.318042
717.000000	98.380733
716.000000	98.436248
715.000000	98.489109
714.000000	98.539151
713.000000	98.580151
712.000000	98.610370
711.000000	98.635480
710.000000	98.658354
709.000000	98.674946
708.000000	98.682522
707.000000	98.682131
706.000000	98.670035
705.000000	98.635508
704.000000	98.571059
703.000000	98.476551
702.000000	98.348183
701.000000	98.172935
700.000000	97.940992
699.000000	97.657948
698.000000	97.345049
697.000000	97.037534
696.000000	96.783732
695.000000	96.630289
694.000000	96.596155
693.000000	96.665158
692.000000	96.804185
691.000000	96.979656
690.000000	97.160027
689.000000	97.320942
688.000000	97.459256
687.000000	97.590835
686.000000	97.723028
685.000000	97.841233
684.000000	97.930847
683.000000	97.997172
682.000000	98.055309
681.000000	98.113772
680.000000	98.178042
679.000000	98.254407
678.000000	98.338646
677.000000	98.414284
676.000000	98.472212
675.000000	98.525984
674.000000	98.593826
673.000000	98.672380
672.000000	98.741381
671.000000	98.789088
670.000000	98.819850
669.000000	98.846575
668.000000	98.896369
667.000000	98.969834
666.000000	99.037748
665.000000	99.103081
664.000000	99.177561
663.000000	99.252839
662.000000	99.311983
661.000000	99.349140
660.000000	99.373265
659.000000	99.392911
658.000000	99.408067
657.000000	99.415774
656.000000	99.414620
655.000000	99.405607
654.000000	99.393638
653.000000	99.386615
652.000000	99.389742
651.000000	99.400539
650.000000	99.411646
649.000000	99.420806
648.000000	99.436046
647.000000	99.467919
646.000000	99.516441
645.000000	99.569465
644.000000	99.617128
643.000000	99.660997
642.000000	99.705211
641.000000	99.747699
640.000000	99.787348
639.000000	99.832123
638.000000	99.889003
637.000000	99.948417
636.000000	99.989469
635.000000	100.002265
634.000000	99.998204
633.000000	99.996553
632.000000	100.008439
631.000000	100.034357
630.000000	100.067088
629.000000	100.096591
628.000000	100.118786
627.000000	100.141184
626.000000	100.176446
625.000000	100.229377
624.000000	100.296474
623.000000	100.374580
622.000000	100.457006
621.000000	100.522483
620.000000	100.543349
619.000000	100.515614
618.000000	100.475854
617.000000	100.471247
616.000000	100.511601
615.000000	100.563529
614.000000	100.588530
613.000000	100.574749
612.000000	100.531868
611.000000	100.473044
610.000000	100.413018
609.000000	100.374324
608.000000	100.381556
607.000000	100.440881
606.000000	100.522435
605.000000	100.571688
604.000000	100.544208
603.000000	100.432090
602.000000	100.270063
601.000000	100.120390
600.000000	100.042265
599.000000	100.058322
598.000000	100.136740
597.000000	100.216772
596.000000	100.257077
595.000000	100.250955
594.000000	100.211223
593.000000	100.159507
592.000000	100.122540
591.000000	100.112244
590.000000	100.107659
589.000000	100.087855
588.000000	100.080790
587.000000	100.139400
586.000000	100.259657
585.000000	100.366092
584.000000	100.403022
583.000000	100.400251
582.000000	100.421022
581.000000	100.477674
580.000000	100.533244
579.000000	100.557028
578.000000	100.543892
577.000000	100.503400
576.000000	100.461895
575.000000	100.457382
574.000000	100.495825
573.000000	100.531735
572.000000	100.514824
571.000000	100.428481
570.000000	100.281667
569.000000	100.099109
568.000000	99.932019
567.000000	99.834179
566.000000	99.792865
565.000000	99.735560
564.000000	99.627462
563.000000	99.500385
562.000000	99.368967
561.000000	99.193130
560.000000	98.967378
559.000000	98.771245
558.000000	98.656702
557.000000	98.546030
556.000000	98.328003
555.000000	98.014912
554.000000	97.738350
553.000000	97.605115
552.000000	97.628368
551.000000	97.756009
550.000000	97.878434
