PE IR       SUBTECH     SPECTRUM    ASCII       PEDS        4.00        
   -1
BH1 8-7 28 0_1.asc
24/05/14
12:25:54.00
24/05/14
12:26:34.00
Administrator
?品 031 用? Administrator 日期 Tuesday, May 14 2024
550.000000
#HDR
-1
-1
#GR
cm-1
%T
1.0
0.0
4000.000000
-1.000000
3451
8
100.902747
83.663564
#DATA
4000.000000	100.778553
3999.000000	100.777389
3998.000000	100.776230
3997.000000	100.775107
3996.000000	100.774017
3995.000000	100.772941
3994.000000	100.771880
3993.000000	100.770822
3992.000000	100.769754
3991.000000	100.768677
3990.000000	100.767603
3989.000000	100.766547
3988.000000	100.765521
3987.000000	100.764529
3986.000000	100.763567
3985.000000	100.762631
3984.000000	100.761719
3983.000000	100.760835
3982.000000	100.759983
3981.000000	100.759161
3980.000000	100.758357
3979.000000	100.757559
3978.000000	100.756757
3977.000000	100.755943
3976.000000	100.755123
3975.000000	100.754324
3974.000000	100.753586
3973.000000	100.752930
3972.000000	100.752319
3971.000000	100.751677
3970.000000	100.750965
3969.000000	100.750239
3968.000000	100.749633
3967.000000	100.749257
3966.000000	100.749103
3965.000000	100.749005
3964.000000	100.748750
3963.000000	100.748224
3962.000000	100.747527
3961.000000	100.746895
3960.000000	100.746435
3959.000000	100.745994
3958.000000	100.745341
3957.000000	100.744483
3956.000000	100.743741
3955.000000	100.743420
3954.000000	100.743437
3953.000000	100.743334
3952.000000	100.742733
3951.000000	100.741783
3950.000000	100.741050
3949.000000	100.740960
3948.000000	100.741472
3947.000000	100.742377
3946.000000	100.743632
3945.000000	100.745118
3944.000000	100.746268
3943.000000	100.746352
3942.000000	100.745221
3941.000000	100.743556
3940.000000	100.742164
3939.000000	100.741335
3938.000000	100.740967
3937.000000	100.741005
3936.000000	100.741472
3935.000000	100.742100
3934.000000	100.742365
3933.000000	100.741990
3932.000000	100.741247
3931.000000	100.740611
3930.000000	100.740147
3929.000000	100.739493
3928.000000	100.738298
3927.000000	100.736556
3926.000000	100.734610
3925.000000	100.733035
3924.000000	100.732346
3923.000000	100.732601
3922.000000	100.733327
3921.000000	100.733854
3920.000000	100.733827
3919.000000	100.733389
3918.000000	100.732888
3917.000000	100.732499
3916.000000	100.732142
3915.000000	100.731685
3914.000000	100.731095
3913.000000	100.730432
3912.000000	100.729776
3911.000000	100.729203
3910.000000	100.728758
3909.000000	100.728440
3908.000000	100.728199
3907.000000	100.727944
3906.000000	100.727596
3905.000000	100.727147
3904.000000	100.726702
3903.000000	100.726397
3902.000000	100.726246
3901.000000	100.726136
3900.000000	100.725960
3899.000000	100.725720
3898.000000	100.725493
3897.000000	100.725333
3896.000000	100.725215
3895.000000	100.725080
3894.000000	100.724887
3893.000000	100.724638
3892.000000	100.724367
3891.000000	100.724110
3890.000000	100.723901
3889.000000	100.723752
3888.000000	100.723663
3887.000000	100.723629
3886.000000	100.723636
3885.000000	100.723673
3884.000000	100.723729
3883.000000	100.723793
3882.000000	100.723853
3881.000000	100.723894
3880.000000	100.723908
3879.000000	100.723891
3878.000000	100.723851
3877.000000	100.723798
3876.000000	100.723744
3875.000000	100.723696
3874.000000	100.723665
3873.000000	100.723658
3872.000000	100.723676
3871.000000	100.723712
3870.000000	100.723762
3869.000000	100.723827
3868.000000	100.723915
3867.000000	100.724029
3866.000000	100.724165
3865.000000	100.724322
3864.000000	100.724505
3863.000000	100.724708
3862.000000	100.724915
3861.000000	100.725108
3860.000000	100.725280
3859.000000	100.725434
3858.000000	100.725580
3857.000000	100.725724
3856.000000	100.725866
3855.000000	100.725999
3854.000000	100.726118
3853.000000	100.726230
3852.000000	100.726361
3851.000000	100.726530
3850.000000	100.726743
3849.000000	100.726981
3848.000000	100.727217
3847.000000	100.727428
3846.000000	100.727602
3845.000000	100.727720
3844.000000	100.727751
3843.000000	100.727672
3842.000000	100.727489
3841.000000	100.727249
3840.000000	100.727030
3839.000000	100.726899
3838.000000	100.726874
3837.000000	100.726904
3836.000000	100.726916
3835.000000	100.726877
3834.000000	100.726796
3833.000000	100.726708
3832.000000	100.726635
3831.000000	100.726571
3830.000000	100.726483
3829.000000	100.726322
3828.000000	100.726038
3827.000000	100.725633
3826.000000	100.725203
3825.000000	100.724915
3824.000000	100.724924
3823.000000	100.725248
3822.000000	100.725594
3821.000000	100.725547
3820.000000	100.725005
3819.000000	100.724183
3818.000000	100.723267
3817.000000	100.722282
3816.000000	100.721319
3815.000000	100.720727
3814.000000	100.720785
3813.000000	100.721260
3812.000000	100.721561
3811.000000	100.721325
3810.000000	100.720684
3809.000000	100.719978
3808.000000	100.719246
3807.000000	100.718210
3806.000000	100.716837
3805.000000	100.715527
3804.000000	100.714605
3803.000000	100.714041
3802.000000	100.713493
3801.000000	100.712953
3800.000000	100.713154
3799.000000	100.714386
3798.000000	100.715825
3797.000000	100.716372
3796.000000	100.715708
3795.000000	100.714475
3794.000000	100.713501
3793.000000	100.713149
3792.000000	100.713443
3791.000000	100.714297
3790.000000	100.715335
3789.000000	100.715920
3788.000000	100.715779
3787.000000	100.715484
3786.000000	100.716008
3785.000000	100.717663
3784.000000	100.719609
3783.000000	100.720568
3782.000000	100.719829
3781.000000	100.717694
3780.000000	100.715311
3779.000000	100.713953
3778.000000	100.714042
3777.000000	100.714858
3776.000000	100.715194
3775.000000	100.714453
3774.000000	100.713163
3773.000000	100.712327
3772.000000	100.712146
3771.000000	100.711650
3770.000000	100.709960
3769.000000	100.707538
3768.000000	100.705678
3767.000000	100.704824
3766.000000	100.704095
3765.000000	100.702470
3764.000000	100.700297
3763.000000	100.699021
3762.000000	100.699309
3761.000000	100.700167
3760.000000	100.700196
3759.000000	100.699452
3758.000000	100.698881
3757.000000	100.698653
3756.000000	100.698002
3755.000000	100.696034
3754.000000	100.692566
3753.000000	100.688731
3752.000000	100.687016
3751.000000	100.688746
3750.000000	100.691089
3749.000000	100.690225
3748.000000	100.686496
3747.000000	100.683495
3746.000000	100.683932
3745.000000	100.685546
3744.000000	100.685661
3743.000000	100.686818
3742.000000	100.689993
3741.000000	100.690776
3740.000000	100.685968
3739.000000	100.677742
3738.000000	100.670621
3737.000000	100.665873
3736.000000	100.661905
3735.000000	100.658624
3734.000000	100.657737
3733.000000	100.659507
3732.000000	100.662751
3731.000000	100.667423
3730.000000	100.674197
3729.000000	100.681924
3728.000000	100.687424
3727.000000	100.688028
3726.000000	100.684753
3725.000000	100.681477
3724.000000	100.679972
3723.000000	100.677618
3722.000000	100.670917
3721.000000	100.660174
3720.000000	100.649028
3719.000000	100.640723
3718.000000	100.635521
3717.000000	100.631499
3716.000000	100.627130
3715.000000	100.621787
3714.000000	100.615026
3713.000000	100.606504
3712.000000	100.596473
3711.000000	100.586038
3710.000000	100.575795
3709.000000	100.565481
3708.000000	100.554955
3707.000000	100.543812
3706.000000	100.531340
3705.000000	100.517388
3704.000000	100.503401
3703.000000	100.492263
3702.000000	100.485840
3701.000000	100.483018
3700.000000	100.480902
3699.000000	100.477795
3698.000000	100.474098
3697.000000	100.470664
3696.000000	100.467412
3695.000000	100.463139
3694.000000	100.456277
3693.000000	100.446856
3692.000000	100.438043
3691.000000	100.435005
3690.000000	100.440109
3689.000000	100.449436
3688.000000	100.456896
3687.000000	100.460598
3686.000000	100.461934
3685.000000	100.461709
3684.000000	100.460146
3683.000000	100.458291
3682.000000	100.457353
3681.000000	100.456623
3680.000000	100.453793
3679.000000	100.447466
3678.000000	100.438323
3677.000000	100.427153
3676.000000	100.413704
3675.000000	100.399799
3674.000000	100.388810
3673.000000	100.381792
3672.000000	100.376946
3671.000000	100.372066
3670.000000	100.366268
3669.000000	100.360793
3668.000000	100.356694
3667.000000	100.353006
3666.000000	100.348384
3665.000000	100.342401
3664.000000	100.335359
3663.000000	100.327792
3662.000000	100.320001
3661.000000	100.312012
3660.000000	100.304235
3659.000000	100.297149
3658.000000	100.290421
3657.000000	100.282660
3656.000000	100.273807
3655.000000	100.266871
3654.000000	100.264590
3653.000000	100.265959
3652.000000	100.266610
3651.000000	100.262360
3650.000000	100.253364
3649.000000	100.243811
3648.000000	100.235904
3647.000000	100.228243
3646.000000	100.219877
3645.000000	100.211330
3644.000000	100.202730
3643.000000	100.193558
3642.000000	100.184155
3641.000000	100.175733
3640.000000	100.168408
3639.000000	100.160223
3638.000000	100.150110
3637.000000	100.140534
3636.000000	100.134867
3635.000000	100.132379
3634.000000	100.128325
3633.000000	100.119977
3632.000000	100.110108
3631.000000	100.103078
3630.000000	100.098272
3629.000000	100.090480
3628.000000	100.078000
3627.000000	100.064856
3626.000000	100.054162
3625.000000	100.045909
3624.000000	100.039950
3623.000000	100.037386
3622.000000	100.039065
3621.000000	100.043947
3620.000000	100.049552
3619.000000	100.054043
3618.000000	100.057234
3617.000000	100.060060
3616.000000	100.064276
3615.000000	100.072244
3614.000000	100.085608
3613.000000	100.103343
3612.000000	100.121283
3611.000000	100.134429
3610.000000	100.140330
3609.000000	100.140492
3608.000000	100.138683
3607.000000	100.137715
3606.000000	100.138247
3605.000000	100.140318
3604.000000	100.144224
3603.000000	100.149232
3602.000000	100.153142
3601.000000	100.154383
3600.000000	100.154108
3599.000000	100.154878
3598.000000	100.157524
3597.000000	100.160383
3596.000000	100.161851
3595.000000	100.162030
3594.000000	100.161481
3593.000000	100.159738
3592.000000	100.155877
3591.000000	100.150121
3590.000000	100.144473
3589.000000	100.141863
3588.000000	100.144504
3587.000000	100.151605
3586.000000	100.159120
3585.000000	100.163153
3584.000000	100.163139
3583.000000	100.161105
3582.000000	100.159130
3581.000000	100.157395
3580.000000	100.154884
3579.000000	100.151592
3578.000000	100.149174
3577.000000	100.149278
3576.000000	100.151718
3575.000000	100.154688
3574.000000	100.156335
3573.000000	100.156173
3572.000000	100.155030
3571.000000	100.154106
3570.000000	100.153985
3569.000000	100.154250
3568.000000	100.154039
3567.000000	100.153126
3566.000000	100.152192
3565.000000	100.151984
3564.000000	100.152553
3563.000000	100.153278
3562.000000	100.153411
3561.000000	100.152647
3560.000000	100.151211
3559.000000	100.149564
3558.000000	100.148121
3557.000000	100.147166
3556.000000	100.146872
3555.000000	100.147241
3554.000000	100.147970
3553.000000	100.148478
3552.000000	100.148234
3551.000000	100.147152
3550.000000	100.145633
3549.000000	100.144167
3548.000000	100.142925
3547.000000	100.141816
3546.000000	100.140829
3545.000000	100.140087
3544.000000	100.139619
3543.000000	100.139425
3542.000000	100.139705
3541.000000	100.140755
3540.000000	100.142565
3539.000000	100.144568
3538.000000	100.146035
3537.000000	100.146643
3536.000000	100.146563
3535.000000	100.145974
3534.000000	100.144764
3533.000000	100.142848
3532.000000	100.140518
3531.000000	100.138263
3530.000000	100.136335
3529.000000	100.134642
3528.000000	100.133024
3527.000000	100.131488
3526.000000	100.130204
3525.000000	100.129484
3524.000000	100.129731
3523.000000	100.131135
3522.000000	100.133270
3521.000000	100.135088
3520.000000	100.135630
3519.000000	100.134835
3518.000000	100.133777
3517.000000	100.133910
3516.000000	100.135839
3515.000000	100.138782
3514.000000	100.141209
3513.000000	100.142170
3512.000000	100.141839
3511.000000	100.140966
3510.000000	100.140082
3509.000000	100.139265
3508.000000	100.138370
3507.000000	100.137173
3506.000000	100.135494
3505.000000	100.133503
3504.000000	100.131915
3503.000000	100.131448
3502.000000	100.132024
3501.000000	100.132749
3500.000000	100.132781
3499.000000	100.132120
3498.000000	100.131479
3497.000000	100.131546
3496.000000	100.132348
3495.000000	100.133184
3494.000000	100.133168
3493.000000	100.131979
3492.000000	100.130054
3491.000000	100.128258
3490.000000	100.127182
3489.000000	100.126781
3488.000000	100.126683
3487.000000	100.126640
3486.000000	100.126600
3485.000000	100.126476
3484.000000	100.126096
3483.000000	100.125390
3482.000000	100.124516
3481.000000	100.123692
3480.000000	100.122954
3479.000000	100.122153
3478.000000	100.121146
3477.000000	100.119934
3476.000000	100.118622
3475.000000	100.117314
3474.000000	100.116074
3473.000000	100.114969
3472.000000	100.114059
3471.000000	100.113330
3470.000000	100.112650
3469.000000	100.111833
3468.000000	100.110800
3467.000000	100.109633
3466.000000	100.108458
3465.000000	100.107268
3464.000000	100.105965
3463.000000	100.104548
3462.000000	100.103174
3461.000000	100.101950
3460.000000	100.100762
3459.000000	100.099394
3458.000000	100.097822
3457.000000	100.096237
3456.000000	100.094798
3455.000000	100.093443
3454.000000	100.092056
3453.000000	100.090725
3452.000000	100.089675
3451.000000	100.088994
3450.000000	100.088488
3449.000000	100.087808
3448.000000	100.086717
3447.000000	100.085201
3446.000000	100.083443
3445.000000	100.081746
3444.000000	100.080370
3443.000000	100.079411
3442.000000	100.078761
3441.000000	100.078147
3440.000000	100.077352
3439.000000	100.076390
3438.000000	100.075428
3437.000000	100.074543
3436.000000	100.073588
3435.000000	100.072353
3434.000000	100.070843
3433.000000	100.069339
3432.000000	100.068200
3431.000000	100.067590
3430.000000	100.067369
3429.000000	100.067216
3428.000000	100.066893
3427.000000	100.066365
3426.000000	100.065655
3425.000000	100.064665
3424.000000	100.063277
3423.000000	100.061697
3422.000000	100.060523
3421.000000	100.060222
3420.000000	100.060593
3419.000000	100.060861
3418.000000	100.060469
3417.000000	100.059642
3416.000000	100.059106
3415.000000	100.059306
3414.000000	100.059995
3413.000000	100.060562
3412.000000	100.060659
3411.000000	100.060420
3410.000000	100.060102
3409.000000	100.059756
3408.000000	100.059354
3407.000000	100.059057
3406.000000	100.059124
3405.000000	100.059628
3404.000000	100.060515
3403.000000	100.061838
3402.000000	100.063536
3401.000000	100.064988
3400.000000	100.065339
3399.000000	100.064483
3398.000000	100.063259
3397.000000	100.062387
3396.000000	100.061486
3395.000000	100.059724
3394.000000	100.057260
3393.000000	100.055446
3392.000000	100.055391
3391.000000	100.056858
3390.000000	100.058605
3389.000000	100.059615
3388.000000	100.059769
3387.000000	100.059462
3386.000000	100.059136
3385.000000	100.059149
3384.000000	100.059726
3383.000000	100.060768
3382.000000	100.061817
3381.000000	100.062433
3380.000000	100.062613
3379.000000	100.062741
3378.000000	100.063145
3377.000000	100.063771
3376.000000	100.064325
3375.000000	100.064677
3374.000000	100.065017
3373.000000	100.065619
3372.000000	100.066497
3371.000000	100.067378
3370.000000	100.067987
3369.000000	100.068336
3368.000000	100.068723
3367.000000	100.069478
3366.000000	100.070673
3365.000000	100.072070
3364.000000	100.073295
3363.000000	100.074156
3362.000000	100.074778
3361.000000	100.075449
3360.000000	100.076320
3359.000000	100.077316
3358.000000	100.078284
3357.000000	100.079152
3356.000000	100.079940
3355.000000	100.080688
3354.000000	100.081446
3353.000000	100.082300
3352.000000	100.083334
3351.000000	100.084549
3350.000000	100.085823
3349.000000	100.086985
3348.000000	100.087963
3347.000000	100.088813
3346.000000	100.089661
3345.000000	100.090610
3344.000000	100.091682
3343.000000	100.092834
3342.000000	100.093990
3341.000000	100.095084
3340.000000	100.096083
3339.000000	100.096993
3338.000000	100.097842
3337.000000	100.098677
3336.000000	100.099581
3335.000000	100.100658
3334.000000	100.101958
3333.000000	100.103404
3332.000000	100.104828
3331.000000	100.106121
3330.000000	100.107336
3329.000000	100.108643
3328.000000	100.110175
3327.000000	100.111906
3326.000000	100.113623
3325.000000	100.115058
3324.000000	100.116089
3323.000000	100.116817
3322.000000	100.117525
3321.000000	100.118453
3320.000000	100.119656
3319.000000	100.121055
3318.000000	100.122536
3317.000000	100.124002
3316.000000	100.125353
3315.000000	100.126502
3314.000000	100.127449
3313.000000	100.128307
3312.000000	100.129213
3311.000000	100.130219
3310.000000	100.131321
3309.000000	100.132569
3308.000000	100.134038
3307.000000	100.135685
3306.000000	100.137308
3305.000000	100.138706
3304.000000	100.139829
3303.000000	100.140756
3302.000000	100.141600
3301.000000	100.142467
3300.000000	100.143454
3299.000000	100.144588
3298.000000	100.145785
3297.000000	100.146926
3296.000000	100.147987
3295.000000	100.149058
3294.000000	100.150210
3293.000000	100.151416
3292.000000	100.152595
3291.000000	100.153706
3290.000000	100.154767
3289.000000	100.155801
3288.000000	100.156786
3287.000000	100.157705
3286.000000	100.158594
3285.000000	100.159500
3284.000000	100.160402
3283.000000	100.161217
3282.000000	100.161929
3281.000000	100.162683
3280.000000	100.163685
3279.000000	100.165001
3278.000000	100.166418
3277.000000	100.167556
3276.000000	100.168192
3275.000000	100.168384
3274.000000	100.168384
3273.000000	100.168479
3272.000000	100.168882
3271.000000	100.169736
3270.000000	100.171121
3269.000000	100.172990
3268.000000	100.175091
3267.000000	100.177034
3266.000000	100.178471
3265.000000	100.179240
3264.000000	100.179404
3263.000000	100.179256
3262.000000	100.179284
3261.000000	100.179970
3260.000000	100.181435
3259.000000	100.183246
3258.000000	100.184802
3257.000000	100.185958
3256.000000	100.187075
3255.000000	100.188449
3254.000000	100.189927
3253.000000	100.191180
3252.000000	100.192109
3251.000000	100.192817
3250.000000	100.193423
3249.000000	100.194077
3248.000000	100.194936
3247.000000	100.195929
3246.000000	100.196697
3245.000000	100.196984
3244.000000	100.196986
3243.000000	100.197086
3242.000000	100.197355
3241.000000	100.197589
3240.000000	100.197800
3239.000000	100.198384
3238.000000	100.199714
3237.000000	100.201765
3236.000000	100.204116
3235.000000	100.206219
3234.000000	100.207692
3233.000000	100.208554
3232.000000	100.209288
3231.000000	100.210497
3230.000000	100.212409
3229.000000	100.214775
3228.000000	100.217190
3227.000000	100.219397
3226.000000	100.221288
3225.000000	100.222796
3224.000000	100.223926
3223.000000	100.224775
3222.000000	100.225362
3221.000000	100.225536
3220.000000	100.225273
3219.000000	100.225084
3218.000000	100.225826
3217.000000	100.227911
3216.000000	100.230886
3215.000000	100.233751
3214.000000	100.235852
3213.000000	100.237254
3212.000000	100.238266
3211.000000	100.238984
3210.000000	100.239466
3209.000000	100.240166
3208.000000	100.241755
3207.000000	100.244385
3206.000000	100.247302
3205.000000	100.249492
3204.000000	100.250708
3203.000000	100.251571
3202.000000	100.252643
3201.000000	100.253719
3200.000000	100.254269
3199.000000	100.254290
3198.000000	100.254419
3197.000000	100.255247
3196.000000	100.256735
3195.000000	100.258387
3194.000000	100.259915
3193.000000	100.261588
3192.000000	100.263879
3191.000000	100.266835
3190.000000	100.269888
3189.000000	100.272330
3188.000000	100.273928
3187.000000	100.275014
3186.000000	100.276070
3185.000000	100.277302
3184.000000	100.278623
3183.000000	100.279885
3182.000000	100.280980
3181.000000	100.281804
3180.000000	100.282320
3179.000000	100.282729
3178.000000	100.283415
3177.000000	100.284610
3176.000000	100.286102
3175.000000	100.287373
3174.000000	100.288029
3173.000000	100.288108
3172.000000	100.287980
3171.000000	100.288103
3170.000000	100.288767
3169.000000	100.289980
3168.000000	100.291490
3167.000000	100.293042
3166.000000	100.294764
3165.000000	100.297086
3164.000000	100.300088
3163.000000	100.303071
3162.000000	100.305013
3161.000000	100.305552
3160.000000	100.305275
3159.000000	100.305237
3158.000000	100.306047
3157.000000	100.307581
3156.000000	100.309419
3155.000000	100.311300
3154.000000	100.313192
3153.000000	100.315083
3152.000000	100.316889
3151.000000	100.318512
3150.000000	100.319892
3149.000000	100.321001
3148.000000	100.321860
3147.000000	100.322567
3146.000000	100.323307
3145.000000	100.324285
3144.000000	100.325631
3143.000000	100.327322
3142.000000	100.329175
3141.000000	100.330951
3140.000000	100.332527
3139.000000	100.333956
3138.000000	100.335372
3137.000000	100.336847
3136.000000	100.338344
3135.000000	100.339799
3134.000000	100.341189
3133.000000	100.342513
3132.000000	100.343761
3131.000000	100.344961
3130.000000	100.346213
3129.000000	100.347614
3128.000000	100.349161
3127.000000	100.350737
3126.000000	100.352206
3125.000000	100.353526
3124.000000	100.354771
3123.000000	100.356057
3122.000000	100.357445
3121.000000	100.358919
3120.000000	100.360430
3119.000000	100.361898
3118.000000	100.363211
3117.000000	100.364305
3116.000000	100.365245
3115.000000	100.366216
3114.000000	100.367376
3113.000000	100.368761
3112.000000	100.370341
3111.000000	100.372056
3110.000000	100.373798
3109.000000	100.375421
3108.000000	100.376836
3107.000000	100.378092
3106.000000	100.379342
3105.000000	100.380726
3104.000000	100.382283
3103.000000	100.383916
3102.000000	100.385401
3101.000000	100.386517
3100.000000	100.387254
3099.000000	100.387851
3098.000000	100.388562
3097.000000	100.389424
3096.000000	100.390368
3095.000000	100.391511
3094.000000	100.393164
3093.000000	100.395478
3092.000000	100.398148
3091.000000	100.400586
3090.000000	100.402452
3089.000000	100.403939
3088.000000	100.405409
3087.000000	100.406751
3086.000000	100.407391
3085.000000	100.407066
3084.000000	100.406374
3083.000000	100.406337
3082.000000	100.407382
3081.000000	100.409061
3080.000000	100.410628
3079.000000	100.411680
3078.000000	100.412228
3077.000000	100.412459
3076.000000	100.412616
3075.000000	100.412958
3074.000000	100.413655
3073.000000	100.414743
3072.000000	100.416186
3071.000000	100.417875
3070.000000	100.419556
3069.000000	100.420922
3068.000000	100.421922
3067.000000	100.422868
3066.000000	100.424085
3065.000000	100.425482
3064.000000	100.426606
3063.000000	100.427127
3062.000000	100.427106
3061.000000	100.426855
3060.000000	100.426651
3059.000000	100.426637
3058.000000	100.426900
3057.000000	100.427522
3056.000000	100.428509
3055.000000	100.429695
3054.000000	100.430759
3053.000000	100.431440
3052.000000	100.431734
3051.000000	100.431851
3050.000000	100.432013
3049.000000	100.432331
3048.000000	100.432864
3047.000000	100.433641
3046.000000	100.434535
3045.000000	100.435239
3044.000000	100.435537
3043.000000	100.435641
3042.000000	100.436107
3041.000000	100.437258
3040.000000	100.438838
3039.000000	100.440191
3038.000000	100.440961
3037.000000	100.441370
3036.000000	100.441879
3035.000000	100.442603
3034.000000	100.443210
3033.000000	100.443383
3032.000000	100.443232
3031.000000	100.443208
3030.000000	100.443656
3029.000000	100.444569
3028.000000	100.445715
3027.000000	100.446834
3026.000000	100.447705
3025.000000	100.448197
3024.000000	100.448454
3023.000000	100.449018
3022.000000	100.450554
3021.000000	100.453199
3020.000000	100.456175
3019.000000	100.458493
3018.000000	100.460071
3017.000000	100.461558
3016.000000	100.462940
3015.000000	100.463102
3014.000000	100.461292
3013.000000	100.458524
3012.000000	100.456804
3011.000000	100.456942
3010.000000	100.457835
3009.000000	100.458186
3008.000000	100.458437
3007.000000	100.460354
3006.000000	100.464763
3005.000000	100.470162
3004.000000	100.473849
3003.000000	100.474264
3002.000000	100.472112
3001.000000	100.469642
3000.000000	100.468949
2999.000000	100.470627
2998.000000	100.473520
2997.000000	100.475676
2996.000000	100.475909
2995.000000	100.474656
2994.000000	100.473322
2993.000000	100.472849
2992.000000	100.473013
2991.000000	100.472947
2990.000000	100.472114
2989.000000	100.470879
2988.000000	100.470248
2987.000000	100.470724
2986.000000	100.471157
2985.000000	100.469139
2984.000000	100.463215
2983.000000	100.454710
2982.000000	100.446932
2981.000000	100.442720
2980.000000	100.443204
2979.000000	100.448240
2978.000000	100.456553
2977.000000	100.465409
2976.000000	100.471730
2975.000000	100.474662
2974.000000	100.476310
2973.000000	100.479176
2972.000000	100.483679
2971.000000	100.488941
2970.000000	100.495005
2969.000000	100.502813
2968.000000	100.512361
2967.000000	100.522388
2966.000000	100.532034
2965.000000	100.541684
2964.000000	100.552003
2963.000000	100.563064
2962.000000	100.574469
2961.000000	100.585226
2960.000000	100.593461
2959.000000	100.597595
2958.000000	100.598234
2957.000000	100.597749
2956.000000	100.597367
2955.000000	100.595914
2954.000000	100.592281
2953.000000	100.587961
2952.000000	100.585839
2951.000000	100.587081
2950.000000	100.590343
2949.000000	100.593494
2948.000000	100.595126
2947.000000	100.594948
2946.000000	100.594070
2945.000000	100.594795
2944.000000	100.598956
2943.000000	100.606326
2942.000000	100.615429
2941.000000	100.625733
2940.000000	100.637906
2939.000000	100.651787
2938.000000	100.665352
2937.000000	100.676449
2936.000000	100.684976
2935.000000	100.692863
2934.000000	100.702205
2933.000000	100.713543
2932.000000	100.725612
2931.000000	100.736784
2930.000000	100.747055
2929.000000	100.758092
2928.000000	100.770451
2927.000000	100.781367
2926.000000	100.787013
2925.000000	100.786971
2924.000000	100.784718
2923.000000	100.783061
2922.000000	100.780749
2921.000000	100.774855
2920.000000	100.764982
2919.000000	100.753516
2918.000000	100.742724
2917.000000	100.733124
2916.000000	100.724134
2915.000000	100.714628
2914.000000	100.703053
2913.000000	100.688733
2912.000000	100.673494
2911.000000	100.660574
2910.000000	100.651246
2909.000000	100.643468
2908.000000	100.634484
2907.000000	100.623905
2906.000000	100.613593
2905.000000	100.605362
2904.000000	100.599939
2903.000000	100.597424
2902.000000	100.597491
2901.000000	100.598582
2900.000000	100.598413
2899.000000	100.595982
2898.000000	100.592365
2897.000000	100.589111
2896.000000	100.586214
2895.000000	100.582380
2894.000000	100.577001
2893.000000	100.571113
2892.000000	100.566243
2891.000000	100.562914
2890.000000	100.560610
2889.000000	100.558835
2888.000000	100.557693
2887.000000	100.557456
2886.000000	100.558032
2885.000000	100.559242
2884.000000	100.561585
2883.000000	100.566127
2882.000000	100.573029
2881.000000	100.580217
2880.000000	100.584240
2879.000000	100.583064
2878.000000	100.577919
2877.000000	100.572164
2876.000000	100.568547
2875.000000	100.567968
2874.000000	100.570233
2873.000000	100.574779
2872.000000	100.580423
2871.000000	100.585476
2870.000000	100.588900
2869.000000	100.590987
2868.000000	100.592557
2867.000000	100.594092
2866.000000	100.595993
2865.000000	100.598778
2864.000000	100.602212
2863.000000	100.605007
2862.000000	100.606633
2861.000000	100.609008
2860.000000	100.615048
2859.000000	100.625470
2858.000000	100.637857
2857.000000	100.648754
2856.000000	100.655746
2855.000000	100.657902
2854.000000	100.655989
2853.000000	100.652672
2852.000000	100.650994
2851.000000	100.651524
2850.000000	100.651862
2849.000000	100.649641
2848.000000	100.645110
2847.000000	100.639973
2846.000000	100.634440
2845.000000	100.626662
2844.000000	100.614979
2843.000000	100.599994
2842.000000	100.584626
2841.000000	100.572661
2840.000000	100.566903
2839.000000	100.567680
2838.000000	100.572430
2837.000000	100.576852
2836.000000	100.577290
2835.000000	100.572864
2834.000000	100.565906
2833.000000	100.560280
2832.000000	100.558551
2831.000000	100.560430
2830.000000	100.563892
2829.000000	100.567392
2828.000000	100.570277
2827.000000	100.571597
2826.000000	100.570221
2825.000000	100.566716
2824.000000	100.563641
2823.000000	100.562844
2822.000000	100.563424
2821.000000	100.563562
2820.000000	100.563523
2819.000000	100.565179
2818.000000	100.568794
2817.000000	100.571970
2816.000000	100.572245
2815.000000	100.569729
2814.000000	100.566682
2813.000000	100.565248
2812.000000	100.565863
2811.000000	100.567299
2810.000000	100.567863
2809.000000	100.566889
2808.000000	100.565213
2807.000000	100.563964
2806.000000	100.563101
2805.000000	100.561671
2804.000000	100.559382
2803.000000	100.557164
2802.000000	100.555975
2801.000000	100.555838
2800.000000	100.556504
2799.000000	100.558383
2798.000000	100.562093
2797.000000	100.567414
2796.000000	100.573324
2795.000000	100.578785
2794.000000	100.582901
2793.000000	100.584731
2792.000000	100.583883
2791.000000	100.581336
2790.000000	100.579162
2789.000000	100.578848
2788.000000	100.580063
2787.000000	100.581316
2786.000000	100.581522
2785.000000	100.580810
2784.000000	100.580000
2783.000000	100.579723
2782.000000	100.580119
2781.000000	100.581113
2780.000000	100.582584
2779.000000	100.584218
2778.000000	100.585538
2777.000000	100.586273
2776.000000	100.586643
2775.000000	100.587123
2774.000000	100.587964
2773.000000	100.589016
2772.000000	100.589960
2771.000000	100.590597
2770.000000	100.590935
2769.000000	100.591142
2768.000000	100.591459
2767.000000	100.592040
2766.000000	100.592826
2765.000000	100.593632
2764.000000	100.594315
2763.000000	100.594877
2762.000000	100.595386
2761.000000	100.595883
2760.000000	100.596364
2759.000000	100.596820
2758.000000	100.597255
2757.000000	100.597676
2756.000000	100.598087
2755.000000	100.598491
2754.000000	100.598884
2753.000000	100.599263
2752.000000	100.599625
2751.000000	100.599973
2750.000000	100.600319
2749.000000	100.600681
2748.000000	100.601068
2747.000000	100.601481
2746.000000	100.601908
2745.000000	100.602339
2744.000000	100.602765
2743.000000	100.603189
2742.000000	100.603618
2741.000000	100.604055
2740.000000	100.604504
2739.000000	100.604967
2738.000000	100.605433
2737.000000	100.605875
2736.000000	100.606294
2735.000000	100.606725
2734.000000	100.607172
2733.000000	100.607606
2732.000000	100.608017
2731.000000	100.608406
2730.000000	100.608760
2729.000000	100.609126
2728.000000	100.609654
2727.000000	100.610417
2726.000000	100.611236
2725.000000	100.611877
2724.000000	100.612315
2723.000000	100.612620
2722.000000	100.612674
2721.000000	100.612336
2720.000000	100.611867
2719.000000	100.611856
2718.000000	100.612733
2717.000000	100.614613
2716.000000	100.617361
2715.000000	100.620456
2714.000000	100.622900
2713.000000	100.623839
2712.000000	100.623456
2711.000000	100.622830
2710.000000	100.622820
2709.000000	100.623463
2708.000000	100.624397
2707.000000	100.625294
2706.000000	100.625734
2705.000000	100.625330
2704.000000	100.624384
2703.000000	100.623929
2702.000000	100.624716
2701.000000	100.626396
2700.000000	100.628011
2699.000000	100.629049
2698.000000	100.629739
2697.000000	100.630534
2696.000000	100.631598
2695.000000	100.632537
2694.000000	100.632469
2693.000000	100.630889
2692.000000	100.628342
2691.000000	100.625974
2690.000000	100.624502
2689.000000	100.623712
2688.000000	100.623118
2687.000000	100.622765
2686.000000	100.623063
2685.000000	100.624105
2684.000000	100.625485
2683.000000	100.626721
2682.000000	100.627560
2681.000000	100.627863
2680.000000	100.627583
2679.000000	100.626963
2678.000000	100.626432
2677.000000	100.626247
2676.000000	100.626285
2675.000000	100.626223
2674.000000	100.625852
2673.000000	100.625247
2672.000000	100.624714
2671.000000	100.624541
2670.000000	100.624780
2669.000000	100.625212
2668.000000	100.625501
2667.000000	100.625437
2666.000000	100.625049
2665.000000	100.624519
2664.000000	100.623965
2663.000000	100.623325
2662.000000	100.622506
2661.000000	100.621653
2660.000000	100.621131
2659.000000	100.621145
2658.000000	100.621456
2657.000000	100.621590
2656.000000	100.621433
2655.000000	100.621431
2654.000000	100.622042
2653.000000	100.623052
2652.000000	100.623595
2651.000000	100.623013
2650.000000	100.621377
2649.000000	100.619434
2648.000000	100.618005
2647.000000	100.617472
2646.000000	100.617804
2645.000000	100.618730
2644.000000	100.619868
2643.000000	100.620793
2642.000000	100.621115
2641.000000	100.620631
2640.000000	100.619591
2639.000000	100.618850
2638.000000	100.619448
2637.000000	100.621768
2636.000000	100.624953
2635.000000	100.627357
2634.000000	100.628005
2633.000000	100.627313
2632.000000	100.626416
2631.000000	100.625776
2630.000000	100.624809
2629.000000	100.622829
2628.000000	100.619976
2627.000000	100.617244
2626.000000	100.615717
2625.000000	100.615777
2624.000000	100.616875
2623.000000	100.617973
2622.000000	100.618477
2621.000000	100.618795
2620.000000	100.619877
2619.000000	100.622174
2618.000000	100.625088
2617.000000	100.627403
2616.000000	100.628194
2615.000000	100.627223
2614.000000	100.624737
2613.000000	100.621331
2612.000000	100.618035
2611.000000	100.616128
2610.000000	100.616408
2609.000000	100.618631
2608.000000	100.621566
2607.000000	100.623837
2606.000000	100.624869
2605.000000	100.624912
2604.000000	100.624520
2603.000000	100.624023
2602.000000	100.623372
2601.000000	100.622381
2600.000000	100.621007
2599.000000	100.619477
2598.000000	100.618192
2597.000000	100.617488
2596.000000	100.617424
2595.000000	100.617700
2594.000000	100.617858
2593.000000	100.617731
2592.000000	100.617560
2591.000000	100.617606
2590.000000	100.617786
2589.000000	100.617800
2588.000000	100.617500
2587.000000	100.616985
2586.000000	100.616409
2585.000000	100.615863
2584.000000	100.615481
2583.000000	100.615455
2582.000000	100.615820
2581.000000	100.616382
2580.000000	100.616922
2579.000000	100.617352
2578.000000	100.617650
2577.000000	100.617703
2576.000000	100.617413
2575.000000	100.616889
2574.000000	100.616392
2573.000000	100.616118
2572.000000	100.616093
2571.000000	100.616242
2570.000000	100.616463
2569.000000	100.616650
2568.000000	100.616722
2567.000000	100.616680
2566.000000	100.616600
2565.000000	100.616581
2564.000000	100.616697
2563.000000	100.616951
2562.000000	100.617267
2561.000000	100.617536
2560.000000	100.617694
2559.000000	100.617762
2558.000000	100.617843
2557.000000	100.618053
2556.000000	100.618414
2555.000000	100.618840
2554.000000	100.619191
2553.000000	100.619392
2552.000000	100.619451
2551.000000	100.619425
2550.000000	100.619390
2549.000000	100.619426
2548.000000	100.619565
2547.000000	100.619763
2546.000000	100.619946
2545.000000	100.620117
2544.000000	100.620382
2543.000000	100.620815
2542.000000	100.621367
2541.000000	100.621920
2540.000000	100.622416
2539.000000	100.622840
2538.000000	100.623128
2537.000000	100.623196
2536.000000	100.623113
2535.000000	100.623130
2534.000000	100.623426
2533.000000	100.623892
2532.000000	100.624248
2531.000000	100.624377
2530.000000	100.624430
2529.000000	100.624581
2528.000000	100.624786
2527.000000	100.624849
2526.000000	100.624656
2525.000000	100.624296
2524.000000	100.624060
2523.000000	100.624267
2522.000000	100.624987
2521.000000	100.625907
2520.000000	100.626609
2519.000000	100.627048
2518.000000	100.627505
2517.000000	100.628051
2516.000000	100.628368
2515.000000	100.628278
2514.000000	100.628166
2513.000000	100.628566
2512.000000	100.629508
2511.000000	100.630558
2510.000000	100.631327
2509.000000	100.631827
2508.000000	100.632283
2507.000000	100.632823
2506.000000	100.633397
2505.000000	100.633874
2504.000000	100.634157
2503.000000	100.634270
2502.000000	100.634380
2501.000000	100.634691
2500.000000	100.635263
2499.000000	100.635975
2498.000000	100.636636
2497.000000	100.637141
2496.000000	100.637516
2495.000000	100.637844
2494.000000	100.638159
2493.000000	100.638409
2492.000000	100.638556
2491.000000	100.638728
2490.000000	100.639159
2489.000000	100.639920
2488.000000	100.640801
2487.000000	100.641529
2486.000000	100.642105
2485.000000	100.642748
2484.000000	100.643583
2483.000000	100.644498
2482.000000	100.645310
2481.000000	100.645948
2480.000000	100.646443
2479.000000	100.646873
2478.000000	100.647370
2477.000000	100.648074
2476.000000	100.649010
2475.000000	100.650005
2474.000000	100.650813
2473.000000	100.651347
2472.000000	100.651726
2471.000000	100.652165
2470.000000	100.652791
2469.000000	100.653575
2468.000000	100.654362
2467.000000	100.655006
2466.000000	100.655526
2465.000000	100.656112
2464.000000	100.656930
2463.000000	100.657943
2462.000000	100.658983
2461.000000	100.659954
2460.000000	100.660870
2459.000000	100.661716
2458.000000	100.662395
2457.000000	100.662872
2456.000000	100.663201
2455.000000	100.663398
2454.000000	100.663448
2453.000000	100.663443
2452.000000	100.663609
2451.000000	100.664135
2450.000000	100.665011
2449.000000	100.666044
2448.000000	100.667018
2447.000000	100.667847
2446.000000	100.668557
2445.000000	100.669170
2444.000000	100.669660
2443.000000	100.670071
2442.000000	100.670586
2441.000000	100.671317
2440.000000	100.672035
2439.000000	100.672307
2438.000000	100.672001
2437.000000	100.671504
2436.000000	100.671377
2435.000000	100.671814
2434.000000	100.672584
2433.000000	100.673298
2432.000000	100.673725
2431.000000	100.673882
2430.000000	100.673996
2429.000000	100.674352
2428.000000	100.675010
2427.000000	100.675694
2426.000000	100.676073
2425.000000	100.676160
2424.000000	100.676275
2423.000000	100.676651
2422.000000	100.677268
2421.000000	100.678011
2420.000000	100.678772
2419.000000	100.679386
2418.000000	100.679701
2417.000000	100.679817
2416.000000	100.680116
2415.000000	100.680895
2414.000000	100.682038
2413.000000	100.683165
2412.000000	100.684035
2411.000000	100.684660
2410.000000	100.685114
2409.000000	100.685439
2408.000000	100.685682
2407.000000	100.685872
2406.000000	100.685943
2405.000000	100.685860
2404.000000	100.685780
2403.000000	100.685907
2402.000000	100.686209
2401.000000	100.686405
2400.000000	100.686282
2399.000000	100.685943
2398.000000	100.685737
2397.000000	100.686003
2396.000000	100.686863
2395.000000	100.688047
2394.000000	100.689012
2393.000000	100.689452
2392.000000	100.689570
2391.000000	100.689810
2390.000000	100.690308
2389.000000	100.690765
2388.000000	100.690836
2387.000000	100.690467
2386.000000	100.689839
2385.000000	100.689211
2384.000000	100.688871
2383.000000	100.689053
2382.000000	100.689750
2381.000000	100.690655
2380.000000	100.691389
2379.000000	100.691831
2378.000000	100.692124
2377.000000	100.692374
2376.000000	100.692407
2375.000000	100.691996
2374.000000	100.691245
2373.000000	100.690596
2372.000000	100.690415
2371.000000	100.690630
2370.000000	100.690861
2369.000000	100.690830
2368.000000	100.690519
2367.000000	100.689984
2366.000000	100.689202
2365.000000	100.688244
2364.000000	100.687459
2363.000000	100.687231
2362.000000	100.687647
2361.000000	100.688470
2360.000000	100.689324
2359.000000	100.689969
2358.000000	100.690282
2357.000000	100.690229
2356.000000	100.689867
2355.000000	100.689353
2354.000000	100.688925
2353.000000	100.688728
2352.000000	100.688776
2351.000000	100.688952
2350.000000	100.689066
2349.000000	100.689018
2348.000000	100.688822
2347.000000	100.688606
2346.000000	100.688483
2345.000000	100.688472
2344.000000	100.688506
2343.000000	100.688496
2342.000000	100.688435
2341.000000	100.688339
2340.000000	100.688233
2339.000000	100.688119
2338.000000	100.687998
2337.000000	100.687855
2336.000000	100.687676
2335.000000	100.687469
2334.000000	100.687271
2333.000000	100.687105
2332.000000	100.686961
2331.000000	100.686807
2330.000000	100.686617
2329.000000	100.686398
2328.000000	100.686171
2327.000000	100.685968
2326.000000	100.685808
2325.000000	100.685687
2324.000000	100.685584
2323.000000	100.685471
2322.000000	100.685334
2321.000000	100.685167
2320.000000	100.684969
2319.000000	100.684748
2318.000000	100.684516
2317.000000	100.684287
2316.000000	100.684073
2315.000000	100.683878
2314.000000	100.683696
2313.000000	100.683515
2312.000000	100.683339
2311.000000	100.683167
2310.000000	100.682978
2309.000000	100.682750
2308.000000	100.682494
2307.000000	100.682240
2306.000000	100.681988
2305.000000	100.681718
2304.000000	100.681443
2303.000000	100.681181
2302.000000	100.680913
2301.000000	100.680594
2300.000000	100.680238
2299.000000	100.679930
2298.000000	100.679731
2297.000000	100.679600
2296.000000	100.679406
2295.000000	100.679070
2294.000000	100.678626
2293.000000	100.678197
2292.000000	100.677844
2291.000000	100.677529
2290.000000	100.677213
2289.000000	100.676943
2288.000000	100.676771
2287.000000	100.676649
2286.000000	100.676466
2285.000000	100.676201
2284.000000	100.675936
2283.000000	100.675706
2282.000000	100.675416
2281.000000	100.674987
2280.000000	100.674555
2279.000000	100.674379
2278.000000	100.674519
2277.000000	100.674733
2276.000000	100.674802
2275.000000	100.674795
2274.000000	100.674891
2273.000000	100.675047
2272.000000	100.675009
2271.000000	100.674640
2270.000000	100.674105
2269.000000	100.673696
2268.000000	100.673552
2267.000000	100.673556
2266.000000	100.673459
2265.000000	100.673108
2264.000000	100.672584
2263.000000	100.672119
2262.000000	100.671817
2261.000000	100.671508
2260.000000	100.670954
2259.000000	100.670181
2258.000000	100.669522
2257.000000	100.669288
2256.000000	100.669523
2255.000000	100.670053
2254.000000	100.670652
2253.000000	100.671093
2252.000000	100.671138
2251.000000	100.670716
2250.000000	100.670036
2249.000000	100.669471
2248.000000	100.669196
2247.000000	100.669057
2246.000000	100.668809
2245.000000	100.668440
2244.000000	100.668177
2243.000000	100.668188
2242.000000	100.668383
2241.000000	100.668539
2240.000000	100.668549
2239.000000	100.668441
2238.000000	100.668223
2237.000000	100.667891
2236.000000	100.667603
2235.000000	100.667652
2234.000000	100.668144
2233.000000	100.668771
2232.000000	100.669069
2231.000000	100.668882
2230.000000	100.668428
2229.000000	100.667988
2228.000000	100.667659
2227.000000	100.667475
2226.000000	100.667537
2225.000000	100.667878
2224.000000	100.668332
2223.000000	100.668701
2222.000000	100.668992
2221.000000	100.669396
2220.000000	100.670086
2219.000000	100.671079
2218.000000	100.672189
2217.000000	100.673089
2216.000000	100.673542
2215.000000	100.673626
2214.000000	100.673648
2213.000000	100.673798
2212.000000	100.674020
2211.000000	100.674219
2210.000000	100.674389
2209.000000	100.674468
2208.000000	100.674342
2207.000000	100.674131
2206.000000	100.674186
2205.000000	100.674611
2204.000000	100.675045
2203.000000	100.675155
2202.000000	100.675123
2201.000000	100.675386
2200.000000	100.676100
2199.000000	100.677156
2198.000000	100.678504
2197.000000	100.680092
2196.000000	100.681636
2195.000000	100.682740
2194.000000	100.683238
2193.000000	100.683255
2192.000000	100.683083
2191.000000	100.683132
2190.000000	100.683716
2189.000000	100.684614
2188.000000	100.685102
2187.000000	100.684808
2186.000000	100.684307
2185.000000	100.684532
2184.000000	100.685652
2183.000000	100.686947
2182.000000	100.687769
2181.000000	100.688272
2180.000000	100.688962
2179.000000	100.689918
2178.000000	100.690733
2177.000000	100.691089
2176.000000	100.691069
2175.000000	100.690939
2174.000000	100.690844
2173.000000	100.690755
2172.000000	100.690602
2171.000000	100.690424
2170.000000	100.690373
2169.000000	100.690547
2168.000000	100.690837
2167.000000	100.691037
2166.000000	100.691102
2165.000000	100.691181
2164.000000	100.691411
2163.000000	100.691810
2162.000000	100.692388
2161.000000	100.693151
2160.000000	100.693906
2159.000000	100.694267
2158.000000	100.694038
2157.000000	100.693546
2156.000000	100.693428
2155.000000	100.693996
2154.000000	100.695016
2153.000000	100.696050
2152.000000	100.696922
2151.000000	100.697687
2150.000000	100.698257
2149.000000	100.698386
2148.000000	100.698102
2147.000000	100.697910
2146.000000	100.698319
2145.000000	100.699234
2144.000000	100.700057
2143.000000	100.700453
2142.000000	100.700752
2141.000000	100.701442
2140.000000	100.702506
2139.000000	100.703518
2138.000000	100.704273
2137.000000	100.704975
2136.000000	100.705766
2135.000000	100.706419
2134.000000	100.706688
2133.000000	100.706695
2132.000000	100.706762
2131.000000	100.706985
2130.000000	100.707221
2129.000000	100.707420
2128.000000	100.707718
2127.000000	100.708210
2126.000000	100.708823
2125.000000	100.709493
2124.000000	100.710294
2123.000000	100.711311
2122.000000	100.712472
2121.000000	100.713604
2120.000000	100.714575
2119.000000	100.715356
2118.000000	100.715986
2117.000000	100.716537
2116.000000	100.717071
2115.000000	100.717580
2114.000000	100.718023
2113.000000	100.718429
2112.000000	100.718931
2111.000000	100.719666
2110.000000	100.720652
2109.000000	100.721754
2108.000000	100.722732
2107.000000	100.723384
2106.000000	100.723660
2105.000000	100.723716
2104.000000	100.723869
2103.000000	100.724351
2102.000000	100.725162
2101.000000	100.726125
2100.000000	100.727090
2099.000000	100.728045
2098.000000	100.729001
2097.000000	100.729885
2096.000000	100.730618
2095.000000	100.731225
2094.000000	100.731799
2093.000000	100.732407
2092.000000	100.733076
2091.000000	100.733818
2090.000000	100.734597
2089.000000	100.735318
2088.000000	100.735955
2087.000000	100.736643
2086.000000	100.737506
2085.000000	100.738413
2084.000000	100.739031
2083.000000	100.739182
2082.000000	100.739013
2081.000000	100.738847
2080.000000	100.738916
2079.000000	100.739283
2078.000000	100.739900
2077.000000	100.740651
2076.000000	100.741370
2075.000000	100.741922
2074.000000	100.742283
2073.000000	100.742494
2072.000000	100.742599
2071.000000	100.742640
2070.000000	100.742697
2069.000000	100.742847
2068.000000	100.743086
2067.000000	100.743340
2066.000000	100.743582
2065.000000	100.743881
2064.000000	100.744334
2063.000000	100.744953
2062.000000	100.745627
2061.000000	100.746125
2060.000000	100.746193
2059.000000	100.745742
2058.000000	100.744950
2057.000000	100.744169
2056.000000	100.743674
2055.000000	100.743491
2054.000000	100.743414
2053.000000	100.743189
2052.000000	100.742729
2051.000000	100.742213
2050.000000	100.741941
2049.000000	100.742051
2048.000000	100.742349
2047.000000	100.742414
2046.000000	100.741965
2045.000000	100.741045
2044.000000	100.739949
2043.000000	100.739001
2042.000000	100.738393
2041.000000	100.738191
2040.000000	100.738329
2039.000000	100.738579
2038.000000	100.738625
2037.000000	100.738233
2036.000000	100.737368
2035.000000	100.736196
2034.000000	100.734989
2033.000000	100.733967
2032.000000	100.733152
2031.000000	100.732365
2030.000000	100.731435
2029.000000	100.730424
2028.000000	100.729572
2027.000000	100.729054
2026.000000	100.728871
2025.000000	100.728939
2024.000000	100.729144
2023.000000	100.729258
2022.000000	100.729003
2021.000000	100.728274
2020.000000	100.727219
2019.000000	100.726011
2018.000000	100.724692
2017.000000	100.723300
2016.000000	100.721991
2015.000000	100.720876
2014.000000	100.719874
2013.000000	100.718887
2012.000000	100.718045
2011.000000	100.717552
2010.000000	100.717261
2009.000000	100.716602
2008.000000	100.715146
2007.000000	100.713165
2006.000000	100.711465
2005.000000	100.710575
2004.000000	100.710347
2003.000000	100.710318
2002.000000	100.710259
2001.000000	100.710198
2000.000000	100.710053
1999.000000	100.709609
1998.000000	100.708803
1997.000000	100.707844
1996.000000	100.706991
1995.000000	100.706285
1994.000000	100.705584
1993.000000	100.704795
1992.000000	100.704017
1991.000000	100.703452
1990.000000	100.703220
1989.000000	100.703240
1988.000000	100.703259
1987.000000	100.703040
1986.000000	100.702567
1985.000000	100.702044
1984.000000	100.701651
1983.000000	100.701354
1982.000000	100.701015
1981.000000	100.700596
1980.000000	100.700189
1979.000000	100.699874
1978.000000	100.699627
1977.000000	100.699373
1976.000000	100.699076
1975.000000	100.698744
1974.000000	100.698381
1973.000000	100.697985
1972.000000	100.697583
1971.000000	100.697244
1970.000000	100.697044
1969.000000	100.697036
1968.000000	100.697183
1967.000000	100.697280
1966.000000	100.697068
1965.000000	100.696473
1964.000000	100.695706
1963.000000	100.695088
1962.000000	100.694727
1961.000000	100.694524
1960.000000	100.694413
1959.000000	100.694453
1958.000000	100.694613
1957.000000	100.694647
1956.000000	100.694333
1955.000000	100.693729
1954.000000	100.693092
1953.000000	100.692605
1952.000000	100.692276
1951.000000	100.691986
1950.000000	100.691602
1949.000000	100.691066
1948.000000	100.690396
1947.000000	100.689599
1946.000000	100.688620
1945.000000	100.687509
1944.000000	100.686559
1943.000000	100.686092
1942.000000	100.686058
1941.000000	100.686107
1940.000000	100.686072
1939.000000	100.685977
1938.000000	100.685634
1937.000000	100.684725
1936.000000	100.683284
1935.000000	100.681650
1934.000000	100.679872
1933.000000	100.677655
1932.000000	100.674960
1931.000000	100.672284
1930.000000	100.670309
1929.000000	100.669303
1928.000000	100.669125
1927.000000	100.669575
1926.000000	100.670407
1925.000000	100.671137
1924.000000	100.670999
1923.000000	100.669517
1922.000000	100.667062
1921.000000	100.664588
1920.000000	100.662996
1919.000000	100.662766
1918.000000	100.663670
1917.000000	100.664564
1916.000000	100.664090
1915.000000	100.661789
1914.000000	100.658129
1913.000000	100.653931
1912.000000	100.649959
1911.000000	100.646830
1910.000000	100.645015
1909.000000	100.644360
1908.000000	100.643962
1907.000000	100.642831
1906.000000	100.640574
1905.000000	100.637448
1904.000000	100.633801
1903.000000	100.630021
1902.000000	100.626677
1901.000000	100.624049
1900.000000	100.622071
1899.000000	100.620794
1898.000000	100.620375
1897.000000	100.620512
1896.000000	100.620139
1895.000000	100.618472
1894.000000	100.616197
1893.000000	100.614764
1892.000000	100.614681
1891.000000	100.614975
1890.000000	100.614143
1889.000000	100.611489
1888.000000	100.607548
1887.000000	100.603320
1886.000000	100.599210
1885.000000	100.595016
1884.000000	100.591011
1883.000000	100.588624
1882.000000	100.589390
1881.000000	100.593092
1880.000000	100.597758
1879.000000	100.601362
1878.000000	100.602842
1877.000000	100.602123
1876.000000	100.599939
1875.000000	100.597466
1874.000000	100.595587
1873.000000	100.594196
1872.000000	100.592668
1871.000000	100.591049
1870.000000	100.590150
1869.000000	100.590153
1868.000000	100.590036
1867.000000	100.589813
1866.000000	100.591240
1865.000000	100.594756
1864.000000	100.598245
1863.000000	100.599885
1862.000000	100.600758
1861.000000	100.603274
1860.000000	100.607814
1859.000000	100.612544
1858.000000	100.616082
1857.000000	100.618767
1856.000000	100.621532
1855.000000	100.624648
1854.000000	100.627485
1853.000000	100.628809
1852.000000	100.628074
1851.000000	100.626542
1850.000000	100.626087
1849.000000	100.627495
1848.000000	100.630115
1847.000000	100.633016
1846.000000	100.635795
1845.000000	100.638252
1844.000000	100.640102
1843.000000	100.641385
1842.000000	100.642686
1841.000000	100.644385
1840.000000	100.646421
1839.000000	100.648552
1838.000000	100.650372
1837.000000	100.651322
1836.000000	100.651095
1835.000000	100.650458
1834.000000	100.650899
1833.000000	100.653299
1832.000000	100.657407
1831.000000	100.661641
1830.000000	100.663281
1829.000000	100.660736
1828.000000	100.655463
1827.000000	100.650541
1826.000000	100.647938
1825.000000	100.647620
1824.000000	100.648125
1823.000000	100.648201
1822.000000	100.648049
1821.000000	100.648412
1820.000000	100.649291
1819.000000	100.650012
1818.000000	100.650585
1817.000000	100.651956
1816.000000	100.653924
1815.000000	100.654657
1814.000000	100.652662
1813.000000	100.648355
1812.000000	100.643550
1811.000000	100.639684
1810.000000	100.637854
1809.000000	100.638881
1808.000000	100.641892
1807.000000	100.644776
1806.000000	100.646403
1805.000000	100.647038
1804.000000	100.646719
1803.000000	100.644935
1802.000000	100.641844
1801.000000	100.638719
1800.000000	100.636348
1799.000000	100.634167
1798.000000	100.632560
1797.000000	100.633135
1796.000000	100.636130
1795.000000	100.639878
1794.000000	100.642436
1793.000000	100.643534
1792.000000	100.644339
1791.000000	100.645161
1790.000000	100.645834
1789.000000	100.646780
1788.000000	100.648456
1787.000000	100.651275
1786.000000	100.655973
1785.000000	100.662925
1784.000000	100.670964
1783.000000	100.678488
1782.000000	100.684378
1781.000000	100.687964
1780.000000	100.689928
1779.000000	100.691944
1778.000000	100.695211
1777.000000	100.698821
1776.000000	100.700803
1775.000000	100.701012
1774.000000	100.701093
1773.000000	100.702543
1772.000000	100.704991
1771.000000	100.706412
1770.000000	100.706663
1769.000000	100.708633
1768.000000	100.714504
1767.000000	100.722872
1766.000000	100.730717
1765.000000	100.737486
1764.000000	100.744965
1763.000000	100.753972
1762.000000	100.762179
1761.000000	100.766471
1760.000000	100.767006
1759.000000	100.766322
1758.000000	100.766046
1757.000000	100.765369
1756.000000	100.763140
1755.000000	100.759770
1754.000000	100.756768
1753.000000	100.755980
1752.000000	100.759365
1751.000000	100.766875
1750.000000	100.774424
1749.000000	100.777902
1748.000000	100.777634
1747.000000	100.776808
1746.000000	100.776820
1745.000000	100.776671
1744.000000	100.775780
1743.000000	100.774913
1742.000000	100.775168
1741.000000	100.777016
1740.000000	100.779676
1739.000000	100.781527
1738.000000	100.781558
1737.000000	100.779901
1736.000000	100.776123
1735.000000	100.769530
1734.000000	100.762517
1733.000000	100.758816
1732.000000	100.758920
1731.000000	100.761022
1730.000000	100.763150
1729.000000	100.763665
1728.000000	100.762336
1727.000000	100.759882
1726.000000	100.756740
1725.000000	100.753073
1724.000000	100.749252
1723.000000	100.745205
1722.000000	100.740751
1721.000000	100.736159
1720.000000	100.732378
1719.000000	100.730625
1718.000000	100.731781
1717.000000	100.734769
1716.000000	100.736181
1715.000000	100.734695
1714.000000	100.732343
1713.000000	100.730696
1712.000000	100.729205
1711.000000	100.726946
1710.000000	100.723902
1709.000000	100.720373
1708.000000	100.716527
1707.000000	100.712467
1706.000000	100.708727
1705.000000	100.706155
1704.000000	100.704497
1703.000000	100.703228
1702.000000	100.701858
1701.000000	100.699817
1700.000000	100.696417
1699.000000	100.691409
1698.000000	100.686775
1697.000000	100.684194
1696.000000	100.682953
1695.000000	100.681562
1694.000000	100.680277
1693.000000	100.679915
1692.000000	100.679572
1691.000000	100.677989
1690.000000	100.675495
1689.000000	100.673413
1688.000000	100.672197
1687.000000	100.671256
1686.000000	100.669704
1685.000000	100.667834
1684.000000	100.666564
1683.000000	100.665464
1682.000000	100.663989
1681.000000	100.662105
1680.000000	100.660056
1679.000000	100.658253
1678.000000	100.657206
1677.000000	100.656818
1676.000000	100.656448
1675.000000	100.655391
1674.000000	100.653537
1673.000000	100.651959
1672.000000	100.651788
1671.000000	100.652624
1670.000000	100.653091
1669.000000	100.652295
1668.000000	100.651398
1667.000000	100.652262
1666.000000	100.654869
1665.000000	100.657716
1664.000000	100.659005
1663.000000	100.657977
1662.000000	100.655758
1661.000000	100.653865
1660.000000	100.652990
1659.000000	100.652648
1658.000000	100.652093
1657.000000	100.650999
1656.000000	100.650375
1655.000000	100.650448
1654.000000	100.649854
1653.000000	100.646645
1652.000000	100.641109
1651.000000	100.637695
1650.000000	100.638246
1649.000000	100.641111
1648.000000	100.643219
1647.000000	100.642945
1646.000000	100.641437
1645.000000	100.641368
1644.000000	100.643295
1643.000000	100.645883
1642.000000	100.647689
1641.000000	100.648315
1640.000000	100.648473
1639.000000	100.648884
1638.000000	100.649623
1637.000000	100.650399
1636.000000	100.651616
1635.000000	100.653650
1634.000000	100.655227
1633.000000	100.655607
1632.000000	100.655057
1631.000000	100.654451
1630.000000	100.655238
1629.000000	100.658001
1628.000000	100.662013
1627.000000	100.666392
1626.000000	100.670859
1625.000000	100.675208
1624.000000	100.679262
1623.000000	100.682999
1622.000000	100.685998
1621.000000	100.687591
1620.000000	100.688691
1619.000000	100.691253
1618.000000	100.696253
1617.000000	100.701559
1616.000000	100.703555
1615.000000	100.703204
1614.000000	100.704243
1613.000000	100.707498
1612.000000	100.711368
1611.000000	100.715052
1610.000000	100.719053
1609.000000	100.723227
1608.000000	100.726745
1607.000000	100.729883
1606.000000	100.733268
1605.000000	100.736233
1604.000000	100.738084
1603.000000	100.739515
1602.000000	100.742098
1601.000000	100.746835
1600.000000	100.753534
1599.000000	100.761021
1598.000000	100.767389
1597.000000	100.771104
1596.000000	100.772122
1595.000000	100.771737
1594.000000	100.771306
1593.000000	100.771120
1592.000000	100.771020
1591.000000	100.771354
1590.000000	100.772354
1589.000000	100.773083
1588.000000	100.772376
1587.000000	100.770530
1586.000000	100.769014
1585.000000	100.768483
1584.000000	100.768717
1583.000000	100.769830
1582.000000	100.771768
1581.000000	100.774088
1580.000000	100.776985
1579.000000	100.781145
1578.000000	100.785552
1577.000000	100.786696
1576.000000	100.781778
1575.000000	100.773430
1574.000000	100.766380
1573.000000	100.761667
1572.000000	100.758426
1571.000000	100.756418
1570.000000	100.756422
1569.000000	100.757478
1568.000000	100.757889
1567.000000	100.757722
1566.000000	100.757410
1565.000000	100.756613
1564.000000	100.756061
1563.000000	100.756646
1562.000000	100.757738
1561.000000	100.755704
1560.000000	100.747167
1559.000000	100.739619
1558.000000	100.739790
1557.000000	100.741212
1556.000000	100.740115
1555.000000	100.737978
1554.000000	100.733938
1553.000000	100.728980
1552.000000	100.724478
1551.000000	100.721375
1550.000000	100.718815
1549.000000	100.716299
1548.000000	100.713810
1547.000000	100.711307
1546.000000	100.707337
1545.000000	100.700327
1544.000000	100.690724
1543.000000	100.680909
1542.000000	100.673451
1541.000000	100.670059
1540.000000	100.667428
1539.000000	100.659703
1538.000000	100.648190
1537.000000	100.637908
1536.000000	100.629409
1535.000000	100.619770
1534.000000	100.607811
1533.000000	100.596562
1532.000000	100.588644
1531.000000	100.581966
1530.000000	100.574421
1529.000000	100.566217
1528.000000	100.557873
1527.000000	100.549055
1526.000000	100.539662
1525.000000	100.531568
1524.000000	100.527087
1523.000000	100.525945
1522.000000	100.525895
1521.000000	100.524655
1520.000000	100.520767
1519.000000	100.514230
1518.000000	100.505307
1517.000000	100.495189
1516.000000	100.486238
1515.000000	100.479487
1514.000000	100.474005
1513.000000	100.469074
1512.000000	100.464909
1511.000000	100.461140
1510.000000	100.456653
1509.000000	100.450615
1508.000000	100.443640
1507.000000	100.438308
1506.000000	100.436031
1505.000000	100.434895
1504.000000	100.433694
1503.000000	100.432287
1502.000000	100.429975
1501.000000	100.427240
1500.000000	100.424848
1499.000000	100.422616
1498.000000	100.419173
1497.000000	100.415099
1496.000000	100.410877
1495.000000	100.404467
1494.000000	100.396034
1493.000000	100.389298
1492.000000	100.387278
1491.000000	100.389280
1490.000000	100.391692
1489.000000	100.392289
1488.000000	100.391122
1487.000000	100.388573
1486.000000	100.386351
1485.000000	100.385471
1484.000000	100.385097
1483.000000	100.384019
1482.000000	100.381712
1481.000000	100.379581
1480.000000	100.378943
1479.000000	100.379009
1478.000000	100.377963
1477.000000	100.375791
1476.000000	100.374572
1475.000000	100.376779
1474.000000	100.384305
1473.000000	100.397175
1472.000000	100.411091
1471.000000	100.420109
1470.000000	100.424227
1469.000000	100.427540
1468.000000	100.432094
1467.000000	100.436469
1466.000000	100.438340
1465.000000	100.437618
1464.000000	100.436569
1463.000000	100.436237
1462.000000	100.436048
1461.000000	100.435930
1460.000000	100.436307
1459.000000	100.437059
1458.000000	100.437070
1457.000000	100.436594
1456.000000	100.436594
1455.000000	100.436546
1454.000000	100.435804
1453.000000	100.435055
1452.000000	100.435264
1451.000000	100.436245
1450.000000	100.436436
1449.000000	100.435433
1448.000000	100.434102
1447.000000	100.432808
1446.000000	100.431251
1445.000000	100.430153
1444.000000	100.431088
1443.000000	100.433219
1442.000000	100.433660
1441.000000	100.431532
1440.000000	100.429848
1439.000000	100.432087
1438.000000	100.438575
1437.000000	100.446645
1436.000000	100.452208
1435.000000	100.452757
1434.000000	100.449594
1433.000000	100.446207
1432.000000	100.445420
1431.000000	100.448105
1430.000000	100.452422
1429.000000	100.456151
1428.000000	100.459068
1427.000000	100.462409
1426.000000	100.466976
1425.000000	100.472428
1424.000000	100.478805
1423.000000	100.485834
1422.000000	100.492675
1421.000000	100.499162
1420.000000	100.505852
1419.000000	100.511893
1418.000000	100.514869
1417.000000	100.515893
1416.000000	100.518879
1415.000000	100.525003
1414.000000	100.531937
1413.000000	100.537421
1412.000000	100.542086
1411.000000	100.547933
1410.000000	100.555135
1409.000000	100.562300
1408.000000	100.568251
1407.000000	100.573114
1406.000000	100.578376
1405.000000	100.585442
1404.000000	100.594151
1403.000000	100.602521
1402.000000	100.609342
1401.000000	100.615742
1400.000000	100.623024
1399.000000	100.630226
1398.000000	100.635342
1397.000000	100.639077
1396.000000	100.644254
1395.000000	100.651606
1394.000000	100.658089
1393.000000	100.661383
1392.000000	100.663699
1391.000000	100.668266
1390.000000	100.675441
1389.000000	100.682856
1388.000000	100.687642
1387.000000	100.689051
1386.000000	100.689498
1385.000000	100.692498
1384.000000	100.699475
1383.000000	100.708479
1382.000000	100.715852
1381.000000	100.719681
1380.000000	100.720861
1379.000000	100.721349
1378.000000	100.722316
1377.000000	100.724237
1376.000000	100.727732
1375.000000	100.733187
1374.000000	100.739404
1373.000000	100.744295
1372.000000	100.747502
1371.000000	100.750643
1370.000000	100.754933
1369.000000	100.759735
1368.000000	100.764132
1367.000000	100.767977
1366.000000	100.770882
1365.000000	100.771690
1364.000000	100.769900
1363.000000	100.767314
1362.000000	100.766593
1361.000000	100.767741
1360.000000	100.768543
1359.000000	100.768275
1358.000000	100.768481
1357.000000	100.770361
1356.000000	100.773081
1355.000000	100.775173
1354.000000	100.776473
1353.000000	100.777691
1352.000000	100.778563
1351.000000	100.778351
1350.000000	100.777695
1349.000000	100.777712
1348.000000	100.778253
1347.000000	100.778028
1346.000000	100.776478
1345.000000	100.774282
1344.000000	100.772229
1343.000000	100.770727
1342.000000	100.770520
1341.000000	100.772408
1340.000000	100.775651
1339.000000	100.777964
1338.000000	100.778171
1337.000000	100.777745
1336.000000	100.778511
1335.000000	100.780114
1334.000000	100.780983
1333.000000	100.780683
1332.000000	100.779847
1331.000000	100.778486
1330.000000	100.775917
1329.000000	100.772499
1328.000000	100.770119
1327.000000	100.770394
1326.000000	100.773084
1325.000000	100.776629
1324.000000	100.779916
1323.000000	100.782442
1322.000000	100.783338
1321.000000	100.781631
1320.000000	100.777681
1319.000000	100.773537
1318.000000	100.771235
1317.000000	100.771008
1316.000000	100.771598
1315.000000	100.771980
1314.000000	100.772461
1313.000000	100.774187
1312.000000	100.777469
1311.000000	100.780817
1310.000000	100.782179
1309.000000	100.781189
1308.000000	100.779693
1307.000000	100.779689
1306.000000	100.780933
1305.000000	100.781236
1304.000000	100.779413
1303.000000	100.776995
1302.000000	100.776523
1301.000000	100.778338
1300.000000	100.780008
1299.000000	100.779297
1298.000000	100.776994
1297.000000	100.775915
1296.000000	100.777069
1295.000000	100.778267
1294.000000	100.777188
1293.000000	100.774619
1292.000000	100.773329
1291.000000	100.774486
1290.000000	100.776914
1289.000000	100.779418
1288.000000	100.781661
1287.000000	100.782601
1286.000000	100.780599
1285.000000	100.776135
1284.000000	100.772404
1283.000000	100.771660
1282.000000	100.772502
1281.000000	100.772253
1280.000000	100.770668
1279.000000	100.769586
1278.000000	100.769818
1277.000000	100.770228
1276.000000	100.769279
1275.000000	100.766224
1274.000000	100.761579
1273.000000	100.757865
1272.000000	100.758684
1271.000000	100.764905
1270.000000	100.772425
1269.000000	100.776093
1268.000000	100.775518
1267.000000	100.774718
1266.000000	100.776309
1265.000000	100.778585
1264.000000	100.778829
1263.000000	100.777116
1262.000000	100.775741
1261.000000	100.776273
1260.000000	100.778214
1259.000000	100.779900
1258.000000	100.780016
1257.000000	100.778545
1256.000000	100.776203
1255.000000	100.772765
1254.000000	100.766668
1253.000000	100.757014
1252.000000	100.745121
1251.000000	100.733084
1250.000000	100.721651
1249.000000	100.710758
1248.000000	100.701138
1247.000000	100.693456
1246.000000	100.686542
1245.000000	100.678900
1244.000000	100.671535
1243.000000	100.666719
1242.000000	100.663807
1241.000000	100.658784
1240.000000	100.648723
1239.000000	100.634886
1238.000000	100.620775
1237.000000	100.608402
1236.000000	100.596901
1235.000000	100.583714
1234.000000	100.567138
1233.000000	100.548830
1232.000000	100.533172
1231.000000	100.522186
1230.000000	100.511574
1229.000000	100.494562
1228.000000	100.469667
1227.000000	100.441931
1226.000000	100.415810
1225.000000	100.389333
1224.000000	100.356745
1223.000000	100.314880
1222.000000	100.265493
1221.000000	100.213047
1220.000000	100.161664
1219.000000	100.112665
1218.000000	100.063342
1217.000000	100.009083
1216.000000	99.947819
1215.000000	99.881559
1214.000000	99.813058
1213.000000	99.742516
1212.000000	99.668796
1211.000000	99.592680
1210.000000	99.517732
1209.000000	99.448331
1208.000000	99.386708
1207.000000	99.330474
1206.000000	99.273319
1205.000000	99.210285
1204.000000	99.142347
1203.000000	99.074031
1202.000000	99.007498
1201.000000	98.941584
1200.000000	98.875583
1199.000000	98.810004
1198.000000	98.743668
1197.000000	98.674402
1196.000000	98.603486
1195.000000	98.535401
1194.000000	98.471685
1193.000000	98.408376
1192.000000	98.340964
1191.000000	98.268742
1190.000000	98.193050
1189.000000	98.114624
1188.000000	98.034549
1187.000000	97.954994
1186.000000	97.876948
1185.000000	97.799242
1184.000000	97.720802
1183.000000	97.641408
1182.000000	97.559548
1181.000000	97.472596
1180.000000	97.380338
1179.000000	97.285516
1178.000000	97.189558
1177.000000	97.090511
1176.000000	96.986509
1175.000000	96.878760
1174.000000	96.769903
1173.000000	96.661620
1172.000000	96.554586
1171.000000	96.448521
1170.000000	96.342387
1169.000000	96.237397
1168.000000	96.139234
1167.000000	96.053604
1166.000000	95.980677
1165.000000	95.919037
1164.000000	95.874571
1163.000000	95.858834
1162.000000	95.876785
1161.000000	95.920036
1160.000000	95.971978
1159.000000	96.015101
1158.000000	96.034456
1157.000000	96.021400
1156.000000	95.977434
1155.000000	95.911828
1154.000000	95.834009
1153.000000	95.749641
1152.000000	95.662538
1151.000000	95.575249
1150.000000	95.487246
1149.000000	95.397145
1148.000000	95.307246
1147.000000	95.221514
1146.000000	95.139245
1145.000000	95.055922
1144.000000	94.970416
1143.000000	94.885942
1142.000000	94.803733
1141.000000	94.721463
1140.000000	94.638204
1139.000000	94.555053
1138.000000	94.470389
1137.000000	94.380479
1136.000000	94.285488
1135.000000	94.189452
1134.000000	94.094240
1133.000000	93.999255
1132.000000	93.906522
1131.000000	93.819175
1130.000000	93.735175
1129.000000	93.649591
1128.000000	93.562643
1127.000000	93.477796
1126.000000	93.392640
1125.000000	93.300741
1124.000000	93.202919
1123.000000	93.107422
1122.000000	93.017818
1121.000000	92.930019
1120.000000	92.842432
1119.000000	92.758932
1118.000000	92.679589
1117.000000	92.598779
1116.000000	92.515405
1115.000000	92.435425
1114.000000	92.361453
1113.000000	92.289486
1112.000000	92.218250
1111.000000	92.151319
1110.000000	92.087216
1109.000000	92.017884
1108.000000	91.940282
1107.000000	91.860030
1106.000000	91.781183
1105.000000	91.702013
1104.000000	91.623093
1103.000000	91.549431
1102.000000	91.481615
1101.000000	91.414462
1100.000000	91.346588
1099.000000	91.281552
1098.000000	91.218613
1097.000000	91.152215
1096.000000	91.082772
1095.000000	91.017263
1094.000000	90.957477
1093.000000	90.898536
1092.000000	90.840845
1091.000000	90.791975
1090.000000	90.753959
1089.000000	90.719555
1088.000000	90.683587
1087.000000	90.647857
1086.000000	90.613684
1085.000000	90.580572
1084.000000	90.553052
1083.000000	90.536627
1082.000000	90.525234
1081.000000	90.505063
1080.000000	90.473010
1079.000000	90.439691
1078.000000	90.412595
1077.000000	90.388044
1076.000000	90.361246
1075.000000	90.330835
1074.000000	90.290746
1073.000000	90.230743
1072.000000	90.148649
1071.000000	90.050853
1070.000000	89.938088
1069.000000	89.802149
1068.000000	89.639504
1067.000000	89.456907
1066.000000	89.261092
1065.000000	89.054577
1064.000000	88.844251
1063.000000	88.641049
1062.000000	88.447109
1061.000000	88.255637
1060.000000	88.066777
1059.000000	87.890659
1058.000000	87.731507
1057.000000	87.582127
1056.000000	87.437241
1055.000000	87.298070
1054.000000	87.160241
1053.000000	87.012530
1052.000000	86.853718
1051.000000	86.696302
1050.000000	86.546965
1049.000000	86.398475
1048.000000	86.246435
1047.000000	86.097004
1046.000000	85.952637
1045.000000	85.806541
1044.000000	85.655968
1043.000000	85.506821
1042.000000	85.361728
1041.000000	85.217225
1040.000000	85.075707
1039.000000	84.946106
1038.000000	84.829681
1037.000000	84.719299
1036.000000	84.615210
1035.000000	84.526294
1034.000000	84.452824
1033.000000	84.383764
1032.000000	84.314813
1031.000000	84.254197
1030.000000	84.207212
1029.000000	84.169857
1028.000000	84.140390
1027.000000	84.121817
1026.000000	84.109884
1025.000000	84.093851
1024.000000	84.072395
1023.000000	84.054359
1022.000000	84.041773
1021.000000	84.026886
1020.000000	84.007178
1019.000000	83.987607
1018.000000	83.966637
1017.000000	83.936403
1016.000000	83.898601
1015.000000	83.864001
1014.000000	83.834438
1013.000000	83.801604
1012.000000	83.765154
1011.000000	83.734889
1010.000000	83.712959
1009.000000	83.691481
1008.000000	83.670897
1007.000000	83.663564
1006.000000	83.675154
1005.000000	83.698326
1004.000000	83.727748
1003.000000	83.765873
1002.000000	83.811486
1001.000000	83.858815
1000.000000	83.910562
999.000000	83.975472
998.000000	84.050486
997.000000	84.121791
996.000000	84.186322
995.000000	84.255408
994.000000	84.334123
993.000000	84.414487
992.000000	84.493177
991.000000	84.578793
990.000000	84.675881
989.000000	84.777450
988.000000	84.879032
987.000000	84.986082
986.000000	85.102261
985.000000	85.224064
984.000000	85.351687
983.000000	85.491884
982.000000	85.645375
981.000000	85.803779
980.000000	85.963102
979.000000	86.128496
978.000000	86.302648
977.000000	86.481530
976.000000	86.664201
975.000000	86.854878
974.000000	87.052951
973.000000	87.252435
972.000000	87.452537
971.000000	87.656680
970.000000	87.860429
969.000000	88.053946
968.000000	88.238192
967.000000	88.425127
966.000000	88.619146
965.000000	88.811445
964.000000	88.996005
963.000000	89.177994
962.000000	89.361727
961.000000	89.541971
960.000000	89.712598
959.000000	89.874408
958.000000	90.030342
957.000000	90.181466
956.000000	90.330524
955.000000	90.480762
954.000000	90.628799
953.000000	90.767369
952.000000	90.896397
951.000000	91.021958
950.000000	91.143207
949.000000	91.251118
948.000000	91.343036
947.000000	91.428317
946.000000	91.515665
945.000000	91.603218
944.000000	91.684991
943.000000	91.759400
942.000000	91.828494
941.000000	91.895920
940.000000	91.967788
939.000000	92.048429
938.000000	92.133670
937.000000	92.215139
936.000000	92.291302
935.000000	92.366709
934.000000	92.441469
933.000000	92.511266
932.000000	92.577808
931.000000	92.648535
930.000000	92.724387
929.000000	92.797829
928.000000	92.864576
927.000000	92.927424
926.000000	92.987118
925.000000	93.039927
924.000000	93.086443
923.000000	93.132231
922.000000	93.176884
921.000000	93.212751
920.000000	93.237991
919.000000	93.260831
918.000000	93.286836
917.000000	93.311895
916.000000	93.332869
915.000000	93.356405
914.000000	93.391872
913.000000	93.443185
912.000000	93.511954
911.000000	93.600649
910.000000	93.707745
909.000000	93.826618
908.000000	93.953617
907.000000	94.091291
906.000000	94.240830
905.000000	94.398094
904.000000	94.559766
903.000000	94.726673
902.000000	94.898272
901.000000	95.069875
900.000000	95.237340
899.000000	95.399158
898.000000	95.553718
897.000000	95.700988
896.000000	95.846887
895.000000	95.997908
894.000000	96.150091
893.000000	96.291281
892.000000	96.416222
891.000000	96.531596
890.000000	96.643775
889.000000	96.749388
888.000000	96.842242
887.000000	96.922997
886.000000	96.997140
885.000000	97.068044
884.000000	97.136427
883.000000	97.202975
882.000000	97.267734
881.000000	97.329993
880.000000	97.391806
879.000000	97.458810
878.000000	97.535079
877.000000	97.619646
876.000000	97.709382
875.000000	97.802516
874.000000	97.899007
873.000000	98.000608
872.000000	98.109907
871.000000	98.225520
870.000000	98.339650
869.000000	98.445264
868.000000	98.544451
867.000000	98.644659
866.000000	98.747540
865.000000	98.846706
864.000000	98.936128
863.000000	99.015851
862.000000	99.089943
861.000000	99.163827
860.000000	99.243155
859.000000	99.329576
858.000000	99.416659
857.000000	99.494864
856.000000	99.561569
855.000000	99.622738
854.000000	99.684985
853.000000	99.749862
852.000000	99.815311
851.000000	99.877679
850.000000	99.932226
849.000000	99.976725
848.000000	100.015362
847.000000	100.054952
846.000000	100.096550
845.000000	100.134128
844.000000	100.161325
843.000000	100.176078
842.000000	100.180107
841.000000	100.178601
840.000000	100.179216
839.000000	100.185479
838.000000	100.190827
837.000000	100.184453
836.000000	100.163764
835.000000	100.136943
834.000000	100.113603
833.000000	100.097725
832.000000	100.089375
831.000000	100.087201
830.000000	100.088479
829.000000	100.092727
828.000000	100.106344
827.000000	100.137137
826.000000	100.182065
825.000000	100.226256
824.000000	100.255736
823.000000	100.265434
822.000000	100.255466
821.000000	100.228190
820.000000	100.189954
819.000000	100.147764
818.000000	100.102214
817.000000	100.048796
816.000000	99.985423
815.000000	99.911236
814.000000	99.817049
813.000000	99.684676
812.000000	99.498823
811.000000	99.254533
810.000000	98.952289
809.000000	98.593773
808.000000	98.185906
807.000000	97.741282
806.000000	97.269560
805.000000	96.776181
804.000000	96.275409
803.000000	95.796055
802.000000	95.366454
801.000000	95.001365
800.000000	94.709993
799.000000	94.505756
798.000000	94.397227
797.000000	94.375769
796.000000	94.420138
795.000000	94.508507
794.000000	94.622284
793.000000	94.745694
792.000000	94.867330
791.000000	94.978095
790.000000	95.065192
789.000000	95.112707
788.000000	95.109809
787.000000	95.054708
786.000000	94.951618
785.000000	94.809571
784.000000	94.643104
783.000000	94.466188
782.000000	94.285278
781.000000	94.107194
780.000000	93.953926
779.000000	93.857482
778.000000	93.835768
777.000000	93.882536
776.000000	93.982665
775.000000	94.125545
774.000000	94.300085
773.000000	94.489238
772.000000	94.677288
771.000000	94.856421
770.000000	95.023234
769.000000	95.175969
768.000000	95.317214
767.000000	95.450913
766.000000	95.573690
765.000000	95.677223
764.000000	95.762232
763.000000	95.841544
762.000000	95.925095
761.000000	96.009783
760.000000	96.089044
759.000000	96.164925
758.000000	96.244756
757.000000	96.331638
756.000000	96.423621
755.000000	96.517160
754.000000	96.606617
753.000000	96.685580
752.000000	96.754441
751.000000	96.823163
750.000000	96.901412
749.000000	96.987915
748.000000	97.073100
747.000000	97.150188
746.000000	97.220736
745.000000	97.291101
744.000000	97.366438
743.000000	97.447898
742.000000	97.534549
741.000000	97.627155
740.000000	97.727469
739.000000	97.832207
738.000000	97.931874
737.000000	98.020493
736.000000	98.103051
735.000000	98.186338
734.000000	98.264820
733.000000	98.324211
732.000000	98.359363
731.000000	98.381220
730.000000	98.404439
729.000000	98.434173
728.000000	98.467543
727.000000	98.501661
726.000000	98.536315
725.000000	98.573328
724.000000	98.616115
723.000000	98.666528
722.000000	98.720705
721.000000	98.771618
720.000000	98.816374
719.000000	98.856804
718.000000	98.892586
717.000000	98.919671
716.000000	98.937360
715.000000	98.952071
714.000000	98.971979
713.000000	99.000936
712.000000	99.037703
711.000000	99.076222
710.000000	99.106295
709.000000	99.119340
708.000000	99.115017
707.000000	99.098235
706.000000	99.069194
705.000000	99.022034
704.000000	98.952841
703.000000	98.860583
702.000000	98.738575
701.000000	98.573320
700.000000	98.356213
699.000000	98.093332
698.000000	97.804440
697.000000	97.521216
696.000000	97.287193
695.000000	97.145370
694.000000	97.116004
693.000000	97.186765
692.000000	97.323830
691.000000	97.489562
690.000000	97.652807
689.000000	97.795800
688.000000	97.920729
687.000000	98.043734
686.000000	98.173771
685.000000	98.299742
684.000000	98.403726
683.000000	98.482929
682.000000	98.550999
681.000000	98.619529
680.000000	98.686553
679.000000	98.746364
678.000000	98.803200
677.000000	98.866588
676.000000	98.937266
675.000000	99.005616
674.000000	99.063624
673.000000	99.113028
672.000000	99.160045
671.000000	99.205733
670.000000	99.246687
669.000000	99.283282
668.000000	99.325475
667.000000	99.383478
666.000000	99.447096
665.000000	99.500317
664.000000	99.546087
663.000000	99.587980
662.000000	99.616033
661.000000	99.618461
660.000000	99.604767
659.000000	99.602535
658.000000	99.627367
657.000000	99.665105
656.000000	99.691352
655.000000	99.696078
654.000000	99.682034
653.000000	99.655065
652.000000	99.627449
651.000000	99.618667
650.000000	99.638644
649.000000	99.676538
648.000000	99.715513
647.000000	99.749725
646.000000	99.779626
645.000000	99.801968
644.000000	99.815544
643.000000	99.832812
642.000000	99.873820
641.000000	99.944861
640.000000	100.030841
639.000000	100.107268
638.000000	100.161813
637.000000	100.206439
636.000000	100.261848
635.000000	100.329166
634.000000	100.385595
633.000000	100.413694
632.000000	100.424701
631.000000	100.446085
630.000000	100.493357
629.000000	100.558717
628.000000	100.621684
627.000000	100.664779
626.000000	100.689046
625.000000	100.720590
624.000000	100.784762
623.000000	100.864424
622.000000	100.902747
621.000000	100.866706
620.000000	100.791061
619.000000	100.743769
618.000000	100.754285
617.000000	100.793125
616.000000	100.819716
615.000000	100.822012
614.000000	100.809383
613.000000	100.791550
612.000000	100.772139
611.000000	100.753657
610.000000	100.740800
609.000000	100.736068
608.000000	100.729427
607.000000	100.695490
606.000000	100.614129
605.000000	100.493464
604.000000	100.354525
603.000000	100.200104
602.000000	100.028799
601.000000	99.884705
600.000000	99.852572
599.000000	99.972067
598.000000	100.171621
597.000000	100.329251
596.000000	100.399115
595.000000	100.426999
594.000000	100.460825
593.000000	100.497863
592.000000	100.517415
591.000000	100.511038
590.000000	100.469810
589.000000	100.391911
588.000000	100.319643
587.000000	100.325222
586.000000	100.431196
585.000000	100.575991
584.000000	100.682160
583.000000	100.724346
582.000000	100.718390
581.000000	100.690611
580.000000	100.679112
579.000000	100.719117
578.000000	100.790510
577.000000	100.823809
576.000000	100.790480
575.000000	100.747381
574.000000	100.757646
573.000000	100.804965
572.000000	100.834384
571.000000	100.828850
570.000000	100.804555
569.000000	100.761964
568.000000	100.682290
567.000000	100.559344
566.000000	100.408261
565.000000	100.257725
564.000000	100.148765
563.000000	100.111367
562.000000	100.116494
561.000000	100.093749
560.000000	100.018260
559.000000	99.933347
558.000000	99.869529
557.000000	99.788895
556.000000	99.648622
555.000000	99.472852
554.000000	99.322905
553.000000	99.229798
552.000000	99.192531
551.000000	99.207976
550.000000	99.256823
