PE IR       SUBTECH     SPECTRUM    ASCII       PEDS        4.00        
   -1
BH1 8-1 1 40_1.asc
24/05/17
15:30:12.00
24/05/17
15:30:20.00
Administrator
?品 030 用? Administrator 日期 Friday, May 17 2024
550.000000
#HDR
-1
-1
#GR
cm-1
%T
1.0
0.0
4000.000000
-1.000000
3451
8
100.723306
92.259547
#DATA
4000.000000	100.626576
3999.000000	100.625240
3998.000000	100.624088
3997.000000	100.623078
3996.000000	100.621940
3995.000000	100.620472
3994.000000	100.618703
3993.000000	100.616868
3992.000000	100.615263
3991.000000	100.614020
3990.000000	100.613011
3989.000000	100.612044
3988.000000	100.611086
3987.000000	100.610226
3986.000000	100.609476
3985.000000	100.608708
3984.000000	100.607787
3983.000000	100.606689
3982.000000	100.605473
3981.000000	100.604202
3980.000000	100.602947
3979.000000	100.601834
3978.000000	100.600983
3977.000000	100.600400
3976.000000	100.599928
3975.000000	100.599326
3974.000000	100.598437
3973.000000	100.597279
3972.000000	100.596063
3971.000000	100.595081
3970.000000	100.594461
3969.000000	100.594083
3968.000000	100.593696
3967.000000	100.593198
3966.000000	100.592699
3965.000000	100.592280
3964.000000	100.591800
3963.000000	100.591022
3962.000000	100.589874
3961.000000	100.588535
3960.000000	100.587318
3959.000000	100.586443
3958.000000	100.585908
3957.000000	100.585563
3956.000000	100.585297
3955.000000	100.585116
3954.000000	100.585005
3953.000000	100.584824
3952.000000	100.584441
3951.000000	100.583884
3950.000000	100.583321
3949.000000	100.582911
3948.000000	100.582679
3947.000000	100.582518
3946.000000	100.582257
3945.000000	100.581812
3944.000000	100.581315
3943.000000	100.581035
3942.000000	100.581061
3941.000000	100.581122
3940.000000	100.580882
3939.000000	100.580324
3938.000000	100.579724
3937.000000	100.579326
3936.000000	100.579195
3935.000000	100.579341
3934.000000	100.579702
3933.000000	100.579929
3932.000000	100.579606
3931.000000	100.578820
3930.000000	100.578258
3929.000000	100.578425
3928.000000	100.579034
3927.000000	100.579360
3926.000000	100.579046
3925.000000	100.578309
3924.000000	100.577490
3923.000000	100.576786
3922.000000	100.576379
3921.000000	100.576324
3920.000000	100.576272
3919.000000	100.575797
3918.000000	100.575034
3917.000000	100.574566
3916.000000	100.574630
3915.000000	100.574940
3914.000000	100.575247
3913.000000	100.575658
3912.000000	100.576265
3911.000000	100.576958
3910.000000	100.577552
3909.000000	100.577990
3908.000000	100.578323
3907.000000	100.578586
3906.000000	100.578682
3905.000000	100.578408
3904.000000	100.577636
3903.000000	100.576411
3902.000000	100.574992
3901.000000	100.573834
3900.000000	100.573296
3899.000000	100.573337
3898.000000	100.573596
3897.000000	100.573766
3896.000000	100.573802
3895.000000	100.573724
3894.000000	100.573418
3893.000000	100.572880
3892.000000	100.572488
3891.000000	100.572704
3890.000000	100.573264
3889.000000	100.573337
3888.000000	100.572571
3887.000000	100.571352
3886.000000	100.570490
3885.000000	100.570420
3884.000000	100.570624
3883.000000	100.570448
3882.000000	100.570038
3881.000000	100.569935
3880.000000	100.570511
3879.000000	100.571465
3878.000000	100.571885
3877.000000	100.571349
3876.000000	100.570334
3875.000000	100.569747
3874.000000	100.569996
3873.000000	100.570223
3872.000000	100.569309
3871.000000	100.567517
3870.000000	100.566226
3869.000000	100.565721
3868.000000	100.564535
3867.000000	100.562592
3866.000000	100.561950
3865.000000	100.563440
3864.000000	100.565813
3863.000000	100.567603
3862.000000	100.568533
3861.000000	100.569107
3860.000000	100.569634
3859.000000	100.570482
3858.000000	100.572031
3857.000000	100.574079
3856.000000	100.575561
3855.000000	100.575383
3854.000000	100.574248
3853.000000	100.574133
3852.000000	100.574177
3851.000000	100.572746
3850.000000	100.570957
3849.000000	100.570027
3848.000000	100.569657
3847.000000	100.569334
3846.000000	100.568934
3845.000000	100.568530
3844.000000	100.568224
3843.000000	100.568082
3842.000000	100.567984
3841.000000	100.567745
3840.000000	100.567344
3839.000000	100.566906
3838.000000	100.566496
3837.000000	100.566083
3836.000000	100.565653
3835.000000	100.565196
3834.000000	100.564701
3833.000000	100.564163
3832.000000	100.563591
3831.000000	100.562995
3830.000000	100.562383
3829.000000	100.561756
3828.000000	100.561114
3827.000000	100.560466
3826.000000	100.559817
3825.000000	100.559158
3824.000000	100.558468
3823.000000	100.557731
3822.000000	100.556953
3821.000000	100.556152
3820.000000	100.555339
3819.000000	100.554508
3818.000000	100.553665
3817.000000	100.552832
3816.000000	100.552026
3815.000000	100.551250
3814.000000	100.550492
3813.000000	100.549752
3812.000000	100.549041
3811.000000	100.548366
3810.000000	100.547719
3809.000000	100.547097
3808.000000	100.546501
3807.000000	100.545930
3806.000000	100.545371
3805.000000	100.544806
3804.000000	100.544226
3803.000000	100.543644
3802.000000	100.543075
3801.000000	100.542521
3800.000000	100.541956
3799.000000	100.541360
3798.000000	100.540742
3797.000000	100.540130
3796.000000	100.539540
3795.000000	100.538975
3794.000000	100.538433
3793.000000	100.537924
3792.000000	100.537471
3791.000000	100.537095
3790.000000	100.536797
3789.000000	100.536557
3788.000000	100.536342
3787.000000	100.536133
3786.000000	100.535935
3785.000000	100.535760
3784.000000	100.535606
3783.000000	100.535459
3782.000000	100.535313
3781.000000	100.535171
3780.000000	100.535042
3779.000000	100.534924
3778.000000	100.534816
3777.000000	100.534715
3776.000000	100.534615
3775.000000	100.534495
3774.000000	100.534333
3773.000000	100.534127
3772.000000	100.533893
3771.000000	100.533660
3770.000000	100.533437
3769.000000	100.533218
3768.000000	100.532986
3767.000000	100.532735
3766.000000	100.532466
3765.000000	100.532176
3764.000000	100.531858
3763.000000	100.531508
3762.000000	100.531128
3761.000000	100.530719
3760.000000	100.530280
3759.000000	100.529812
3758.000000	100.529328
3757.000000	100.528842
3756.000000	100.528353
3755.000000	100.527842
3754.000000	100.527281
3753.000000	100.526651
3752.000000	100.525944
3751.000000	100.525157
3750.000000	100.524284
3749.000000	100.523309
3748.000000	100.522210
3747.000000	100.520985
3746.000000	100.519654
3745.000000	100.518251
3744.000000	100.516785
3743.000000	100.515231
3742.000000	100.513561
3741.000000	100.511784
3740.000000	100.509923
3739.000000	100.507987
3738.000000	100.505978
3737.000000	100.503892
3736.000000	100.501728
3735.000000	100.499484
3734.000000	100.497168
3733.000000	100.494801
3732.000000	100.492407
3731.000000	100.489994
3730.000000	100.487551
3729.000000	100.485065
3728.000000	100.482506
3727.000000	100.479848
3726.000000	100.477096
3725.000000	100.474245
3724.000000	100.471259
3723.000000	100.468105
3722.000000	100.464820
3721.000000	100.461541
3720.000000	100.458425
3719.000000	100.455552
3718.000000	100.452905
3717.000000	100.450380
3716.000000	100.447750
3715.000000	100.444780
3714.000000	100.441334
3713.000000	100.437242
3712.000000	100.432677
3711.000000	100.428525
3710.000000	100.425302
3709.000000	100.422411
3708.000000	100.418998
3707.000000	100.414671
3706.000000	100.409245
3705.000000	100.402437
3704.000000	100.394336
3703.000000	100.386292
3702.000000	100.381143
3701.000000	100.380690
3700.000000	100.382888
3699.000000	100.383835
3698.000000	100.381983
3697.000000	100.378434
3696.000000	100.374166
3695.000000	100.369196
3694.000000	100.364318
3693.000000	100.361253
3692.000000	100.360182
3691.000000	100.358894
3690.000000	100.355274
3689.000000	100.349995
3688.000000	100.344342
3687.000000	100.336512
3686.000000	100.324911
3685.000000	100.312208
3684.000000	100.301748
3683.000000	100.293789
3682.000000	100.287484
3681.000000	100.283948
3680.000000	100.285248
3679.000000	100.289816
3678.000000	100.292704
3677.000000	100.290799
3676.000000	100.286766
3675.000000	100.284428
3674.000000	100.278468
3673.000000	100.263005
3672.000000	100.242650
3671.000000	100.224754
3670.000000	100.213315
3669.000000	100.207291
3668.000000	100.200277
3667.000000	100.188952
3666.000000	100.175157
3665.000000	100.161189
3664.000000	100.148657
3663.000000	100.138916
3662.000000	100.132747
3661.000000	100.129502
3660.000000	100.126847
3659.000000	100.121842
3658.000000	100.113464
3657.000000	100.103892
3656.000000	100.096752
3655.000000	100.091642
3654.000000	100.085128
3653.000000	100.076775
3652.000000	100.067578
3651.000000	100.056600
3650.000000	100.044162
3649.000000	100.033601
3648.000000	100.026094
3647.000000	100.019015
3646.000000	100.009509
3645.000000	99.997455
3644.000000	99.985154
3643.000000	99.974918
3642.000000	99.966966
3641.000000	99.959724
3640.000000	99.952110
3639.000000	99.944895
3638.000000	99.938565
3637.000000	99.930874
3636.000000	99.919984
3635.000000	99.909032
3634.000000	99.904162
3633.000000	99.907268
3632.000000	99.913609
3631.000000	99.915879
3630.000000	99.909532
3629.000000	99.898898
3628.000000	99.891474
3627.000000	99.885398
3626.000000	99.879092
3625.000000	99.877039
3624.000000	99.880071
3623.000000	99.883757
3622.000000	99.883361
3621.000000	99.877496
3620.000000	99.869071
3619.000000	99.863902
3618.000000	99.865680
3617.000000	99.872396
3616.000000	99.879338
3615.000000	99.883166
3614.000000	99.883599
3613.000000	99.883289
3612.000000	99.885115
3611.000000	99.889357
3610.000000	99.893717
3609.000000	99.895560
3608.000000	99.894548
3607.000000	99.892980
3606.000000	99.893421
3605.000000	99.896490
3604.000000	99.900268
3603.000000	99.901891
3602.000000	99.900548
3601.000000	99.898305
3600.000000	99.897710
3599.000000	99.899450
3598.000000	99.903067
3597.000000	99.907716
3596.000000	99.912155
3595.000000	99.914757
3594.000000	99.914247
3593.000000	99.910542
3592.000000	99.905163
3591.000000	99.900257
3590.000000	99.897194
3589.000000	99.896336
3588.000000	99.897621
3587.000000	99.900357
3586.000000	99.902534
3585.000000	99.902294
3584.000000	99.899717
3583.000000	99.896326
3582.000000	99.893732
3581.000000	99.892467
3580.000000	99.891689
3579.000000	99.890053
3578.000000	99.887237
3577.000000	99.884282
3576.000000	99.882387
3575.000000	99.881683
3574.000000	99.881306
3573.000000	99.880547
3572.000000	99.879476
3571.000000	99.878301
3570.000000	99.876389
3569.000000	99.872562
3568.000000	99.866765
3567.000000	99.861237
3566.000000	99.858628
3565.000000	99.859149
3564.000000	99.860760
3563.000000	99.861144
3562.000000	99.859394
3561.000000	99.856168
3560.000000	99.852572
3559.000000	99.848861
3558.000000	99.844446
3557.000000	99.839028
3556.000000	99.833246
3555.000000	99.828326
3554.000000	99.825264
3553.000000	99.824222
3552.000000	99.824262
3551.000000	99.823748
3550.000000	99.821463
3549.000000	99.817433
3548.000000	99.812606
3547.000000	99.807973
3546.000000	99.804325
3545.000000	99.802494
3544.000000	99.803069
3543.000000	99.805693
3542.000000	99.808842
3541.000000	99.810767
3540.000000	99.810753
3539.000000	99.809409
3538.000000	99.807883
3537.000000	99.806798
3536.000000	99.805936
3535.000000	99.804680
3534.000000	99.802555
3533.000000	99.799275
3532.000000	99.794685
3531.000000	99.788938
3530.000000	99.782910
3529.000000	99.778055
3528.000000	99.775372
3527.000000	99.774453
3526.000000	99.773875
3525.000000	99.772675
3524.000000	99.771210
3523.000000	99.770527
3522.000000	99.771206
3521.000000	99.773284
3520.000000	99.776807
3519.000000	99.781534
3518.000000	99.786054
3517.000000	99.787986
3516.000000	99.785873
3515.000000	99.780738
3514.000000	99.775481
3513.000000	99.772241
3512.000000	99.770723
3511.000000	99.769256
3510.000000	99.767194
3509.000000	99.765841
3508.000000	99.766779
3507.000000	99.769794
3506.000000	99.772930
3505.000000	99.774387
3504.000000	99.774085
3503.000000	99.773344
3502.000000	99.773145
3501.000000	99.773067
3500.000000	99.772088
3499.000000	99.769921
3498.000000	99.767129
3497.000000	99.764169
3496.000000	99.760804
3495.000000	99.756825
3494.000000	99.752989
3493.000000	99.750530
3492.000000	99.749689
3491.000000	99.749192
3490.000000	99.747530
3489.000000	99.744719
3488.000000	99.742380
3487.000000	99.742028
3486.000000	99.743635
3485.000000	99.745817
3484.000000	99.747066
3483.000000	99.746818
3482.000000	99.745627
3481.000000	99.744457
3480.000000	99.743674
3479.000000	99.742711
3478.000000	99.740834
3477.000000	99.738122
3476.000000	99.735414
3475.000000	99.733362
3474.000000	99.731771
3473.000000	99.729951
3472.000000	99.727431
3471.000000	99.724231
3470.000000	99.720751
3469.000000	99.717621
3468.000000	99.715430
3467.000000	99.714291
3466.000000	99.713727
3465.000000	99.713091
3464.000000	99.711984
3463.000000	99.710157
3462.000000	99.707378
3461.000000	99.703766
3460.000000	99.700170
3459.000000	99.697757
3458.000000	99.696981
3457.000000	99.697203
3456.000000	99.697376
3455.000000	99.696872
3454.000000	99.695832
3453.000000	99.694882
3452.000000	99.694514
3451.000000	99.694574
3450.000000	99.694344
3449.000000	99.693209
3448.000000	99.691212
3447.000000	99.689014
3446.000000	99.687320
3445.000000	99.686323
3444.000000	99.685762
3443.000000	99.685274
3442.000000	99.684659
3441.000000	99.683874
3440.000000	99.682902
3439.000000	99.681734
3438.000000	99.680446
3437.000000	99.679231
3436.000000	99.678282
3435.000000	99.677632
3434.000000	99.677124
3433.000000	99.676527
3432.000000	99.675724
3431.000000	99.674791
3430.000000	99.673924
3429.000000	99.673252
3428.000000	99.672701
3427.000000	99.672039
3426.000000	99.671109
3425.000000	99.669965
3424.000000	99.668792
3423.000000	99.667729
3422.000000	99.666799
3421.000000	99.665988
3420.000000	99.665314
3419.000000	99.664780
3418.000000	99.664305
3417.000000	99.663746
3416.000000	99.663010
3415.000000	99.662107
3414.000000	99.661179
3413.000000	99.660430
3412.000000	99.659956
3411.000000	99.659656
3410.000000	99.659309
3409.000000	99.658795
3408.000000	99.658156
3407.000000	99.657538
3406.000000	99.657083
3405.000000	99.656861
3404.000000	99.656853
3403.000000	99.656952
3402.000000	99.656987
3401.000000	99.656840
3400.000000	99.656521
3399.000000	99.656139
3398.000000	99.655795
3397.000000	99.655519
3396.000000	99.655296
3395.000000	99.655096
3394.000000	99.654872
3393.000000	99.654622
3392.000000	99.654472
3391.000000	99.654618
3390.000000	99.655100
3389.000000	99.655696
3388.000000	99.656111
3387.000000	99.656263
3386.000000	99.656346
3385.000000	99.656633
3384.000000	99.657240
3383.000000	99.658093
3382.000000	99.659050
3381.000000	99.660016
3380.000000	99.660899
3379.000000	99.661524
3378.000000	99.661691
3377.000000	99.661379
3376.000000	99.660883
3375.000000	99.660669
3374.000000	99.661035
3373.000000	99.661971
3372.000000	99.663225
3371.000000	99.664494
3370.000000	99.665539
3369.000000	99.666247
3368.000000	99.666718
3367.000000	99.667223
3366.000000	99.667978
3365.000000	99.668914
3364.000000	99.669764
3363.000000	99.670353
3362.000000	99.670749
3361.000000	99.671166
3360.000000	99.671744
3359.000000	99.672434
3358.000000	99.673101
3357.000000	99.673725
3356.000000	99.674463
3355.000000	99.675452
3354.000000	99.676624
3353.000000	99.677776
3352.000000	99.678771
3351.000000	99.679633
3350.000000	99.680456
3349.000000	99.681299
3348.000000	99.682171
3347.000000	99.683070
3346.000000	99.683992
3345.000000	99.684923
3344.000000	99.685842
3343.000000	99.686762
3342.000000	99.687727
3341.000000	99.688762
3340.000000	99.689837
3339.000000	99.690869
3338.000000	99.691809
3337.000000	99.692669
3336.000000	99.693510
3335.000000	99.694387
3334.000000	99.695305
3333.000000	99.696223
3332.000000	99.697093
3331.000000	99.697928
3330.000000	99.698806
3329.000000	99.699791
3328.000000	99.700866
3327.000000	99.701913
3326.000000	99.702826
3325.000000	99.703594
3324.000000	99.704286
3323.000000	99.704975
3322.000000	99.705712
3321.000000	99.706531
3320.000000	99.707436
3319.000000	99.708357
3318.000000	99.709213
3317.000000	99.710006
3316.000000	99.710823
3315.000000	99.711736
3314.000000	99.712722
3313.000000	99.713691
3312.000000	99.714581
3311.000000	99.715414
3310.000000	99.716274
3309.000000	99.717243
3308.000000	99.718325
3307.000000	99.719417
3306.000000	99.720352
3305.000000	99.721025
3304.000000	99.721463
3303.000000	99.721806
3302.000000	99.722218
3301.000000	99.722792
3300.000000	99.723521
3299.000000	99.724328
3298.000000	99.725110
3297.000000	99.725824
3296.000000	99.726505
3295.000000	99.727214
3294.000000	99.727970
3293.000000	99.728762
3292.000000	99.729574
3291.000000	99.730393
3290.000000	99.731191
3289.000000	99.731934
3288.000000	99.732613
3287.000000	99.733260
3286.000000	99.733929
3285.000000	99.734636
3284.000000	99.735363
3283.000000	99.736082
3282.000000	99.736784
3281.000000	99.737481
3280.000000	99.738181
3279.000000	99.738880
3278.000000	99.739559
3277.000000	99.740214
3276.000000	99.740855
3275.000000	99.741506
3274.000000	99.742181
3273.000000	99.742885
3272.000000	99.743611
3271.000000	99.744345
3270.000000	99.745065
3269.000000	99.745741
3268.000000	99.746370
3267.000000	99.747003
3266.000000	99.747717
3265.000000	99.748515
3264.000000	99.749305
3263.000000	99.750008
3262.000000	99.750667
3261.000000	99.751411
3260.000000	99.752302
3259.000000	99.753252
3258.000000	99.754120
3257.000000	99.754805
3256.000000	99.755257
3255.000000	99.755475
3254.000000	99.755541
3253.000000	99.755510
3252.000000	99.755290
3251.000000	99.754836
3250.000000	99.754543
3249.000000	99.755120
3248.000000	99.756807
3247.000000	99.758909
3246.000000	99.760462
3245.000000	99.761139
3244.000000	99.761175
3243.000000	99.760752
3242.000000	99.759960
3241.000000	99.759262
3240.000000	99.759415
3239.000000	99.760775
3238.000000	99.762932
3237.000000	99.765165
3236.000000	99.767088
3235.000000	99.768807
3234.000000	99.770665
3233.000000	99.772785
3232.000000	99.774625
3231.000000	99.775188
3230.000000	99.774032
3229.000000	99.772047
3228.000000	99.770730
3227.000000	99.770575
3226.000000	99.770799
3225.000000	99.770728
3224.000000	99.770865
3223.000000	99.772157
3222.000000	99.774620
3221.000000	99.777213
3220.000000	99.778941
3219.000000	99.779669
3218.000000	99.779810
3217.000000	99.779676
3216.000000	99.779278
3215.000000	99.778495
3214.000000	99.777238
3213.000000	99.775581
3212.000000	99.773903
3211.000000	99.772953
3210.000000	99.773633
3209.000000	99.776458
3208.000000	99.780979
3207.000000	99.785702
3206.000000	99.789069
3205.000000	99.790664
3204.000000	99.791223
3203.000000	99.791613
3202.000000	99.792023
3201.000000	99.792321
3200.000000	99.792824
3199.000000	99.794139
3198.000000	99.796348
3197.000000	99.798734
3196.000000	99.800467
3195.000000	99.801391
3194.000000	99.802028
3193.000000	99.802963
3192.000000	99.804222
3191.000000	99.805277
3190.000000	99.805684
3189.000000	99.805652
3188.000000	99.805948
3187.000000	99.807136
3186.000000	99.809083
3185.000000	99.811230
3184.000000	99.813180
3183.000000	99.814890
3182.000000	99.816363
3181.000000	99.817524
3180.000000	99.818438
3179.000000	99.819373
3178.000000	99.820504
3177.000000	99.821722
3176.000000	99.822858
3175.000000	99.823945
3174.000000	99.825150
3173.000000	99.826530
3172.000000	99.827984
3171.000000	99.829414
3170.000000	99.830829
3169.000000	99.832262
3168.000000	99.833686
3167.000000	99.835064
3166.000000	99.836395
3165.000000	99.837704
3164.000000	99.839019
3163.000000	99.840358
3162.000000	99.841720
3161.000000	99.843096
3160.000000	99.844475
3159.000000	99.845865
3158.000000	99.847275
3157.000000	99.848706
3156.000000	99.850142
3155.000000	99.851566
3154.000000	99.852974
3153.000000	99.854375
3152.000000	99.855778
3151.000000	99.857181
3150.000000	99.858572
3149.000000	99.859949
3148.000000	99.861318
3147.000000	99.862692
3146.000000	99.864068
3145.000000	99.865429
3144.000000	99.866754
3143.000000	99.868041
3142.000000	99.869314
3141.000000	99.870600
3140.000000	99.871914
3139.000000	99.873251
3138.000000	99.874598
3137.000000	99.875939
3136.000000	99.877261
3135.000000	99.878566
3134.000000	99.879869
3133.000000	99.881196
3132.000000	99.882558
3131.000000	99.883937
3130.000000	99.885287
3129.000000	99.886562
3128.000000	99.887742
3127.000000	99.888855
3126.000000	99.889977
3125.000000	99.891190
3124.000000	99.892541
3123.000000	99.894012
3122.000000	99.895489
3121.000000	99.896817
3120.000000	99.897875
3119.000000	99.898667
3118.000000	99.899326
3117.000000	99.900039
3116.000000	99.900913
3115.000000	99.901934
3114.000000	99.902975
3113.000000	99.903942
3112.000000	99.904921
3111.000000	99.906115
3110.000000	99.907609
3109.000000	99.909208
3108.000000	99.910565
3107.000000	99.911512
3106.000000	99.912187
3105.000000	99.912853
3104.000000	99.913607
3103.000000	99.914387
3102.000000	99.915156
3101.000000	99.915948
3100.000000	99.916751
3099.000000	99.917491
3098.000000	99.918180
3097.000000	99.919009
3096.000000	99.920167
3095.000000	99.921618
3094.000000	99.923073
3093.000000	99.924223
3092.000000	99.925011
3091.000000	99.925608
3090.000000	99.926196
3089.000000	99.926790
3088.000000	99.927337
3087.000000	99.927909
3086.000000	99.928695
3085.000000	99.929755
3084.000000	99.930941
3083.000000	99.932068
3082.000000	99.933100
3081.000000	99.934097
3080.000000	99.935066
3079.000000	99.935939
3078.000000	99.936676
3077.000000	99.937319
3076.000000	99.937949
3075.000000	99.938625
3074.000000	99.939359
3073.000000	99.940134
3072.000000	99.940945
3071.000000	99.941804
3070.000000	99.942709
3069.000000	99.943598
3068.000000	99.944378
3067.000000	99.945030
3066.000000	99.945626
3065.000000	99.946281
3064.000000	99.947044
3063.000000	99.947901
3062.000000	99.948810
3061.000000	99.949731
3060.000000	99.950639
3059.000000	99.951501
3058.000000	99.952283
3057.000000	99.952981
3056.000000	99.953628
3055.000000	99.954272
3054.000000	99.954946
3053.000000	99.955670
3052.000000	99.956436
3051.000000	99.957193
3050.000000	99.957876
3049.000000	99.958465
3048.000000	99.959026
3047.000000	99.959646
3046.000000	99.960363
3045.000000	99.961169
3044.000000	99.962075
3043.000000	99.963131
3042.000000	99.964330
3041.000000	99.965483
3040.000000	99.966259
3039.000000	99.966452
3038.000000	99.966212
3037.000000	99.965915
3036.000000	99.965822
3035.000000	99.966077
3034.000000	99.967001
3033.000000	99.969021
3032.000000	99.972106
3031.000000	99.975423
3030.000000	99.977869
3029.000000	99.978888
3028.000000	99.978638
3027.000000	99.977672
3026.000000	99.976778
3025.000000	99.976946
3024.000000	99.978929
3023.000000	99.982586
3022.000000	99.986837
3021.000000	99.990261
3020.000000	99.991801
3019.000000	99.991187
3018.000000	99.989153
3017.000000	99.987144
3016.000000	99.986213
3015.000000	99.986187
3014.000000	99.986128
3013.000000	99.985498
3012.000000	99.984607
3011.000000	99.984211
3010.000000	99.985136
3009.000000	99.988028
3008.000000	99.992715
3007.000000	99.997707
3006.000000	100.000842
3005.000000	100.001019
3004.000000	99.999279
3003.000000	99.997937
3002.000000	99.998697
3001.000000	100.001697
3000.000000	100.006098
2999.000000	100.011189
2998.000000	100.016653
2997.000000	100.021967
2996.000000	100.026228
2995.000000	100.029068
2994.000000	100.031288
2993.000000	100.033860
2992.000000	100.036422
2991.000000	100.037651
2990.000000	100.037496
2989.000000	100.038208
2988.000000	100.042277
2987.000000	100.049723
2986.000000	100.058121
2985.000000	100.065231
2984.000000	100.070850
2983.000000	100.075865
2982.000000	100.080532
2981.000000	100.084485
2980.000000	100.088060
2979.000000	100.092663
2978.000000	100.099381
2977.000000	100.107583
2976.000000	100.115348
2975.000000	100.121448
2974.000000	100.126588
2973.000000	100.132496
2972.000000	100.140282
2971.000000	100.150217
2970.000000	100.162493
2969.000000	100.176580
2968.000000	100.189426
2967.000000	100.196255
2966.000000	100.195307
2965.000000	100.191309
2964.000000	100.192078
2963.000000	100.201149
2962.000000	100.215271
2961.000000	100.229012
2960.000000	100.239642
2959.000000	100.246702
2958.000000	100.249331
2957.000000	100.246959
2956.000000	100.242219
2955.000000	100.240348
2954.000000	100.244110
2953.000000	100.250264
2952.000000	100.252628
2951.000000	100.248910
2950.000000	100.243512
2949.000000	100.242950
2948.000000	100.249529
2947.000000	100.260602
2946.000000	100.273198
2945.000000	100.287085
2944.000000	100.302692
2943.000000	100.318538
2942.000000	100.333138
2941.000000	100.348401
2940.000000	100.368305
2939.000000	100.393655
2938.000000	100.420017
2937.000000	100.441732
2936.000000	100.457086
2935.000000	100.469412
2934.000000	100.484251
2933.000000	100.505390
2932.000000	100.531824
2931.000000	100.558150
2930.000000	100.579433
2929.000000	100.596179
2928.000000	100.613015
2927.000000	100.631870
2926.000000	100.648432
2925.000000	100.656443
2924.000000	100.653439
2923.000000	100.640872
2922.000000	100.620860
2921.000000	100.595530
2920.000000	100.568555
2919.000000	100.543898
2918.000000	100.522118
2917.000000	100.499846
2916.000000	100.473854
2915.000000	100.444722
2914.000000	100.416036
2913.000000	100.390761
2912.000000	100.369065
2911.000000	100.349352
2910.000000	100.330702
2909.000000	100.313926
2908.000000	100.300263
2907.000000	100.289574
2906.000000	100.280529
2905.000000	100.272611
2904.000000	100.266967
2903.000000	100.264588
2902.000000	100.264253
2901.000000	100.263008
2900.000000	100.258421
2899.000000	100.249986
2898.000000	100.238899
2897.000000	100.227399
2896.000000	100.217911
2895.000000	100.211616
2894.000000	100.207505
2893.000000	100.203238
2892.000000	100.197166
2891.000000	100.189536
2890.000000	100.182175
2889.000000	100.177471
2888.000000	100.177052
2887.000000	100.180251
2886.000000	100.183865
2885.000000	100.184597
2884.000000	100.182263
2883.000000	100.179982
2882.000000	100.180872
2881.000000	100.185024
2880.000000	100.190045
2879.000000	100.193978
2878.000000	100.196990
2877.000000	100.200421
2876.000000	100.204924
2875.000000	100.209916
2874.000000	100.214564
2873.000000	100.218708
2872.000000	100.222500
2871.000000	100.225610
2870.000000	100.227636
2869.000000	100.229461
2868.000000	100.233226
2867.000000	100.240204
2866.000000	100.249271
2865.000000	100.258581
2864.000000	100.268438
2863.000000	100.280990
2862.000000	100.296715
2861.000000	100.312826
2860.000000	100.326588
2859.000000	100.339204
2858.000000	100.354495
2857.000000	100.373458
2856.000000	100.391729
2855.000000	100.403500
2854.000000	100.406780
2853.000000	100.403556
2852.000000	100.395436
2851.000000	100.381183
2850.000000	100.359613
2849.000000	100.333542
2848.000000	100.308826
2847.000000	100.289140
2846.000000	100.273025
2845.000000	100.256599
2844.000000	100.238028
2843.000000	100.218673
2842.000000	100.200891
2841.000000	100.186050
2840.000000	100.174622
2839.000000	100.166927
2838.000000	100.162931
2837.000000	100.161556
2836.000000	100.160898
2835.000000	100.159584
2834.000000	100.157827
2833.000000	100.156697
2832.000000	100.156145
2831.000000	100.154207
2830.000000	100.148967
2829.000000	100.141309
2828.000000	100.134797
2827.000000	100.132353
2826.000000	100.133681
2825.000000	100.136271
2824.000000	100.138032
2823.000000	100.138103
2822.000000	100.135870
2821.000000	100.130951
2820.000000	100.124551
2819.000000	100.119605
2818.000000	100.118560
2817.000000	100.121181
2816.000000	100.124915
2815.000000	100.127316
2814.000000	100.127941
2813.000000	100.128066
2812.000000	100.128850
2811.000000	100.129960
2810.000000	100.130214
2809.000000	100.129529
2808.000000	100.129492
2807.000000	100.131410
2806.000000	100.134266
2805.000000	100.135641
2804.000000	100.134832
2803.000000	100.133867
2802.000000	100.134681
2801.000000	100.136288
2800.000000	100.136210
2799.000000	100.134357
2798.000000	100.133726
2797.000000	100.136557
2796.000000	100.141194
2795.000000	100.143894
2794.000000	100.143262
2793.000000	100.141514
2792.000000	100.141438
2791.000000	100.143167
2790.000000	100.144673
2789.000000	100.144679
2788.000000	100.143973
2787.000000	100.143940
2786.000000	100.144805
2785.000000	100.145823
2784.000000	100.146516
2783.000000	100.147030
2782.000000	100.147611
2781.000000	100.148274
2780.000000	100.148964
2779.000000	100.149681
2778.000000	100.150421
2777.000000	100.151167
2776.000000	100.151924
2775.000000	100.152691
2774.000000	100.153468
2773.000000	100.154261
2772.000000	100.155075
2771.000000	100.155906
2770.000000	100.156743
2769.000000	100.157574
2768.000000	100.158391
2767.000000	100.159198
2766.000000	100.159997
2765.000000	100.160794
2764.000000	100.161592
2763.000000	100.162397
2762.000000	100.163208
2761.000000	100.164021
2760.000000	100.164826
2759.000000	100.165622
2758.000000	100.166419
2757.000000	100.167231
2756.000000	100.168065
2755.000000	100.168916
2754.000000	100.169773
2753.000000	100.170632
2752.000000	100.171495
2751.000000	100.172362
2750.000000	100.173228
2749.000000	100.174089
2748.000000	100.174949
2747.000000	100.175814
2746.000000	100.176686
2745.000000	100.177561
2744.000000	100.178437
2743.000000	100.179314
2742.000000	100.180191
2741.000000	100.181065
2740.000000	100.181923
2739.000000	100.182754
2738.000000	100.183553
2737.000000	100.184326
2736.000000	100.185084
2735.000000	100.185830
2734.000000	100.186560
2733.000000	100.187272
2732.000000	100.187969
2731.000000	100.188659
2730.000000	100.189338
2729.000000	100.189982
2728.000000	100.190580
2727.000000	100.191153
2726.000000	100.191717
2725.000000	100.192260
2724.000000	100.192761
2723.000000	100.193220
2722.000000	100.193660
2721.000000	100.194109
2720.000000	100.194578
2719.000000	100.195068
2718.000000	100.195572
2717.000000	100.196080
2716.000000	100.196563
2715.000000	100.197003
2714.000000	100.197414
2713.000000	100.197838
2712.000000	100.198296
2711.000000	100.198782
2710.000000	100.199249
2709.000000	100.199661
2708.000000	100.200019
2707.000000	100.200359
2706.000000	100.200706
2705.000000	100.201061
2704.000000	100.201434
2703.000000	100.201848
2702.000000	100.202304
2701.000000	100.202741
2700.000000	100.203081
2699.000000	100.203290
2698.000000	100.203446
2697.000000	100.203703
2696.000000	100.204138
2695.000000	100.204673
2694.000000	100.205159
2693.000000	100.205584
2692.000000	100.206072
2691.000000	100.206692
2690.000000	100.207347
2689.000000	100.207887
2688.000000	100.208283
2687.000000	100.208625
2686.000000	100.208993
2685.000000	100.209371
2684.000000	100.209717
2683.000000	100.210007
2682.000000	100.210234
2681.000000	100.210453
2680.000000	100.210841
2679.000000	100.211535
2678.000000	100.212407
2677.000000	100.213127
2676.000000	100.213549
2675.000000	100.213915
2674.000000	100.214593
2673.000000	100.215656
2672.000000	100.216815
2671.000000	100.217739
2670.000000	100.218324
2669.000000	100.218676
2668.000000	100.218894
2667.000000	100.218949
2666.000000	100.218845
2665.000000	100.218786
2664.000000	100.219034
2663.000000	100.219589
2662.000000	100.220132
2661.000000	100.220400
2660.000000	100.220527
2659.000000	100.220833
2658.000000	100.221321
2657.000000	100.221674
2656.000000	100.221759
2655.000000	100.221819
2654.000000	100.222094
2653.000000	100.222468
2652.000000	100.222656
2651.000000	100.222579
2650.000000	100.222414
2649.000000	100.222351
2648.000000	100.222426
2647.000000	100.222584
2646.000000	100.222802
2645.000000	100.223116
2644.000000	100.223566
2643.000000	100.224104
2642.000000	100.224564
2641.000000	100.224763
2640.000000	100.224673
2639.000000	100.224439
2638.000000	100.224287
2637.000000	100.224322
2636.000000	100.224504
2635.000000	100.224750
2634.000000	100.225013
2633.000000	100.225250
2632.000000	100.225408
2631.000000	100.225463
2630.000000	100.225456
2629.000000	100.225474
2628.000000	100.225598
2627.000000	100.225851
2626.000000	100.226199
2625.000000	100.226575
2624.000000	100.226915
2623.000000	100.227187
2622.000000	100.227383
2621.000000	100.227498
2620.000000	100.227549
2619.000000	100.227598
2618.000000	100.227719
2617.000000	100.227927
2616.000000	100.228171
2615.000000	100.228387
2614.000000	100.228562
2613.000000	100.228740
2612.000000	100.228969
2611.000000	100.229250
2610.000000	100.229548
2609.000000	100.229855
2608.000000	100.230203
2607.000000	100.230614
2606.000000	100.231027
2605.000000	100.231303
2604.000000	100.231356
2603.000000	100.231287
2602.000000	100.231339
2601.000000	100.231624
2600.000000	100.231994
2599.000000	100.232271
2598.000000	100.232549
2597.000000	100.233027
2596.000000	100.233580
2595.000000	100.233791
2594.000000	100.233473
2593.000000	100.232998
2592.000000	100.232947
2591.000000	100.233470
2590.000000	100.234137
2589.000000	100.234421
2588.000000	100.234274
2587.000000	100.234134
2586.000000	100.234371
2585.000000	100.234846
2584.000000	100.235105
2583.000000	100.235112
2582.000000	100.235485
2581.000000	100.236692
2580.000000	100.238298
2579.000000	100.239461
2578.000000	100.240163
2577.000000	100.241299
2576.000000	100.243344
2575.000000	100.245425
2574.000000	100.246296
2573.000000	100.245837
2572.000000	100.245045
2571.000000	100.244740
2570.000000	100.244659
2569.000000	100.244076
2568.000000	100.242821
2567.000000	100.241487
2566.000000	100.240797
2565.000000	100.240986
2564.000000	100.241816
2563.000000	100.242991
2562.000000	100.244353
2561.000000	100.245637
2560.000000	100.246411
2559.000000	100.246520
2558.000000	100.246492
2557.000000	100.247125
2556.000000	100.248610
2555.000000	100.250287
2554.000000	100.251377
2553.000000	100.251784
2552.000000	100.251927
2551.000000	100.252020
2550.000000	100.251831
2549.000000	100.251210
2548.000000	100.250515
2547.000000	100.250265
2546.000000	100.250517
2545.000000	100.250830
2544.000000	100.250889
2543.000000	100.250944
2542.000000	100.251431
2541.000000	100.252315
2540.000000	100.253060
2539.000000	100.253304
2538.000000	100.253306
2537.000000	100.253593
2536.000000	100.254278
2535.000000	100.254946
2534.000000	100.255189
2533.000000	100.255024
2532.000000	100.254738
2531.000000	100.254567
2530.000000	100.254585
2529.000000	100.254812
2528.000000	100.255232
2527.000000	100.255729
2526.000000	100.256130
2525.000000	100.256363
2524.000000	100.256514
2523.000000	100.256742
2522.000000	100.257140
2521.000000	100.257644
2520.000000	100.258016
2519.000000	100.258001
2518.000000	100.257619
2517.000000	100.257303
2516.000000	100.257511
2515.000000	100.258252
2514.000000	100.259115
2513.000000	100.259790
2512.000000	100.260403
2511.000000	100.261225
2510.000000	100.262270
2509.000000	100.263259
2508.000000	100.263914
2507.000000	100.264197
2506.000000	100.264297
2505.000000	100.264404
2504.000000	100.264595
2503.000000	100.264957
2502.000000	100.265691
2501.000000	100.266894
2500.000000	100.268200
2499.000000	100.268913
2498.000000	100.268700
2497.000000	100.267930
2496.000000	100.267259
2495.000000	100.266960
2494.000000	100.266886
2493.000000	100.266902
2492.000000	100.267069
2491.000000	100.267489
2490.000000	100.268174
2489.000000	100.269082
2488.000000	100.270079
2487.000000	100.270925
2486.000000	100.271484
2485.000000	100.271909
2484.000000	100.272441
2483.000000	100.273073
2482.000000	100.273550
2481.000000	100.273718
2480.000000	100.273721
2479.000000	100.273865
2478.000000	100.274358
2477.000000	100.275171
2476.000000	100.276110
2475.000000	100.277016
2474.000000	100.277943
2473.000000	100.279053
2472.000000	100.280345
2471.000000	100.281564
2470.000000	100.282408
2469.000000	100.282801
2468.000000	100.282895
2467.000000	100.282959
2466.000000	100.283263
2465.000000	100.283958
2464.000000	100.285003
2463.000000	100.286169
2462.000000	100.287192
2461.000000	100.287997
2460.000000	100.288686
2459.000000	100.289380
2458.000000	100.290117
2457.000000	100.290886
2456.000000	100.291668
2455.000000	100.292439
2454.000000	100.293184
2453.000000	100.293932
2452.000000	100.294733
2451.000000	100.295603
2450.000000	100.296534
2449.000000	100.297536
2448.000000	100.298613
2447.000000	100.299694
2446.000000	100.300671
2445.000000	100.301515
2444.000000	100.302304
2443.000000	100.303136
2442.000000	100.304024
2441.000000	100.304921
2440.000000	100.305781
2439.000000	100.306591
2438.000000	100.307358
2437.000000	100.308104
2436.000000	100.308848
2435.000000	100.309595
2434.000000	100.310338
2433.000000	100.311073
2432.000000	100.311801
2431.000000	100.312519
2430.000000	100.313224
2429.000000	100.313929
2428.000000	100.314668
2427.000000	100.315469
2426.000000	100.316310
2425.000000	100.317126
2424.000000	100.317897
2423.000000	100.318665
2422.000000	100.319472
2421.000000	100.320278
2420.000000	100.320990
2419.000000	100.321563
2418.000000	100.322045
2417.000000	100.322554
2416.000000	100.323174
2415.000000	100.323889
2414.000000	100.324604
2413.000000	100.325254
2412.000000	100.325887
2411.000000	100.326602
2410.000000	100.327402
2409.000000	100.328137
2408.000000	100.328645
2407.000000	100.328904
2406.000000	100.329057
2405.000000	100.329306
2404.000000	100.329740
2403.000000	100.330295
2402.000000	100.330834
2401.000000	100.331272
2400.000000	100.331603
2399.000000	100.331814
2398.000000	100.331879
2397.000000	100.331841
2396.000000	100.331830
2395.000000	100.331977
2394.000000	100.332347
2393.000000	100.332970
2392.000000	100.333832
2391.000000	100.334760
2390.000000	100.335440
2389.000000	100.335661
2388.000000	100.335505
2387.000000	100.335221
2386.000000	100.334928
2385.000000	100.334585
2384.000000	100.334177
2383.000000	100.333810
2382.000000	100.333623
2381.000000	100.333686
2380.000000	100.333950
2379.000000	100.334241
2378.000000	100.334317
2377.000000	100.334061
2376.000000	100.333610
2375.000000	100.333200
2374.000000	100.332923
2373.000000	100.332696
2372.000000	100.332443
2371.000000	100.332189
2370.000000	100.331981
2369.000000	100.331795
2368.000000	100.331549
2367.000000	100.331205
2366.000000	100.330799
2365.000000	100.330401
2364.000000	100.330073
2363.000000	100.329827
2362.000000	100.329639
2361.000000	100.329457
2360.000000	100.329238
2359.000000	100.328981
2358.000000	100.328701
2357.000000	100.328411
2356.000000	100.328122
2355.000000	100.327832
2354.000000	100.327539
2353.000000	100.327239
2352.000000	100.326929
2351.000000	100.326612
2350.000000	100.326290
2349.000000	100.325967
2348.000000	100.325647
2347.000000	100.325334
2346.000000	100.325032
2345.000000	100.324745
2344.000000	100.324476
2343.000000	100.324229
2342.000000	100.324002
2341.000000	100.323790
2340.000000	100.323583
2339.000000	100.323370
2338.000000	100.323149
2337.000000	100.322932
2336.000000	100.322738
2335.000000	100.322587
2334.000000	100.322485
2333.000000	100.322426
2332.000000	100.322386
2331.000000	100.322328
2330.000000	100.322222
2329.000000	100.322077
2328.000000	100.321927
2327.000000	100.321790
2326.000000	100.321648
2325.000000	100.321483
2324.000000	100.321323
2323.000000	100.321221
2322.000000	100.321208
2321.000000	100.321242
2320.000000	100.321245
2319.000000	100.321167
2318.000000	100.321029
2317.000000	100.320915
2316.000000	100.320897
2315.000000	100.320986
2314.000000	100.321145
2313.000000	100.321345
2312.000000	100.321557
2311.000000	100.321720
2310.000000	100.321743
2309.000000	100.321608
2308.000000	100.321432
2307.000000	100.321412
2306.000000	100.321654
2305.000000	100.322109
2304.000000	100.322655
2303.000000	100.323228
2302.000000	100.323823
2301.000000	100.324393
2300.000000	100.324791
2299.000000	100.324881
2298.000000	100.324673
2297.000000	100.324369
2296.000000	100.324228
2295.000000	100.324406
2294.000000	100.324886
2293.000000	100.325559
2292.000000	100.326256
2291.000000	100.326798
2290.000000	100.327075
2289.000000	100.327097
2288.000000	100.326979
2287.000000	100.326840
2286.000000	100.326717
2285.000000	100.326623
2284.000000	100.326619
2283.000000	100.326776
2282.000000	100.327125
2281.000000	100.327626
2280.000000	100.328186
2279.000000	100.328683
2278.000000	100.329035
2277.000000	100.329226
2276.000000	100.329281
2275.000000	100.329209
2274.000000	100.329027
2273.000000	100.328863
2272.000000	100.328903
2271.000000	100.329202
2270.000000	100.329555
2269.000000	100.329662
2268.000000	100.329460
2267.000000	100.329196
2266.000000	100.329175
2265.000000	100.329446
2264.000000	100.329785
2263.000000	100.329928
2262.000000	100.329863
2261.000000	100.329869
2260.000000	100.330223
2259.000000	100.330814
2258.000000	100.331209
2257.000000	100.331134
2256.000000	100.330713
2255.000000	100.330129
2254.000000	100.329315
2253.000000	100.328268
2252.000000	100.327456
2251.000000	100.327428
2250.000000	100.328046
2249.000000	100.328452
2248.000000	100.327981
2247.000000	100.326887
2246.000000	100.326017
2245.000000	100.325872
2244.000000	100.326206
2243.000000	100.326445
2242.000000	100.326305
2241.000000	100.325999
2240.000000	100.325948
2239.000000	100.326358
2238.000000	100.327003
2237.000000	100.327366
2236.000000	100.327021
2235.000000	100.325856
2234.000000	100.324126
2233.000000	100.322481
2232.000000	100.321776
2231.000000	100.322476
2230.000000	100.324129
2229.000000	100.325631
2228.000000	100.326394
2227.000000	100.326870
2226.000000	100.327725
2225.000000	100.328946
2224.000000	100.330064
2223.000000	100.330925
2222.000000	100.331724
2221.000000	100.332394
2220.000000	100.332552
2219.000000	100.332094
2218.000000	100.331373
2217.000000	100.330726
2216.000000	100.330215
2215.000000	100.329921
2214.000000	100.330099
2213.000000	100.330849
2212.000000	100.331915
2211.000000	100.332952
2210.000000	100.333738
2209.000000	100.334054
2208.000000	100.333727
2207.000000	100.333018
2206.000000	100.332652
2205.000000	100.333135
2204.000000	100.334210
2203.000000	100.335210
2202.000000	100.335827
2201.000000	100.336312
2200.000000	100.337058
2199.000000	100.338203
2198.000000	100.339546
2197.000000	100.340632
2196.000000	100.340975
2195.000000	100.340415
2194.000000	100.339249
2193.000000	100.338052
2192.000000	100.337317
2191.000000	100.337247
2190.000000	100.337735
2189.000000	100.338385
2188.000000	100.338725
2187.000000	100.338622
2186.000000	100.338401
2185.000000	100.338443
2184.000000	100.338776
2183.000000	100.339255
2182.000000	100.339940
2181.000000	100.340991
2180.000000	100.342252
2179.000000	100.343259
2178.000000	100.343699
2177.000000	100.343688
2176.000000	100.343629
2175.000000	100.343930
2174.000000	100.344805
2173.000000	100.346122
2172.000000	100.347333
2171.000000	100.347856
2170.000000	100.347614
2169.000000	100.347109
2168.000000	100.346882
2167.000000	100.346992
2166.000000	100.347243
2165.000000	100.347593
2164.000000	100.348103
2163.000000	100.348678
2162.000000	100.349137
2161.000000	100.349462
2160.000000	100.349736
2159.000000	100.349904
2158.000000	100.349861
2157.000000	100.349757
2156.000000	100.349915
2155.000000	100.350380
2154.000000	100.350803
2153.000000	100.350928
2152.000000	100.351010
2151.000000	100.351571
2150.000000	100.352850
2149.000000	100.354596
2148.000000	100.356273
2147.000000	100.357440
2146.000000	100.357963
2145.000000	100.358010
2144.000000	100.357898
2143.000000	100.357814
2142.000000	100.357717
2141.000000	100.357560
2140.000000	100.357479
2139.000000	100.357612
2138.000000	100.357837
2137.000000	100.357869
2136.000000	100.357669
2135.000000	100.357557
2134.000000	100.357776
2133.000000	100.358146
2132.000000	100.358379
2131.000000	100.358617
2130.000000	100.359319
2129.000000	100.360612
2128.000000	100.361995
2127.000000	100.362802
2126.000000	100.362879
2125.000000	100.362644
2124.000000	100.362694
2123.000000	100.363285
2122.000000	100.364260
2121.000000	100.365302
2120.000000	100.366241
2119.000000	100.367128
2118.000000	100.368034
2117.000000	100.368856
2116.000000	100.369403
2115.000000	100.369656
2114.000000	100.369849
2113.000000	100.370249
2112.000000	100.370894
2111.000000	100.371632
2110.000000	100.372335
2109.000000	100.373015
2108.000000	100.373722
2107.000000	100.374428
2106.000000	100.375057
2105.000000	100.375581
2104.000000	100.376047
2103.000000	100.376544
2102.000000	100.377147
2101.000000	100.377867
2100.000000	100.378644
2099.000000	100.379385
2098.000000	100.380037
2097.000000	100.380608
2096.000000	100.381129
2095.000000	100.381631
2094.000000	100.382167
2093.000000	100.382826
2092.000000	100.383653
2091.000000	100.384605
2090.000000	100.385590
2089.000000	100.386553
2088.000000	100.387463
2087.000000	100.388240
2086.000000	100.388756
2085.000000	100.388913
2084.000000	100.388746
2083.000000	100.388510
2082.000000	100.388584
2081.000000	100.389207
2080.000000	100.390281
2079.000000	100.391446
2078.000000	100.392459
2077.000000	100.393359
2076.000000	100.394183
2075.000000	100.394747
2074.000000	100.394930
2073.000000	100.394962
2072.000000	100.395217
2071.000000	100.395676
2070.000000	100.395859
2069.000000	100.395444
2068.000000	100.394730
2067.000000	100.394388
2066.000000	100.394743
2065.000000	100.395478
2064.000000	100.396051
2063.000000	100.396315
2062.000000	100.396555
2061.000000	100.396989
2060.000000	100.397467
2059.000000	100.397747
2058.000000	100.397899
2057.000000	100.398237
2056.000000	100.398875
2055.000000	100.399506
2054.000000	100.399656
2053.000000	100.399099
2052.000000	100.398070
2051.000000	100.397152
2050.000000	100.396774
2049.000000	100.396794
2048.000000	100.396677
2047.000000	100.396137
2046.000000	100.395445
2045.000000	100.394996
2044.000000	100.394754
2043.000000	100.394368
2042.000000	100.393723
2041.000000	100.393121
2040.000000	100.392888
2039.000000	100.393017
2038.000000	100.393200
2037.000000	100.393045
2036.000000	100.392305
2035.000000	100.391108
2034.000000	100.390033
2033.000000	100.389672
2032.000000	100.390059
2031.000000	100.390623
2030.000000	100.390757
2029.000000	100.390325
2028.000000	100.389549
2027.000000	100.388700
2026.000000	100.388064
2025.000000	100.387941
2024.000000	100.388438
2023.000000	100.389289
2022.000000	100.390020
2021.000000	100.390336
2020.000000	100.390237
2019.000000	100.389919
2018.000000	100.389617
2017.000000	100.389415
2016.000000	100.389106
2015.000000	100.388373
2014.000000	100.387159
2013.000000	100.385728
2012.000000	100.384390
2011.000000	100.383335
2010.000000	100.382742
2009.000000	100.382726
2008.000000	100.383037
2007.000000	100.383081
2006.000000	100.382579
2005.000000	100.381947
2004.000000	100.381767
2003.000000	100.382032
2002.000000	100.382144
2001.000000	100.381651
2000.000000	100.380654
1999.000000	100.379651
1998.000000	100.379180
1997.000000	100.379482
1996.000000	100.380416
1995.000000	100.381579
1994.000000	100.382569
1993.000000	100.383167
1992.000000	100.383342
1991.000000	100.383180
1990.000000	100.382863
1989.000000	100.382600
1988.000000	100.382502
1987.000000	100.382558
1986.000000	100.382716
1985.000000	100.382873
1984.000000	100.382830
1983.000000	100.382466
1982.000000	100.382037
1981.000000	100.382086
1980.000000	100.382818
1979.000000	100.383768
1978.000000	100.384207
1977.000000	100.383850
1976.000000	100.383033
1975.000000	100.382313
1974.000000	100.381953
1973.000000	100.381806
1972.000000	100.381600
1971.000000	100.381253
1970.000000	100.380971
1969.000000	100.381086
1968.000000	100.381796
1967.000000	100.382961
1966.000000	100.384108
1965.000000	100.384787
1964.000000	100.384960
1963.000000	100.384988
1962.000000	100.385244
1961.000000	100.385720
1960.000000	100.386066
1959.000000	100.386058
1958.000000	100.385858
1957.000000	100.385777
1956.000000	100.385922
1955.000000	100.386165
1954.000000	100.386295
1953.000000	100.386006
1952.000000	100.385055
1951.000000	100.383542
1950.000000	100.382034
1949.000000	100.381212
1948.000000	100.381204
1947.000000	100.381598
1946.000000	100.381983
1945.000000	100.382129
1944.000000	100.381653
1943.000000	100.380147
1942.000000	100.377990
1941.000000	100.376370
1940.000000	100.375995
1939.000000	100.376462
1938.000000	100.376947
1937.000000	100.377138
1936.000000	100.377265
1935.000000	100.377482
1934.000000	100.377628
1933.000000	100.377523
1932.000000	100.377287
1931.000000	100.377030
1930.000000	100.376716
1929.000000	100.376422
1928.000000	100.376022
1927.000000	100.375232
1926.000000	100.373789
1925.000000	100.372035
1924.000000	100.370877
1923.000000	100.370811
1922.000000	100.371495
1921.000000	100.372063
1920.000000	100.371834
1919.000000	100.370659
1918.000000	100.368986
1917.000000	100.367582
1916.000000	100.366673
1915.000000	100.365820
1914.000000	100.364676
1913.000000	100.363249
1912.000000	100.361691
1911.000000	100.359918
1910.000000	100.357812
1909.000000	100.355613
1908.000000	100.353696
1907.000000	100.352502
1906.000000	100.352026
1905.000000	100.351656
1904.000000	100.350554
1903.000000	100.348458
1902.000000	100.346544
1901.000000	100.346168
1900.000000	100.346686
1899.000000	100.346073
1898.000000	100.343562
1897.000000	100.340563
1896.000000	100.338442
1895.000000	100.336452
1894.000000	100.333568
1893.000000	100.330920
1892.000000	100.330479
1891.000000	100.332188
1890.000000	100.333777
1889.000000	100.333584
1888.000000	100.332400
1887.000000	100.331770
1886.000000	100.331916
1885.000000	100.331842
1884.000000	100.330639
1883.000000	100.328354
1882.000000	100.326032
1881.000000	100.324743
1880.000000	100.324317
1879.000000	100.323893
1878.000000	100.323396
1877.000000	100.323630
1876.000000	100.325014
1875.000000	100.326750
1874.000000	100.327958
1873.000000	100.329067
1872.000000	100.330943
1871.000000	100.333286
1870.000000	100.334783
1869.000000	100.334846
1868.000000	100.334039
1867.000000	100.332639
1866.000000	100.330561
1865.000000	100.328503
1864.000000	100.327618
1863.000000	100.328327
1862.000000	100.330198
1861.000000	100.332689
1860.000000	100.335194
1859.000000	100.336782
1858.000000	100.336984
1857.000000	100.336773
1856.000000	100.337805
1855.000000	100.340631
1854.000000	100.344355
1853.000000	100.347881
1852.000000	100.350341
1851.000000	100.351546
1850.000000	100.351972
1849.000000	100.352166
1848.000000	100.352378
1847.000000	100.352476
1846.000000	100.352661
1845.000000	100.353736
1844.000000	100.356422
1843.000000	100.359854
1842.000000	100.362239
1841.000000	100.363080
1840.000000	100.363038
1839.000000	100.362830
1838.000000	100.362651
1837.000000	100.362635
1836.000000	100.363115
1835.000000	100.364114
1834.000000	100.365209
1833.000000	100.365908
1832.000000	100.366079
1831.000000	100.366237
1830.000000	100.366920
1829.000000	100.367825
1828.000000	100.368336
1827.000000	100.368583
1826.000000	100.369317
1825.000000	100.370969
1824.000000	100.373110
1823.000000	100.374721
1822.000000	100.375138
1821.000000	100.374374
1820.000000	100.372863
1819.000000	100.371235
1818.000000	100.369986
1817.000000	100.369673
1816.000000	100.370649
1815.000000	100.372334
1814.000000	100.373665
1813.000000	100.373979
1812.000000	100.373701
1811.000000	100.373780
1810.000000	100.374541
1809.000000	100.375740
1808.000000	100.376704
1807.000000	100.376501
1806.000000	100.374831
1805.000000	100.372810
1804.000000	100.372125
1803.000000	100.373157
1802.000000	100.375007
1801.000000	100.376662
1800.000000	100.378293
1799.000000	100.380482
1798.000000	100.382783
1797.000000	100.384259
1796.000000	100.384229
1795.000000	100.382720
1794.000000	100.380796
1793.000000	100.380134
1792.000000	100.382005
1791.000000	100.385584
1790.000000	100.388730
1789.000000	100.390791
1788.000000	100.392302
1787.000000	100.393682
1786.000000	100.395453
1785.000000	100.398735
1784.000000	100.403674
1783.000000	100.408166
1782.000000	100.410958
1781.000000	100.412551
1780.000000	100.414393
1779.000000	100.416938
1778.000000	100.418845
1777.000000	100.419540
1776.000000	100.419435
1775.000000	100.419720
1774.000000	100.421108
1773.000000	100.422617
1772.000000	100.423652
1771.000000	100.425178
1770.000000	100.427591
1769.000000	100.430836
1768.000000	100.434888
1767.000000	100.438756
1766.000000	100.441433
1765.000000	100.443024
1764.000000	100.444641
1763.000000	100.446167
1762.000000	100.446805
1761.000000	100.446876
1760.000000	100.448924
1759.000000	100.454974
1758.000000	100.464717
1757.000000	100.475707
1756.000000	100.484488
1755.000000	100.490621
1754.000000	100.495915
1753.000000	100.501159
1752.000000	100.505219
1751.000000	100.508415
1750.000000	100.512169
1749.000000	100.517118
1748.000000	100.522356
1747.000000	100.526401
1746.000000	100.529355
1745.000000	100.531357
1744.000000	100.533238
1743.000000	100.535453
1742.000000	100.536444
1741.000000	100.534773
1740.000000	100.532158
1739.000000	100.531347
1738.000000	100.532304
1737.000000	100.533696
1736.000000	100.535177
1735.000000	100.535573
1734.000000	100.536010
1733.000000	100.536899
1732.000000	100.533969
1731.000000	100.526552
1730.000000	100.518565
1729.000000	100.513794
1728.000000	100.512747
1727.000000	100.513058
1726.000000	100.512578
1725.000000	100.510267
1724.000000	100.507532
1723.000000	100.505221
1722.000000	100.501891
1721.000000	100.497193
1720.000000	100.492973
1719.000000	100.490794
1718.000000	100.489620
1717.000000	100.488290
1716.000000	100.487227
1715.000000	100.486584
1714.000000	100.485636
1713.000000	100.483580
1712.000000	100.479967
1711.000000	100.475193
1710.000000	100.471223
1709.000000	100.469842
1708.000000	100.470073
1707.000000	100.469221
1706.000000	100.465685
1705.000000	100.461205
1704.000000	100.458152
1703.000000	100.456575
1702.000000	100.455276
1701.000000	100.453340
1700.000000	100.451782
1699.000000	100.450807
1698.000000	100.449173
1697.000000	100.446710
1696.000000	100.443927
1695.000000	100.441370
1694.000000	100.439174
1693.000000	100.437279
1692.000000	100.435707
1691.000000	100.434230
1690.000000	100.432621
1689.000000	100.430913
1688.000000	100.429222
1687.000000	100.427609
1686.000000	100.425918
1685.000000	100.423938
1684.000000	100.421968
1683.000000	100.420384
1682.000000	100.419082
1681.000000	100.417829
1680.000000	100.416498
1679.000000	100.415078
1678.000000	100.413670
1677.000000	100.412358
1676.000000	100.411160
1675.000000	100.410073
1674.000000	100.409068
1673.000000	100.408002
1672.000000	100.406753
1671.000000	100.405228
1670.000000	100.403438
1669.000000	100.401682
1668.000000	100.400205
1667.000000	100.398957
1666.000000	100.397753
1665.000000	100.396480
1664.000000	100.395233
1663.000000	100.394184
1662.000000	100.393384
1661.000000	100.392531
1660.000000	100.391339
1659.000000	100.390057
1658.000000	100.389083
1657.000000	100.388417
1656.000000	100.387614
1655.000000	100.386314
1654.000000	100.384074
1653.000000	100.382600
1652.000000	100.383181
1651.000000	100.383032
1650.000000	100.380834
1649.000000	100.377831
1648.000000	100.375387
1647.000000	100.374761
1646.000000	100.375517
1645.000000	100.375702
1644.000000	100.374578
1643.000000	100.373109
1642.000000	100.372512
1641.000000	100.372617
1640.000000	100.371927
1639.000000	100.369806
1638.000000	100.367311
1637.000000	100.366415
1636.000000	100.367860
1635.000000	100.370004
1634.000000	100.370066
1633.000000	100.368122
1632.000000	100.366812
1631.000000	100.367409
1630.000000	100.369196
1629.000000	100.370798
1628.000000	100.371954
1627.000000	100.373294
1626.000000	100.375103
1625.000000	100.376518
1624.000000	100.376893
1623.000000	100.377607
1622.000000	100.380835
1621.000000	100.386407
1620.000000	100.392446
1619.000000	100.397886
1618.000000	100.401758
1617.000000	100.403653
1616.000000	100.404573
1615.000000	100.405620
1614.000000	100.407252
1613.000000	100.409637
1612.000000	100.412102
1611.000000	100.413605
1610.000000	100.414309
1609.000000	100.414937
1608.000000	100.416054
1607.000000	100.418637
1606.000000	100.423968
1605.000000	100.431333
1604.000000	100.437953
1603.000000	100.442375
1602.000000	100.445360
1601.000000	100.448091
1600.000000	100.450669
1599.000000	100.452960
1598.000000	100.455616
1597.000000	100.459419
1596.000000	100.464381
1595.000000	100.469661
1594.000000	100.474262
1593.000000	100.477550
1592.000000	100.479403
1591.000000	100.480357
1590.000000	100.481551
1589.000000	100.483740
1588.000000	100.486662
1587.000000	100.489619
1586.000000	100.492417
1585.000000	100.495570
1584.000000	100.498962
1583.000000	100.502175
1582.000000	100.505266
1581.000000	100.508410
1580.000000	100.511567
1579.000000	100.515028
1578.000000	100.518779
1577.000000	100.521282
1576.000000	100.522764
1575.000000	100.525651
1574.000000	100.530385
1573.000000	100.535458
1572.000000	100.539665
1571.000000	100.541944
1570.000000	100.543318
1569.000000	100.546672
1568.000000	100.551147
1567.000000	100.554596
1566.000000	100.556653
1565.000000	100.557936
1564.000000	100.558132
1563.000000	100.558190
1562.000000	100.559713
1561.000000	100.563761
1560.000000	100.566717
1559.000000	100.567928
1558.000000	100.568359
1557.000000	100.566064
1556.000000	100.562880
1555.000000	100.562849
1554.000000	100.567810
1553.000000	100.574013
1552.000000	100.577044
1551.000000	100.577463
1550.000000	100.578028
1549.000000	100.581469
1548.000000	100.587498
1547.000000	100.593590
1546.000000	100.597440
1545.000000	100.597855
1544.000000	100.596311
1543.000000	100.596293
1542.000000	100.599198
1541.000000	100.602730
1540.000000	100.603490
1539.000000	100.600529
1538.000000	100.594246
1537.000000	100.585215
1536.000000	100.575937
1535.000000	100.567309
1534.000000	100.559130
1533.000000	100.552609
1532.000000	100.549262
1531.000000	100.548219
1530.000000	100.546915
1529.000000	100.544172
1528.000000	100.540428
1527.000000	100.536337
1526.000000	100.532547
1525.000000	100.528691
1524.000000	100.523741
1523.000000	100.517119
1522.000000	100.510068
1521.000000	100.507577
1520.000000	100.510566
1519.000000	100.513713
1518.000000	100.513817
1517.000000	100.511260
1516.000000	100.508305
1515.000000	100.506195
1514.000000	100.504901
1513.000000	100.504439
1512.000000	100.505030
1511.000000	100.505339
1510.000000	100.503371
1509.000000	100.499629
1508.000000	100.496144
1507.000000	100.493834
1506.000000	100.492436
1505.000000	100.492199
1504.000000	100.492313
1503.000000	100.493253
1502.000000	100.495167
1501.000000	100.495823
1500.000000	100.493800
1499.000000	100.490656
1498.000000	100.488217
1497.000000	100.486997
1496.000000	100.488221
1495.000000	100.489979
1494.000000	100.488792
1493.000000	100.485381
1492.000000	100.483693
1491.000000	100.485798
1490.000000	100.489654
1489.000000	100.492498
1488.000000	100.495553
1487.000000	100.499597
1486.000000	100.502349
1485.000000	100.503541
1484.000000	100.504241
1483.000000	100.506438
1482.000000	100.510028
1481.000000	100.512658
1480.000000	100.513386
1479.000000	100.513860
1478.000000	100.516255
1477.000000	100.520969
1476.000000	100.527700
1475.000000	100.536240
1474.000000	100.548498
1473.000000	100.565339
1472.000000	100.583277
1471.000000	100.597242
1470.000000	100.606150
1469.000000	100.612802
1468.000000	100.619475
1467.000000	100.625303
1466.000000	100.628271
1465.000000	100.628138
1464.000000	100.627315
1463.000000	100.628361
1462.000000	100.629552
1461.000000	100.628544
1460.000000	100.625412
1459.000000	100.622893
1458.000000	100.622317
1457.000000	100.622974
1456.000000	100.624318
1455.000000	100.625101
1454.000000	100.625250
1453.000000	100.624986
1452.000000	100.623688
1451.000000	100.621470
1450.000000	100.619310
1449.000000	100.617264
1448.000000	100.614406
1447.000000	100.609610
1446.000000	100.604488
1445.000000	100.600529
1444.000000	100.598182
1443.000000	100.597519
1442.000000	100.596699
1441.000000	100.594137
1440.000000	100.590534
1439.000000	100.588230
1438.000000	100.586160
1437.000000	100.580955
1436.000000	100.573400
1435.000000	100.568093
1434.000000	100.566561
1433.000000	100.567256
1432.000000	100.568018
1431.000000	100.567508
1430.000000	100.566383
1429.000000	100.566924
1428.000000	100.570860
1427.000000	100.576104
1426.000000	100.579256
1425.000000	100.577900
1424.000000	100.573021
1423.000000	100.568783
1422.000000	100.567490
1421.000000	100.568610
1420.000000	100.571173
1419.000000	100.575201
1418.000000	100.578985
1417.000000	100.580337
1416.000000	100.580478
1415.000000	100.581617
1414.000000	100.583715
1413.000000	100.585149
1412.000000	100.585410
1411.000000	100.585706
1410.000000	100.586577
1409.000000	100.587253
1408.000000	100.587511
1407.000000	100.587748
1406.000000	100.588158
1405.000000	100.588169
1404.000000	100.587622
1403.000000	100.587532
1402.000000	100.588519
1401.000000	100.590351
1400.000000	100.592754
1399.000000	100.595721
1398.000000	100.598576
1397.000000	100.600065
1396.000000	100.599684
1395.000000	100.598253
1394.000000	100.597356
1393.000000	100.597603
1392.000000	100.598781
1391.000000	100.600907
1390.000000	100.603868
1389.000000	100.606906
1388.000000	100.609132
1387.000000	100.610463
1386.000000	100.611513
1385.000000	100.612533
1384.000000	100.613222
1383.000000	100.613526
1382.000000	100.613810
1381.000000	100.614528
1380.000000	100.615788
1379.000000	100.617394
1378.000000	100.619144
1377.000000	100.620898
1376.000000	100.622424
1375.000000	100.623291
1374.000000	100.623122
1373.000000	100.621848
1372.000000	100.619912
1371.000000	100.618144
1370.000000	100.617510
1369.000000	100.618437
1368.000000	100.620371
1367.000000	100.622218
1366.000000	100.623321
1365.000000	100.623857
1364.000000	100.624287
1363.000000	100.624599
1362.000000	100.624266
1361.000000	100.623134
1360.000000	100.621882
1359.000000	100.621271
1358.000000	100.621376
1357.000000	100.621715
1356.000000	100.622018
1355.000000	100.622621
1354.000000	100.623860
1353.000000	100.625464
1352.000000	100.626989
1351.000000	100.628086
1350.000000	100.628499
1349.000000	100.627795
1348.000000	100.625864
1347.000000	100.623616
1346.000000	100.622325
1345.000000	100.622299
1344.000000	100.622636
1343.000000	100.622370
1342.000000	100.621359
1341.000000	100.620010
1340.000000	100.618744
1339.000000	100.618054
1338.000000	100.618452
1337.000000	100.619734
1336.000000	100.620801
1335.000000	100.620747
1334.000000	100.620040
1333.000000	100.620199
1332.000000	100.622232
1331.000000	100.625536
1330.000000	100.628444
1329.000000	100.629716
1328.000000	100.629304
1327.000000	100.627913
1326.000000	100.626464
1325.000000	100.625648
1324.000000	100.625754
1323.000000	100.626597
1322.000000	100.627438
1321.000000	100.627378
1320.000000	100.626175
1319.000000	100.624733
1318.000000	100.624446
1317.000000	100.625848
1316.000000	100.627925
1315.000000	100.628901
1314.000000	100.627843
1313.000000	100.625654
1312.000000	100.624374
1311.000000	100.625066
1310.000000	100.626705
1309.000000	100.627410
1308.000000	100.626533
1307.000000	100.625069
1306.000000	100.624390
1305.000000	100.624974
1304.000000	100.626457
1303.000000	100.628108
1302.000000	100.628904
1301.000000	100.627915
1300.000000	100.625206
1299.000000	100.622120
1298.000000	100.620067
1297.000000	100.619149
1296.000000	100.618329
1295.000000	100.616773
1294.000000	100.614723
1293.000000	100.613130
1292.000000	100.612796
1291.000000	100.613818
1290.000000	100.615446
1289.000000	100.616327
1288.000000	100.615226
1287.000000	100.611818
1286.000000	100.607061
1285.000000	100.602778
1284.000000	100.600533
1283.000000	100.600494
1282.000000	100.601082
1281.000000	100.600291
1280.000000	100.597707
1279.000000	100.595026
1278.000000	100.594339
1277.000000	100.596124
1276.000000	100.599042
1275.000000	100.601271
1274.000000	100.601739
1273.000000	100.600474
1272.000000	100.598317
1271.000000	100.596339
1270.000000	100.595090
1269.000000	100.594270
1268.000000	100.593275
1267.000000	100.591994
1266.000000	100.590809
1265.000000	100.589893
1264.000000	100.588827
1263.000000	100.586945
1262.000000	100.583952
1261.000000	100.580302
1260.000000	100.577169
1259.000000	100.576177
1258.000000	100.578595
1257.000000	100.583948
1256.000000	100.589139
1255.000000	100.590007
1254.000000	100.585255
1253.000000	100.578604
1252.000000	100.575313
1251.000000	100.576035
1250.000000	100.575768
1249.000000	100.569849
1248.000000	100.559285
1247.000000	100.548863
1246.000000	100.541210
1245.000000	100.534656
1244.000000	100.526348
1243.000000	100.515434
1242.000000	100.503497
1241.000000	100.493717
1240.000000	100.489508
1239.000000	100.491856
1238.000000	100.497299
1237.000000	100.499760
1236.000000	100.494814
1235.000000	100.481880
1234.000000	100.463706
1233.000000	100.445316
1232.000000	100.432241
1231.000000	100.426866
1230.000000	100.425934
1229.000000	100.423503
1228.000000	100.416402
1227.000000	100.405097
1226.000000	100.390144
1225.000000	100.370848
1224.000000	100.347832
1223.000000	100.323997
1222.000000	100.301675
1221.000000	100.280759
1220.000000	100.260413
1219.000000	100.240407
1218.000000	100.219993
1217.000000	100.197736
1216.000000	100.173424
1215.000000	100.147987
1214.000000	100.120974
1213.000000	100.090902
1212.000000	100.059089
1211.000000	100.029799
1210.000000	100.004542
1209.000000	99.979275
1208.000000	99.949845
1207.000000	99.917729
1206.000000	99.887735
1205.000000	99.861802
1204.000000	99.837759
1203.000000	99.812964
1202.000000	99.786633
1201.000000	99.759391
1200.000000	99.732592
1199.000000	99.707528
1198.000000	99.683732
1197.000000	99.658688
1196.000000	99.630254
1195.000000	99.598537
1194.000000	99.564923
1193.000000	99.530691
1192.000000	99.497236
1191.000000	99.465779
1190.000000	99.435652
1189.000000	99.404526
1188.000000	99.371455
1187.000000	99.338108
1186.000000	99.306032
1185.000000	99.274728
1184.000000	99.243730
1183.000000	99.214381
1182.000000	99.187481
1181.000000	99.160580
1180.000000	99.129713
1179.000000	99.093382
1178.000000	99.053622
1177.000000	99.013543
1176.000000	98.974441
1175.000000	98.934660
1174.000000	98.890977
1173.000000	98.842062
1172.000000	98.790590
1171.000000	98.740778
1170.000000	98.694195
1169.000000	98.649845
1168.000000	98.607989
1167.000000	98.571180
1166.000000	98.541104
1165.000000	98.517092
1164.000000	98.498697
1163.000000	98.487640
1162.000000	98.486126
1161.000000	98.494285
1160.000000	98.508861
1159.000000	98.523070
1158.000000	98.529261
1157.000000	98.524365
1156.000000	98.512071
1155.000000	98.497659
1154.000000	98.481644
1153.000000	98.460712
1152.000000	98.433135
1151.000000	98.399826
1150.000000	98.361711
1149.000000	98.320099
1148.000000	98.278784
1147.000000	98.241562
1146.000000	98.208044
1145.000000	98.175777
1144.000000	98.145328
1143.000000	98.118346
1142.000000	98.091499
1141.000000	98.058305
1140.000000	98.017495
1139.000000	97.974422
1138.000000	97.933694
1137.000000	97.895552
1136.000000	97.860154
1135.000000	97.829352
1134.000000	97.802413
1133.000000	97.775287
1132.000000	97.746101
1131.000000	97.716666
1130.000000	97.687140
1129.000000	97.654365
1128.000000	97.617435
1127.000000	97.579980
1126.000000	97.544660
1125.000000	97.509801
1124.000000	97.473546
1123.000000	97.436743
1122.000000	97.399467
1121.000000	97.359303
1120.000000	97.316075
1119.000000	97.274682
1118.000000	97.240134
1117.000000	97.212099
1116.000000	97.185848
1115.000000	97.155704
1114.000000	97.116994
1113.000000	97.068919
1112.000000	97.017651
1111.000000	96.972447
1110.000000	96.936121
1109.000000	96.903285
1108.000000	96.869821
1107.000000	96.838665
1106.000000	96.812825
1105.000000	96.788452
1104.000000	96.759925
1103.000000	96.727920
1102.000000	96.697358
1101.000000	96.670001
1100.000000	96.643422
1099.000000	96.615347
1098.000000	96.585530
1097.000000	96.554399
1096.000000	96.522064
1095.000000	96.488056
1094.000000	96.451986
1093.000000	96.416277
1092.000000	96.386910
1091.000000	96.367330
1090.000000	96.352238
1089.000000	96.332410
1088.000000	96.305402
1087.000000	96.276125
1086.000000	96.247591
1085.000000	96.217952
1084.000000	96.187282
1083.000000	96.159853
1082.000000	96.137401
1081.000000	96.116423
1080.000000	96.094438
1079.000000	96.073304
1078.000000	96.054729
1077.000000	96.037936
1076.000000	96.022419
1075.000000	96.006451
1074.000000	95.982723
1073.000000	95.943817
1072.000000	95.893515
1071.000000	95.844366
1070.000000	95.800645
1069.000000	95.751964
1068.000000	95.688212
1067.000000	95.612619
1066.000000	95.535246
1065.000000	95.460520
1064.000000	95.387766
1063.000000	95.318585
1062.000000	95.256603
1061.000000	95.202671
1060.000000	95.154780
1059.000000	95.109961
1058.000000	95.063616
1057.000000	95.010973
1056.000000	94.951996
1055.000000	94.891604
1054.000000	94.833310
1053.000000	94.776297
1052.000000	94.719301
1051.000000	94.661390
1050.000000	94.597676
1049.000000	94.521846
1048.000000	94.435499
1047.000000	94.347861
1046.000000	94.264072
1045.000000	94.180673
1044.000000	94.094024
1043.000000	94.005832
1042.000000	93.918409
1041.000000	93.831388
1040.000000	93.745882
1039.000000	93.665722
1038.000000	93.591837
1037.000000	93.520887
1036.000000	93.451262
1035.000000	93.384876
1034.000000	93.322121
1033.000000	93.261624
1032.000000	93.205770
1031.000000	93.159329
1030.000000	93.121694
1029.000000	93.087731
1028.000000	93.056867
1027.000000	93.032923
1026.000000	93.013947
1025.000000	92.990973
1024.000000	92.959135
1023.000000	92.922527
1022.000000	92.886325
1021.000000	92.851731
1020.000000	92.819849
1019.000000	92.792387
1018.000000	92.766645
1017.000000	92.737091
1016.000000	92.702871
1015.000000	92.666803
1014.000000	92.627911
1013.000000	92.583872
1012.000000	92.540136
1011.000000	92.506011
1010.000000	92.481081
1009.000000	92.456120
1008.000000	92.428662
1007.000000	92.406567
1006.000000	92.394099
1005.000000	92.385729
1004.000000	92.376711
1003.000000	92.368996
1002.000000	92.362679
1001.000000	92.351851
1000.000000	92.333649
999.000000	92.312913
998.000000	92.294044
997.000000	92.276745
996.000000	92.263099
995.000000	92.259547
994.000000	92.267131
993.000000	92.277459
992.000000	92.282797
991.000000	92.283908
990.000000	92.285094
989.000000	92.288514
988.000000	92.295996
987.000000	92.309378
986.000000	92.326667
985.000000	92.344654
984.000000	92.366447
983.000000	92.398788
982.000000	92.441268
981.000000	92.486764
980.000000	92.533511
979.000000	92.587134
978.000000	92.648723
977.000000	92.710942
976.000000	92.769431
975.000000	92.829162
974.000000	92.895530
973.000000	92.967161
972.000000	93.041272
971.000000	93.119089
970.000000	93.202376
969.000000	93.290254
968.000000	93.381185
967.000000	93.472173
966.000000	93.555977
965.000000	93.627115
964.000000	93.691683
963.000000	93.763074
962.000000	93.846332
961.000000	93.934427
960.000000	94.020707
959.000000	94.105264
958.000000	94.186749
957.000000	94.258434
956.000000	94.317479
955.000000	94.370323
954.000000	94.424075
953.000000	94.478752
952.000000	94.531596
951.000000	94.581991
950.000000	94.628454
949.000000	94.668321
948.000000	94.704588
947.000000	94.745447
946.000000	94.791920
945.000000	94.833417
944.000000	94.861869
943.000000	94.883586
942.000000	94.910404
941.000000	94.944375
940.000000	94.979266
939.000000	95.013101
938.000000	95.049822
937.000000	95.089053
936.000000	95.122281
935.000000	95.142040
934.000000	95.151037
933.000000	95.159858
932.000000	95.177304
931.000000	95.204477
930.000000	95.237326
929.000000	95.272422
928.000000	95.308090
927.000000	95.340928
926.000000	95.366329
925.000000	95.385379
924.000000	95.407096
923.000000	95.438894
922.000000	95.477221
921.000000	95.512374
920.000000	95.540273
919.000000	95.564148
918.000000	95.587341
917.000000	95.611205
916.000000	95.638284
915.000000	95.669957
914.000000	95.701387
913.000000	95.726078
912.000000	95.745571
911.000000	95.767955
910.000000	95.797588
909.000000	95.833974
908.000000	95.879761
907.000000	95.940054
906.000000	96.012169
905.000000	96.084915
904.000000	96.151526
903.000000	96.216255
902.000000	96.285768
901.000000	96.361714
900.000000	96.443618
899.000000	96.531132
898.000000	96.620305
897.000000	96.704517
896.000000	96.782371
895.000000	96.858897
894.000000	96.936547
893.000000	97.010913
892.000000	97.078046
891.000000	97.140409
890.000000	97.202702
889.000000	97.266738
888.000000	97.332844
887.000000	97.401009
886.000000	97.467911
885.000000	97.527807
884.000000	97.579174
883.000000	97.626428
882.000000	97.673256
881.000000	97.718859
880.000000	97.762733
879.000000	97.807939
878.000000	97.857168
877.000000	97.910368
876.000000	97.968092
875.000000	98.031446
874.000000	98.096498
873.000000	98.154978
872.000000	98.203944
871.000000	98.250118
870.000000	98.301842
869.000000	98.360279
868.000000	98.419875
867.000000	98.473236
866.000000	98.515530
865.000000	98.550184
864.000000	98.591029
863.000000	98.651142
862.000000	98.726134
861.000000	98.795279
860.000000	98.843331
859.000000	98.875380
858.000000	98.906672
857.000000	98.943839
856.000000	98.982736
855.000000	99.019576
854.000000	99.054570
853.000000	99.085788
852.000000	99.108537
851.000000	99.123867
850.000000	99.141955
849.000000	99.172177
848.000000	99.211248
847.000000	99.244664
846.000000	99.260753
845.000000	99.261992
844.000000	99.261490
843.000000	99.268776
842.000000	99.280623
841.000000	99.286035
840.000000	99.277139
839.000000	99.253253
838.000000	99.218249
837.000000	99.178846
836.000000	99.143813
835.000000	99.119159
834.000000	99.103293
833.000000	99.090799
832.000000	99.080489
831.000000	99.074762
830.000000	99.071719
829.000000	99.065501
828.000000	99.057078
827.000000	99.057907
826.000000	99.077669
825.000000	99.111579
824.000000	99.143131
823.000000	99.156831
822.000000	99.148319
821.000000	99.127047
820.000000	99.109377
819.000000	99.103560
818.000000	99.100376
817.000000	99.083432
816.000000	99.048591
815.000000	99.006963
814.000000	98.967868
813.000000	98.926024
812.000000	98.868672
811.000000	98.788128
810.000000	98.682654
809.000000	98.551538
808.000000	98.396341
807.000000	98.223633
806.000000	98.040714
805.000000	97.850957
804.000000	97.657691
803.000000	97.469497
802.000000	97.297094
801.000000	97.147878
800.000000	97.026697
799.000000	96.937428
798.000000	96.880116
797.000000	96.850860
796.000000	96.847413
795.000000	96.869885
794.000000	96.912915
793.000000	96.962226
792.000000	97.002790
791.000000	97.027794
790.000000	97.038562
789.000000	97.039638
788.000000	97.034539
787.000000	97.021782
786.000000	96.994565
785.000000	96.948886
784.000000	96.891480
783.000000	96.834194
782.000000	96.781846
781.000000	96.733596
780.000000	96.695291
779.000000	96.679450
778.000000	96.690439
777.000000	96.719421
776.000000	96.757668
775.000000	96.806059
774.000000	96.867673
773.000000	96.939996
772.000000	97.018617
771.000000	97.099454
770.000000	97.172580
769.000000	97.223561
768.000000	97.248283
767.000000	97.259817
766.000000	97.274095
765.000000	97.294617
764.000000	97.316869
763.000000	97.339735
762.000000	97.363653
761.000000	97.383721
760.000000	97.395386
759.000000	97.404646
758.000000	97.423279
757.000000	97.454431
756.000000	97.490708
755.000000	97.526489
754.000000	97.564560
753.000000	97.607846
752.000000	97.649873
751.000000	97.678846
750.000000	97.692059
749.000000	97.703699
748.000000	97.733910
747.000000	97.787516
746.000000	97.846909
745.000000	97.891659
744.000000	97.923465
743.000000	97.962767
742.000000	98.020091
741.000000	98.082493
740.000000	98.134401
739.000000	98.181111
738.000000	98.240121
737.000000	98.314088
736.000000	98.385273
735.000000	98.438043
734.000000	98.476086
733.000000	98.512739
732.000000	98.552226
731.000000	98.588062
730.000000	98.616521
729.000000	98.642606
728.000000	98.670415
727.000000	98.693737
726.000000	98.702368
725.000000	98.697743
724.000000	98.697480
723.000000	98.720414
722.000000	98.767444
721.000000	98.819870
720.000000	98.857794
719.000000	98.878670
718.000000	98.896357
717.000000	98.923584
716.000000	98.958709
715.000000	98.990482
714.000000	99.013080
713.000000	99.032697
712.000000	99.057827
711.000000	99.086676
710.000000	99.109240
709.000000	99.120825
708.000000	99.126374
707.000000	99.128833
706.000000	99.120650
705.000000	99.094414
704.000000	99.057786
703.000000	99.027200
702.000000	99.004747
701.000000	98.969936
700.000000	98.899497
699.000000	98.791743
698.000000	98.668829
697.000000	98.558328
696.000000	98.477224
695.000000	98.432088
694.000000	98.426195
693.000000	98.459082
692.000000	98.518592
691.000000	98.581373
690.000000	98.631001
689.000000	98.674392
688.000000	98.729897
687.000000	98.797511
686.000000	98.853892
685.000000	98.883440
684.000000	98.900040
683.000000	98.927108
682.000000	98.967063
681.000000	99.003789
680.000000	99.029512
679.000000	99.053966
678.000000	99.085667
677.000000	99.117762
676.000000	99.136986
675.000000	99.139606
674.000000	99.134964
673.000000	99.138238
672.000000	99.159601
671.000000	99.195575
670.000000	99.231623
669.000000	99.256240
668.000000	99.276763
667.000000	99.311212
666.000000	99.356171
665.000000	99.393256
664.000000	99.417346
663.000000	99.437370
662.000000	99.460662
661.000000	99.483912
660.000000	99.500918
659.000000	99.512117
658.000000	99.522231
657.000000	99.535145
656.000000	99.553737
655.000000	99.579233
654.000000	99.607267
653.000000	99.630012
652.000000	99.645183
651.000000	99.658343
650.000000	99.674846
649.000000	99.694613
648.000000	99.717546
647.000000	99.747893
646.000000	99.787477
645.000000	99.828897
644.000000	99.862454
643.000000	99.887858
642.000000	99.914992
641.000000	99.953904
640.000000	100.006184
639.000000	100.062460
638.000000	100.106717
637.000000	100.127771
636.000000	100.128084
635.000000	100.121624
634.000000	100.122238
633.000000	100.135740
632.000000	100.164152
631.000000	100.209251
630.000000	100.266168
629.000000	100.319218
628.000000	100.351257
627.000000	100.357290
626.000000	100.348092
625.000000	100.343058
624.000000	100.358548
623.000000	100.400101
622.000000	100.460724
621.000000	100.526197
620.000000	100.583342
619.000000	100.622031
618.000000	100.635913
617.000000	100.628728
616.000000	100.616442
615.000000	100.615848
614.000000	100.628390
613.000000	100.641101
612.000000	100.643987
611.000000	100.638980
610.000000	100.632096
609.000000	100.624114
608.000000	100.612580
607.000000	100.597342
606.000000	100.580920
605.000000	100.569418
604.000000	100.575200
603.000000	100.609237
602.000000	100.663281
601.000000	100.706203
600.000000	100.707710
599.000000	100.664506
598.000000	100.603284
597.000000	100.557238
596.000000	100.541497
595.000000	100.549396
594.000000	100.561162
593.000000	100.558053
592.000000	100.535881
591.000000	100.509719
590.000000	100.504332
589.000000	100.535328
588.000000	100.595468
587.000000	100.651708
586.000000	100.664339
585.000000	100.624174
584.000000	100.565731
583.000000	100.532431
582.000000	100.527973
581.000000	100.520906
580.000000	100.499573
579.000000	100.494916
578.000000	100.534692
577.000000	100.600881
576.000000	100.655395
575.000000	100.687169
574.000000	100.709442
573.000000	100.723306
572.000000	100.711551
571.000000	100.669312
570.000000	100.620954
569.000000	100.597924
568.000000	100.607419
567.000000	100.627521
566.000000	100.629830
565.000000	100.610557
564.000000	100.596575
563.000000	100.609437
562.000000	100.625166
561.000000	100.598088
560.000000	100.525583
559.000000	100.458070
558.000000	100.430940
557.000000	100.416128
556.000000	100.373549
555.000000	100.317376
554.000000	100.295891
553.000000	100.319674
552.000000	100.348924
551.000000	100.348045
550.000000	100.325804
