PE IR       SUBTECH     SPECTRUM    ASCII       PEDS        4.00        
   -1
BH1 8-6 22 0_1.asc
24/05/14
12:52:23.00
24/05/14
12:52:49.00
Administrator
?品 039 用? Administrator 日期 Tuesday, May 14 2024
550.000000
#HDR
-1
-1
#GR
cm-1
%T
1.0
0.0
4000.000000
-1.000000
3451
8
100.066315
72.959966
#DATA
4000.000000	99.485298
3999.000000	99.481035
3998.000000	99.477726
3997.000000	99.475991
3996.000000	99.475281
3995.000000	99.474431
3994.000000	99.473031
3993.000000	99.471763
3992.000000	99.471462
3991.000000	99.472258
3990.000000	99.473538
3989.000000	99.474488
3988.000000	99.474681
3987.000000	99.474109
3986.000000	99.472942
3985.000000	99.471411
3984.000000	99.469809
3983.000000	99.468436
3982.000000	99.467492
3981.000000	99.467058
3980.000000	99.467153
3979.000000	99.467705
3978.000000	99.468426
3977.000000	99.468797
3976.000000	99.468314
3975.000000	99.466825
3974.000000	99.464637
3973.000000	99.462360
3972.000000	99.460591
3971.000000	99.459628
3970.000000	99.459381
3969.000000	99.459463
3968.000000	99.459453
3967.000000	99.459200
3966.000000	99.458907
3965.000000	99.458917
3964.000000	99.459393
3963.000000	99.460103
3962.000000	99.460507
3961.000000	99.460173
3960.000000	99.459106
3959.000000	99.457728
3958.000000	99.456582
3957.000000	99.455949
3956.000000	99.455780
3955.000000	99.455861
3954.000000	99.455984
3953.000000	99.456057
3952.000000	99.456057
3951.000000	99.455941
3950.000000	99.455645
3949.000000	99.455176
3948.000000	99.454690
3947.000000	99.454394
3946.000000	99.454348
3945.000000	99.454386
3944.000000	99.454239
3943.000000	99.453804
3942.000000	99.453263
3941.000000	99.452906
3940.000000	99.452825
3939.000000	99.452802
3938.000000	99.452480
3937.000000	99.451630
3936.000000	99.450324
3935.000000	99.448954
3934.000000	99.448011
3933.000000	99.447778
3932.000000	99.448156
3931.000000	99.448740
3930.000000	99.449089
3929.000000	99.448946
3928.000000	99.448323
3927.000000	99.447470
3926.000000	99.446637
3925.000000	99.445743
3924.000000	99.444384
3923.000000	99.442342
3922.000000	99.440075
3921.000000	99.438563
3920.000000	99.438576
3919.000000	99.440164
3918.000000	99.442599
3917.000000	99.444748
3916.000000	99.445751
3915.000000	99.445374
3914.000000	99.444006
3913.000000	99.442326
3912.000000	99.440801
3911.000000	99.439417
3910.000000	99.437938
3909.000000	99.436267
3908.000000	99.434595
3907.000000	99.433262
3906.000000	99.432425
3905.000000	99.431863
3904.000000	99.431137
3903.000000	99.430151
3902.000000	99.429394
3901.000000	99.429436
3900.000000	99.430274
3899.000000	99.431291
3898.000000	99.431821
3897.000000	99.431612
3896.000000	99.430800
3895.000000	99.429609
3894.000000	99.428360
3893.000000	99.427570
3892.000000	99.427778
3891.000000	99.428942
3890.000000	99.430188
3889.000000	99.430635
3888.000000	99.430314
3887.000000	99.430022
3886.000000	99.430146
3885.000000	99.429948
3884.000000	99.428669
3883.000000	99.426695
3882.000000	99.425151
3881.000000	99.424651
3880.000000	99.424837
3879.000000	99.425015
3878.000000	99.424855
3877.000000	99.424557
3876.000000	99.424521
3875.000000	99.424832
3874.000000	99.425062
3873.000000	99.424695
3872.000000	99.423680
3871.000000	99.422466
3870.000000	99.421396
3869.000000	99.420158
3868.000000	99.418398
3867.000000	99.416576
3866.000000	99.415678
3865.000000	99.416097
3864.000000	99.417179
3863.000000	99.418082
3862.000000	99.418701
3861.000000	99.419248
3860.000000	99.419768
3859.000000	99.420155
3858.000000	99.420214
3857.000000	99.419528
3856.000000	99.417934
3855.000000	99.416853
3854.000000	99.418164
3853.000000	99.421046
3852.000000	99.422891
3851.000000	99.422968
3850.000000	99.422438
3849.000000	99.422255
3848.000000	99.422174
3847.000000	99.421589
3846.000000	99.420563
3845.000000	99.419712
3844.000000	99.419338
3843.000000	99.419062
3842.000000	99.418393
3841.000000	99.417370
3840.000000	99.416524
3839.000000	99.416162
3838.000000	99.415989
3837.000000	99.415481
3836.000000	99.414531
3835.000000	99.413565
3834.000000	99.413069
3833.000000	99.413286
3832.000000	99.414315
3831.000000	99.416107
3830.000000	99.418417
3829.000000	99.420893
3828.000000	99.423131
3827.000000	99.424581
3826.000000	99.424540
3825.000000	99.422455
3824.000000	99.418568
3823.000000	99.414584
3822.000000	99.412820
3821.000000	99.413796
3820.000000	99.416002
3819.000000	99.418070
3818.000000	99.420201
3817.000000	99.423486
3816.000000	99.427934
3815.000000	99.431637
3814.000000	99.432967
3813.000000	99.432336
3812.000000	99.431108
3811.000000	99.430044
3810.000000	99.429261
3809.000000	99.429048
3808.000000	99.429970
3807.000000	99.431738
3806.000000	99.432993
3805.000000	99.432920
3804.000000	99.432140
3803.000000	99.431819
3802.000000	99.432266
3801.000000	99.432320
3800.000000	99.430855
3799.000000	99.428509
3798.000000	99.427077
3797.000000	99.427612
3796.000000	99.429538
3795.000000	99.431353
3794.000000	99.432110
3793.000000	99.432065
3792.000000	99.432051
3791.000000	99.432647
3790.000000	99.433884
3789.000000	99.435347
3788.000000	99.436447
3787.000000	99.436811
3786.000000	99.436548
3785.000000	99.436057
3784.000000	99.435489
3783.000000	99.434489
3782.000000	99.432780
3781.000000	99.430657
3780.000000	99.428726
3779.000000	99.427360
3778.000000	99.426594
3777.000000	99.426221
3776.000000	99.425935
3775.000000	99.425337
3774.000000	99.424093
3773.000000	99.422324
3772.000000	99.420740
3771.000000	99.419987
3770.000000	99.419694
3769.000000	99.418579
3768.000000	99.415826
3767.000000	99.412271
3766.000000	99.409914
3765.000000	99.409916
3764.000000	99.411341
3763.000000	99.412352
3762.000000	99.412425
3761.000000	99.412531
3760.000000	99.413313
3759.000000	99.413874
3758.000000	99.413163
3757.000000	99.411249
3756.000000	99.408869
3755.000000	99.406639
3754.000000	99.404986
3753.000000	99.404305
3752.000000	99.404246
3751.000000	99.403718
3750.000000	99.402572
3749.000000	99.401094
3748.000000	99.398636
3747.000000	99.394409
3746.000000	99.389555
3745.000000	99.387620
3744.000000	99.388358
3743.000000	99.386784
3742.000000	99.382248
3741.000000	99.379390
3740.000000	99.380752
3739.000000	99.383579
3738.000000	99.383278
3737.000000	99.377459
3736.000000	99.366245
3735.000000	99.352424
3734.000000	99.341936
3733.000000	99.340237
3732.000000	99.346999
3731.000000	99.356133
3730.000000	99.361692
3729.000000	99.362333
3728.000000	99.360113
3727.000000	99.356598
3726.000000	99.350603
3725.000000	99.340628
3724.000000	99.328571
3723.000000	99.319207
3722.000000	99.315847
3721.000000	99.317111
3720.000000	99.318245
3719.000000	99.314767
3718.000000	99.305171
3717.000000	99.290882
3716.000000	99.274674
3715.000000	99.259619
3714.000000	99.248059
3713.000000	99.239531
3712.000000	99.229460
3711.000000	99.213558
3710.000000	99.194060
3709.000000	99.176924
3708.000000	99.164567
3707.000000	99.154345
3706.000000	99.142101
3705.000000	99.126042
3704.000000	99.107837
3703.000000	99.090614
3702.000000	99.076052
3701.000000	99.063449
3700.000000	99.051243
3699.000000	99.039025
3698.000000	99.028321
3697.000000	99.021227
3696.000000	99.017922
3695.000000	99.016657
3694.000000	99.016301
3693.000000	99.017649
3692.000000	99.021645
3691.000000	99.026423
3690.000000	99.027918
3689.000000	99.024454
3688.000000	99.018388
3687.000000	99.013228
3686.000000	99.011884
3685.000000	99.015225
3684.000000	99.019852
3683.000000	99.019672
3682.000000	99.011003
3681.000000	98.995706
3680.000000	98.978002
3679.000000	98.959226
3678.000000	98.937794
3677.000000	98.914872
3676.000000	98.895118
3675.000000	98.880922
3674.000000	98.870825
3673.000000	98.862745
3672.000000	98.856450
3671.000000	98.851790
3670.000000	98.845058
3669.000000	98.831978
3668.000000	98.813830
3667.000000	98.795122
3666.000000	98.778036
3665.000000	98.761825
3664.000000	98.745162
3663.000000	98.727943
3662.000000	98.711087
3661.000000	98.694888
3660.000000	98.677703
3659.000000	98.657086
3658.000000	98.632305
3657.000000	98.605953
3656.000000	98.581437
3655.000000	98.559290
3654.000000	98.537935
3653.000000	98.517095
3652.000000	98.498654
3651.000000	98.483463
3650.000000	98.467859
3649.000000	98.449057
3648.000000	98.431646
3647.000000	98.420780
3646.000000	98.414710
3645.000000	98.407515
3644.000000	98.395012
3643.000000	98.377014
3642.000000	98.356093
3641.000000	98.335440
3640.000000	98.317428
3639.000000	98.302318
3638.000000	98.287100
3637.000000	98.267284
3636.000000	98.241548
3635.000000	98.214325
3634.000000	98.191859
3633.000000	98.176129
3632.000000	98.164093
3631.000000	98.152294
3630.000000	98.139330
3629.000000	98.122336
3628.000000	98.099312
3627.000000	98.073905
3626.000000	98.052580
3625.000000	98.039815
3624.000000	98.036193
3623.000000	98.039658
3622.000000	98.048285
3621.000000	98.060763
3620.000000	98.074093
3619.000000	98.083975
3618.000000	98.089925
3617.000000	98.096518
3616.000000	98.109191
3615.000000	98.130697
3614.000000	98.159714
3613.000000	98.191790
3612.000000	98.222573
3611.000000	98.250009
3610.000000	98.273532
3609.000000	98.292237
3608.000000	98.305286
3607.000000	98.314054
3606.000000	98.321530
3605.000000	98.329142
3604.000000	98.336030
3603.000000	98.341196
3602.000000	98.345059
3601.000000	98.349048
3600.000000	98.354377
3599.000000	98.361890
3598.000000	98.372035
3597.000000	98.384167
3596.000000	98.396188
3595.000000	98.406524
3594.000000	98.416019
3593.000000	98.426548
3592.000000	98.437999
3591.000000	98.448343
3590.000000	98.456340
3589.000000	98.461872
3588.000000	98.462943
3587.000000	98.456637
3586.000000	98.444382
3585.000000	98.432555
3584.000000	98.427458
3583.000000	98.430654
3582.000000	98.438040
3581.000000	98.443665
3580.000000	98.444704
3579.000000	98.442830
3578.000000	98.441175
3577.000000	98.441127
3576.000000	98.442278
3575.000000	98.444162
3574.000000	98.446724
3573.000000	98.448965
3572.000000	98.448375
3571.000000	98.442714
3570.000000	98.432795
3569.000000	98.423341
3568.000000	98.419720
3567.000000	98.423244
3566.000000	98.430395
3565.000000	98.436011
3564.000000	98.436921
3563.000000	98.433368
3562.000000	98.428005
3561.000000	98.423855
3560.000000	98.422521
3559.000000	98.423466
3558.000000	98.424782
3557.000000	98.424815
3556.000000	98.423362
3555.000000	98.421452
3554.000000	98.420109
3553.000000	98.419267
3552.000000	98.417993
3551.000000	98.415682
3550.000000	98.412774
3549.000000	98.410332
3548.000000	98.409043
3547.000000	98.408694
3546.000000	98.408626
3545.000000	98.408455
3544.000000	98.408191
3543.000000	98.407901
3542.000000	98.407498
3541.000000	98.406786
3540.000000	98.405624
3539.000000	98.404032
3538.000000	98.402241
3537.000000	98.400706
3536.000000	98.399908
3535.000000	98.400004
3534.000000	98.400574
3533.000000	98.400804
3532.000000	98.400069
3531.000000	98.398409
3530.000000	98.396595
3529.000000	98.395617
3528.000000	98.395897
3527.000000	98.396967
3526.000000	98.397904
3525.000000	98.398164
3524.000000	98.397882
3523.000000	98.397508
3522.000000	98.397366
3521.000000	98.397612
3520.000000	98.398372
3519.000000	98.399690
3518.000000	98.401307
3517.000000	98.402644
3516.000000	98.403154
3515.000000	98.402687
3514.000000	98.401631
3513.000000	98.400813
3512.000000	98.401045
3511.000000	98.402355
3510.000000	98.403598
3509.000000	98.403290
3508.000000	98.401029
3507.000000	98.397951
3506.000000	98.395744
3505.000000	98.395172
3504.000000	98.395715
3503.000000	98.396343
3502.000000	98.396402
3501.000000	98.395740
3500.000000	98.394500
3499.000000	98.393165
3498.000000	98.392491
3497.000000	98.392986
3496.000000	98.394534
3495.000000	98.396624
3494.000000	98.398703
3493.000000	98.400171
3492.000000	98.400505
3491.000000	98.399808
3490.000000	98.398985
3489.000000	98.398832
3488.000000	98.399017
3487.000000	98.398491
3486.000000	98.396929
3485.000000	98.395204
3484.000000	98.394219
3483.000000	98.393775
3482.000000	98.393022
3481.000000	98.391673
3480.000000	98.390174
3479.000000	98.388806
3478.000000	98.387265
3477.000000	98.385305
3476.000000	98.383325
3475.000000	98.381914
3474.000000	98.380948
3473.000000	98.379580
3472.000000	98.377340
3471.000000	98.374996
3470.000000	98.373955
3469.000000	98.374693
3468.000000	98.375986
3467.000000	98.375844
3466.000000	98.373177
3465.000000	98.368484
3464.000000	98.363092
3463.000000	98.357922
3462.000000	98.353037
3461.000000	98.348066
3460.000000	98.342993
3459.000000	98.338603
3458.000000	98.336052
3457.000000	98.335804
3456.000000	98.336992
3455.000000	98.337924
3454.000000	98.337429
3453.000000	98.335558
3452.000000	98.332882
3451.000000	98.329538
3450.000000	98.325380
3449.000000	98.320857
3448.000000	98.317141
3447.000000	98.315068
3446.000000	98.314320
3445.000000	98.313893
3444.000000	98.313143
3443.000000	98.312036
3442.000000	98.310638
3441.000000	98.308962
3440.000000	98.307370
3439.000000	98.306559
3438.000000	98.306727
3437.000000	98.306941
3436.000000	98.305770
3435.000000	98.302605
3434.000000	98.298199
3433.000000	98.294043
3432.000000	98.291233
3431.000000	98.289940
3430.000000	98.289694
3429.000000	98.289897
3428.000000	98.290153
3427.000000	98.290422
3426.000000	98.290901
3425.000000	98.291713
3424.000000	98.292639
3423.000000	98.293114
3422.000000	98.292590
3421.000000	98.290953
3420.000000	98.288657
3419.000000	98.286458
3418.000000	98.284878
3417.000000	98.283818
3416.000000	98.282625
3415.000000	98.280655
3414.000000	98.277991
3413.000000	98.275675
3412.000000	98.274938
3411.000000	98.276006
3410.000000	98.277670
3409.000000	98.278268
3408.000000	98.277262
3407.000000	98.275676
3406.000000	98.274943
3405.000000	98.275550
3404.000000	98.276985
3403.000000	98.278725
3402.000000	98.280829
3401.000000	98.283391
3400.000000	98.285818
3399.000000	98.287058
3398.000000	98.286528
3397.000000	98.284672
3396.000000	98.282709
3395.000000	98.281696
3394.000000	98.281798
3393.000000	98.282396
3392.000000	98.282905
3391.000000	98.283552
3390.000000	98.285115
3389.000000	98.287835
3388.000000	98.290849
3387.000000	98.292849
3386.000000	98.293357
3385.000000	98.293184
3384.000000	98.293663
3383.000000	98.295364
3382.000000	98.297669
3381.000000	98.299532
3380.000000	98.300553
3379.000000	98.301223
3378.000000	98.302263
3377.000000	98.303879
3376.000000	98.305736
3375.000000	98.307521
3374.000000	98.309323
3373.000000	98.311421
3372.000000	98.313864
3371.000000	98.316397
3370.000000	98.318755
3369.000000	98.320901
3368.000000	98.322981
3367.000000	98.325118
3366.000000	98.327304
3365.000000	98.329471
3364.000000	98.331646
3363.000000	98.333979
3362.000000	98.336587
3361.000000	98.339396
3360.000000	98.342157
3359.000000	98.344631
3358.000000	98.346791
3357.000000	98.348788
3356.000000	98.350837
3355.000000	98.353070
3354.000000	98.355477
3353.000000	98.357967
3352.000000	98.360436
3351.000000	98.362845
3350.000000	98.365225
3349.000000	98.367633
3348.000000	98.370111
3347.000000	98.372657
3346.000000	98.375235
3345.000000	98.377787
3344.000000	98.380280
3343.000000	98.382721
3342.000000	98.385160
3341.000000	98.387654
3340.000000	98.390227
3339.000000	98.392861
3338.000000	98.395489
3337.000000	98.398030
3336.000000	98.400440
3335.000000	98.402739
3334.000000	98.405003
3333.000000	98.407302
3332.000000	98.409652
3331.000000	98.412021
3330.000000	98.414369
3329.000000	98.416688
3328.000000	98.419008
3327.000000	98.421352
3326.000000	98.423710
3325.000000	98.426047
3324.000000	98.428346
3323.000000	98.430632
3322.000000	98.432953
3321.000000	98.435332
3320.000000	98.437744
3319.000000	98.440135
3318.000000	98.442477
3317.000000	98.444778
3316.000000	98.447074
3315.000000	98.449406
3314.000000	98.451799
3313.000000	98.454256
3312.000000	98.456751
3311.000000	98.459238
3310.000000	98.461690
3309.000000	98.464110
3308.000000	98.466498
3307.000000	98.468808
3306.000000	98.470992
3305.000000	98.473066
3304.000000	98.475116
3303.000000	98.477207
3302.000000	98.479352
3301.000000	98.481561
3300.000000	98.483873
3299.000000	98.486290
3298.000000	98.488736
3297.000000	98.491095
3296.000000	98.493329
3295.000000	98.495486
3294.000000	98.497646
3293.000000	98.499867
3292.000000	98.502176
3291.000000	98.504548
3290.000000	98.506888
3289.000000	98.509097
3288.000000	98.511176
3287.000000	98.513259
3286.000000	98.515474
3285.000000	98.517818
3284.000000	98.520165
3283.000000	98.522377
3282.000000	98.524391
3281.000000	98.526254
3280.000000	98.528136
3279.000000	98.530267
3278.000000	98.532748
3277.000000	98.535380
3276.000000	98.537779
3275.000000	98.539754
3274.000000	98.541482
3273.000000	98.543240
3272.000000	98.545047
3271.000000	98.546724
3270.000000	98.548237
3269.000000	98.549843
3268.000000	98.551843
3267.000000	98.554307
3266.000000	98.557069
3265.000000	98.559929
3264.000000	98.562750
3263.000000	98.565388
3262.000000	98.567685
3261.000000	98.569586
3260.000000	98.571240
3259.000000	98.572952
3258.000000	98.574945
3257.000000	98.577200
3256.000000	98.579513
3255.000000	98.581693
3254.000000	98.583721
3253.000000	98.585704
3252.000000	98.587755
3251.000000	98.589946
3250.000000	98.592343
3249.000000	98.594971
3248.000000	98.597745
3247.000000	98.600488
3246.000000	98.603060
3245.000000	98.605449
3244.000000	98.607724
3243.000000	98.609948
3242.000000	98.612181
3241.000000	98.614529
3240.000000	98.617115
3239.000000	98.619948
3238.000000	98.622878
3237.000000	98.625649
3236.000000	98.628126
3235.000000	98.630376
3234.000000	98.632592
3233.000000	98.634920
3232.000000	98.637368
3231.000000	98.639865
3230.000000	98.642355
3229.000000	98.644850
3228.000000	98.647408
3227.000000	98.650050
3226.000000	98.652726
3225.000000	98.655344
3224.000000	98.657852
3223.000000	98.660269
3222.000000	98.662683
3221.000000	98.665170
3220.000000	98.667732
3219.000000	98.670289
3218.000000	98.672766
3217.000000	98.675150
3216.000000	98.677480
3215.000000	98.679782
3214.000000	98.682050
3213.000000	98.684289
3212.000000	98.686555
3211.000000	98.688920
3210.000000	98.691394
3209.000000	98.693901
3208.000000	98.696334
3207.000000	98.698636
3206.000000	98.700797
3205.000000	98.702813
3204.000000	98.704722
3203.000000	98.706720
3202.000000	98.709113
3201.000000	98.712070
3200.000000	98.715405
3199.000000	98.718662
3198.000000	98.721491
3197.000000	98.723849
3196.000000	98.725957
3195.000000	98.728114
3194.000000	98.730560
3193.000000	98.733395
3192.000000	98.736433
3191.000000	98.739224
3190.000000	98.741392
3189.000000	98.743039
3188.000000	98.744643
3187.000000	98.746499
3186.000000	98.748357
3185.000000	98.749765
3184.000000	98.750759
3183.000000	98.751962
3182.000000	98.753885
3181.000000	98.756365
3180.000000	98.758878
3179.000000	98.761336
3178.000000	98.764124
3177.000000	98.767391
3176.000000	98.770765
3175.000000	98.773769
3174.000000	98.776248
3173.000000	98.778347
3172.000000	98.780364
3171.000000	98.782740
3170.000000	98.785902
3169.000000	98.789845
3168.000000	98.793987
3167.000000	98.797679
3166.000000	98.800822
3165.000000	98.803811
3164.000000	98.806981
3163.000000	98.810265
3162.000000	98.813350
3161.000000	98.815992
3160.000000	98.818174
3159.000000	98.820101
3158.000000	98.822100
3157.000000	98.824415
3156.000000	98.827067
3155.000000	98.829844
3154.000000	98.832373
3153.000000	98.834253
3152.000000	98.835309
3151.000000	98.835865
3150.000000	98.836718
3149.000000	98.838649
3148.000000	98.841965
3147.000000	98.846351
3146.000000	98.850978
3145.000000	98.854887
3144.000000	98.857506
3143.000000	98.858944
3142.000000	98.859819
3141.000000	98.860764
3140.000000	98.862162
3139.000000	98.864255
3138.000000	98.867124
3137.000000	98.870449
3136.000000	98.873602
3135.000000	98.876246
3134.000000	98.878659
3133.000000	98.881319
3132.000000	98.884378
3131.000000	98.887758
3130.000000	98.891438
3129.000000	98.895274
3128.000000	98.898763
3127.000000	98.901415
3126.000000	98.903312
3125.000000	98.904882
3124.000000	98.906206
3123.000000	98.907038
3122.000000	98.907495
3121.000000	98.908143
3120.000000	98.909250
3119.000000	98.910426
3118.000000	98.911287
3117.000000	98.912097
3116.000000	98.913383
3115.000000	98.915203
3114.000000	98.917254
3113.000000	98.919609
3112.000000	98.922841
3111.000000	98.927273
3110.000000	98.932354
3109.000000	98.936947
3108.000000	98.940226
3107.000000	98.942140
3106.000000	98.943129
3105.000000	98.943608
3104.000000	98.943815
3103.000000	98.944100
3102.000000	98.945126
3101.000000	98.947531
3100.000000	98.951374
3099.000000	98.956001
3098.000000	98.960439
3097.000000	98.963819
3096.000000	98.965497
3095.000000	98.965153
3094.000000	98.963103
3093.000000	98.960469
3092.000000	98.958678
3091.000000	98.958552
3090.000000	98.959948
3089.000000	98.962184
3088.000000	98.964729
3087.000000	98.967491
3086.000000	98.970485
3085.000000	98.973386
3084.000000	98.975620
3083.000000	98.977003
3082.000000	98.978187
3081.000000	98.980197
3080.000000	98.983313
3079.000000	98.986560
3078.000000	98.988552
3077.000000	98.988818
3076.000000	98.988121
3075.000000	98.987584
3074.000000	98.987692
3073.000000	98.988324
3072.000000	98.989304
3071.000000	98.990545
3070.000000	98.991893
3069.000000	98.993328
3068.000000	98.995245
3067.000000	98.997999
3066.000000	99.001156
3065.000000	99.003820
3064.000000	99.005911
3063.000000	99.008387
3062.000000	99.011734
3061.000000	99.014824
3060.000000	99.016077
3059.000000	99.015387
3058.000000	99.014160
3057.000000	99.013489
3056.000000	99.013163
3055.000000	99.012730
3054.000000	99.012586
3053.000000	99.013384
3052.000000	99.014967
3051.000000	99.016628
3050.000000	99.018226
3049.000000	99.020387
3048.000000	99.023584
3047.000000	99.027483
3046.000000	99.031225
3045.000000	99.033955
3044.000000	99.035025
3043.000000	99.034087
3042.000000	99.031358
3041.000000	99.027688
3040.000000	99.024143
3039.000000	99.021432
3038.000000	99.019712
3037.000000	99.018893
3036.000000	99.019121
3035.000000	99.020916
3034.000000	99.024653
3033.000000	99.029943
3032.000000	99.035617
3031.000000	99.040360
3030.000000	99.043435
3029.000000	99.044977
3028.000000	99.045850
3027.000000	99.047203
3026.000000	99.049766
3025.000000	99.053348
3024.000000	99.057136
3023.000000	99.060515
3022.000000	99.063418
3021.000000	99.065850
3020.000000	99.067580
3019.000000	99.068595
3018.000000	99.069577
3017.000000	99.071493
3016.000000	99.074673
3015.000000	99.078530
3014.000000	99.082055
3013.000000	99.084467
3012.000000	99.085601
3011.000000	99.086126
3010.000000	99.087337
3009.000000	99.090188
3008.000000	99.094312
3007.000000	99.098146
3006.000000	99.100370
3005.000000	99.101272
3004.000000	99.102581
3003.000000	99.105832
3002.000000	99.110898
3001.000000	99.116001
3000.000000	99.119258
2999.000000	99.120327
2998.000000	99.120525
2997.000000	99.121482
2996.000000	99.123772
2995.000000	99.126925
2994.000000	99.130371
2993.000000	99.134084
2992.000000	99.138412
2991.000000	99.143621
2990.000000	99.149548
2989.000000	99.155351
2988.000000	99.159755
2987.000000	99.162180
2986.000000	99.163790
2985.000000	99.166756
2984.000000	99.171984
2983.000000	99.178018
2982.000000	99.182685
2981.000000	99.185549
2980.000000	99.188237
2979.000000	99.192620
2978.000000	99.199219
2977.000000	99.207173
2976.000000	99.215103
2975.000000	99.221979
2974.000000	99.227555
2973.000000	99.231990
2972.000000	99.234940
2971.000000	99.235550
2970.000000	99.234016
2969.000000	99.232710
2968.000000	99.234486
2967.000000	99.239593
2966.000000	99.245284
2965.000000	99.249003
2964.000000	99.251206
2963.000000	99.254378
2962.000000	99.259881
2961.000000	99.266448
2960.000000	99.271340
2959.000000	99.272381
2958.000000	99.269419
2957.000000	99.264671
2956.000000	99.261341
2955.000000	99.261005
2954.000000	99.262293
2953.000000	99.262620
2952.000000	99.261067
2951.000000	99.259065
2950.000000	99.258582
2949.000000	99.260501
2948.000000	99.264803
2947.000000	99.271264
2946.000000	99.279403
2945.000000	99.288304
2944.000000	99.297169
2943.000000	99.305886
2942.000000	99.314565
2941.000000	99.322739
2940.000000	99.329678
2939.000000	99.335845
2938.000000	99.343614
2937.000000	99.355776
2936.000000	99.372713
2935.000000	99.391127
2934.000000	99.406391
2933.000000	99.416760
2932.000000	99.425019
2931.000000	99.435419
2930.000000	99.449099
2929.000000	99.463243
2928.000000	99.474594
2927.000000	99.482594
2926.000000	99.488526
2925.000000	99.492762
2924.000000	99.494143
2923.000000	99.491749
2922.000000	99.486010
2921.000000	99.477801
2920.000000	99.467328
2919.000000	99.454590
2918.000000	99.440527
2917.000000	99.427008
2916.000000	99.415359
2915.000000	99.404972
2914.000000	99.393569
2913.000000	99.379281
2912.000000	99.363018
2911.000000	99.348651
2910.000000	99.340123
2909.000000	99.337899
2908.000000	99.338453
2907.000000	99.337412
2906.000000	99.332992
2905.000000	99.326332
2904.000000	99.319366
2903.000000	99.313368
2902.000000	99.309307
2901.000000	99.308048
2900.000000	99.309284
2899.000000	99.310856
2898.000000	99.310221
2897.000000	99.306938
2896.000000	99.303199
2895.000000	99.301647
2894.000000	99.302842
2893.000000	99.304834
2892.000000	99.304846
2891.000000	99.301265
2890.000000	99.294416
2889.000000	99.286167
2888.000000	99.279018
2887.000000	99.275102
2886.000000	99.275310
2885.000000	99.278734
2884.000000	99.282939
2883.000000	99.285374
2882.000000	99.285044
2881.000000	99.282878
2880.000000	99.280368
2879.000000	99.278124
2878.000000	99.276142
2877.000000	99.275126
2876.000000	99.276611
2875.000000	99.281315
2874.000000	99.287845
2873.000000	99.293593
2872.000000	99.296763
2871.000000	99.297364
2870.000000	99.296743
2869.000000	99.296762
2868.000000	99.298914
2867.000000	99.303174
2866.000000	99.307656
2865.000000	99.310345
2864.000000	99.311570
2863.000000	99.314140
2862.000000	99.320745
2861.000000	99.331639
2860.000000	99.344818
2859.000000	99.357577
2858.000000	99.367673
2857.000000	99.374100
2856.000000	99.377781
2855.000000	99.380854
2854.000000	99.384291
2853.000000	99.386382
2852.000000	99.384296
2851.000000	99.376959
2850.000000	99.365843
2849.000000	99.353423
2848.000000	99.341541
2847.000000	99.330820
2846.000000	99.320686
2845.000000	99.310000
2844.000000	99.298612
2843.000000	99.288359
2842.000000	99.281554
2841.000000	99.278323
2840.000000	99.276324
2839.000000	99.273361
2838.000000	99.269384
2837.000000	99.265558
2836.000000	99.262560
2835.000000	99.260692
2834.000000	99.260697
2833.000000	99.263108
2832.000000	99.267010
2831.000000	99.270508
2830.000000	99.272354
2829.000000	99.272301
2828.000000	99.270216
2827.000000	99.266112
2826.000000	99.261209
2825.000000	99.257621
2824.000000	99.256228
2823.000000	99.255701
2822.000000	99.254442
2821.000000	99.252769
2820.000000	99.252119
2819.000000	99.252542
2818.000000	99.252405
2817.000000	99.250990
2816.000000	99.250148
2815.000000	99.252391
2814.000000	99.257874
2813.000000	99.264030
2812.000000	99.268036
2811.000000	99.268922
2810.000000	99.267386
2809.000000	99.264653
2808.000000	99.262008
2807.000000	99.260658
2806.000000	99.261011
2805.000000	99.262039
2804.000000	99.262049
2803.000000	99.260434
2802.000000	99.258301
2801.000000	99.257089
2800.000000	99.256996
2799.000000	99.257224
2798.000000	99.257375
2797.000000	99.257996
2796.000000	99.259732
2795.000000	99.262444
2794.000000	99.265241
2793.000000	99.267087
2792.000000	99.267246
2791.000000	99.265543
2790.000000	99.262624
2789.000000	99.259959
2788.000000	99.259243
2787.000000	99.261501
2786.000000	99.266548
2785.000000	99.273091
2784.000000	99.279426
2783.000000	99.284364
2782.000000	99.287705
2781.000000	99.289951
2780.000000	99.291575
2779.000000	99.292534
2778.000000	99.292395
2777.000000	99.290850
2776.000000	99.288115
2775.000000	99.284926
2774.000000	99.282125
2773.000000	99.280173
2772.000000	99.279054
2771.000000	99.278638
2770.000000	99.279068
2769.000000	99.280568
2768.000000	99.282894
2767.000000	99.285241
2766.000000	99.286906
2765.000000	99.287967
2764.000000	99.289244
2763.000000	99.291638
2762.000000	99.295418
2761.000000	99.299826
2760.000000	99.303289
2759.000000	99.304457
2758.000000	99.303328
2757.000000	99.301441
2756.000000	99.300696
2755.000000	99.301720
2754.000000	99.303584
2753.000000	99.304949
2752.000000	99.305315
2751.000000	99.305181
2750.000000	99.305266
2749.000000	99.305752
2748.000000	99.306239
2747.000000	99.306294
2746.000000	99.305979
2745.000000	99.305804
2744.000000	99.306185
2743.000000	99.307019
2742.000000	99.307898
2741.000000	99.308657
2740.000000	99.309507
2739.000000	99.310573
2738.000000	99.311561
2737.000000	99.312062
2736.000000	99.312078
2735.000000	99.312106
2734.000000	99.312691
2733.000000	99.313951
2732.000000	99.315521
2731.000000	99.316851
2730.000000	99.317610
2729.000000	99.317792
2728.000000	99.317531
2727.000000	99.316930
2726.000000	99.316118
2725.000000	99.315363
2724.000000	99.315050
2723.000000	99.315435
2722.000000	99.316453
2721.000000	99.317766
2720.000000	99.318940
2719.000000	99.319626
2718.000000	99.319735
2717.000000	99.319577
2716.000000	99.319706
2715.000000	99.320373
2714.000000	99.321191
2713.000000	99.321560
2712.000000	99.321425
2711.000000	99.321312
2710.000000	99.321599
2709.000000	99.322120
2708.000000	99.322597
2707.000000	99.323149
2706.000000	99.324101
2705.000000	99.325447
2704.000000	99.326801
2703.000000	99.327845
2702.000000	99.328518
2701.000000	99.328742
2700.000000	99.328302
2699.000000	99.327174
2698.000000	99.325854
2697.000000	99.325090
2696.000000	99.325177
2695.000000	99.325680
2694.000000	99.325915
2693.000000	99.325554
2692.000000	99.324748
2691.000000	99.323862
2690.000000	99.323318
2689.000000	99.323608
2688.000000	99.325138
2687.000000	99.327824
2686.000000	99.330771
2685.000000	99.332665
2684.000000	99.332844
2683.000000	99.331958
2682.000000	99.331429
2681.000000	99.332034
2680.000000	99.333166
2679.000000	99.333567
2678.000000	99.332646
2677.000000	99.330968
2676.000000	99.329663
2675.000000	99.329553
2674.000000	99.330781
2673.000000	99.332855
2672.000000	99.334788
2671.000000	99.335401
2670.000000	99.333950
2669.000000	99.330811
2668.000000	99.327510
2667.000000	99.325776
2666.000000	99.326338
2665.000000	99.328707
2664.000000	99.331976
2663.000000	99.335619
2662.000000	99.339359
2661.000000	99.342652
2660.000000	99.344829
2659.000000	99.345759
2658.000000	99.345912
2657.000000	99.345570
2656.000000	99.344276
2655.000000	99.341308
2654.000000	99.336551
2653.000000	99.330908
2652.000000	99.326103
2651.000000	99.323950
2650.000000	99.325290
2649.000000	99.329296
2648.000000	99.333763
2647.000000	99.336701
2646.000000	99.337692
2645.000000	99.337535
2644.000000	99.337055
2643.000000	99.336563
2642.000000	99.336272
2641.000000	99.336537
2640.000000	99.337373
2639.000000	99.338102
2638.000000	99.337854
2637.000000	99.336345
2636.000000	99.333970
2635.000000	99.331389
2634.000000	99.329272
2633.000000	99.328307
2632.000000	99.329003
2631.000000	99.331225
2630.000000	99.334025
2629.000000	99.336106
2628.000000	99.336668
2627.000000	99.335825
2626.000000	99.334394
2625.000000	99.333345
2624.000000	99.333224
2623.000000	99.333973
2622.000000	99.335120
2621.000000	99.336134
2620.000000	99.336745
2619.000000	99.337002
2618.000000	99.337077
2617.000000	99.337030
2616.000000	99.336800
2615.000000	99.336386
2614.000000	99.335963
2613.000000	99.335785
2612.000000	99.335983
2611.000000	99.336455
2610.000000	99.336957
2609.000000	99.337296
2608.000000	99.337408
2607.000000	99.337341
2606.000000	99.337234
2605.000000	99.337282
2604.000000	99.337632
2603.000000	99.338252
2602.000000	99.338937
2601.000000	99.339425
2600.000000	99.339501
2599.000000	99.339108
2598.000000	99.338459
2597.000000	99.337976
2596.000000	99.337946
2595.000000	99.338263
2594.000000	99.338609
2593.000000	99.338887
2592.000000	99.339294
2591.000000	99.339906
2590.000000	99.340443
2589.000000	99.340601
2588.000000	99.340396
2587.000000	99.339858
2586.000000	99.338640
2585.000000	99.336530
2584.000000	99.334276
2583.000000	99.333121
2582.000000	99.333569
2581.000000	99.334909
2580.000000	99.335998
2579.000000	99.336521
2578.000000	99.337004
2577.000000	99.337930
2576.000000	99.339242
2575.000000	99.340535
2574.000000	99.341416
2573.000000	99.341711
2572.000000	99.341528
2571.000000	99.341175
2570.000000	99.340933
2569.000000	99.340878
2568.000000	99.340953
2567.000000	99.341116
2566.000000	99.341330
2565.000000	99.341487
2564.000000	99.341518
2563.000000	99.341562
2562.000000	99.341880
2561.000000	99.342551
2560.000000	99.343362
2559.000000	99.344025
2558.000000	99.344436
2557.000000	99.344670
2556.000000	99.344824
2555.000000	99.344942
2554.000000	99.345048
2553.000000	99.345183
2552.000000	99.345385
2551.000000	99.345683
2550.000000	99.346086
2549.000000	99.346537
2548.000000	99.346885
2547.000000	99.347005
2546.000000	99.346935
2545.000000	99.346842
2544.000000	99.346894
2543.000000	99.347122
2542.000000	99.347459
2541.000000	99.347816
2540.000000	99.348122
2539.000000	99.348345
2538.000000	99.348479
2537.000000	99.348534
2536.000000	99.348544
2535.000000	99.348533
2534.000000	99.348504
2533.000000	99.348474
2532.000000	99.348529
2531.000000	99.348766
2530.000000	99.349179
2529.000000	99.349640
2528.000000	99.350020
2527.000000	99.350306
2526.000000	99.350567
2525.000000	99.350826
2524.000000	99.351022
2523.000000	99.351110
2522.000000	99.351144
2521.000000	99.351228
2520.000000	99.351434
2519.000000	99.351779
2518.000000	99.352227
2517.000000	99.352686
2516.000000	99.353033
2515.000000	99.353225
2514.000000	99.353389
2513.000000	99.353734
2512.000000	99.354321
2511.000000	99.354963
2510.000000	99.355395
2509.000000	99.355580
2508.000000	99.355770
2507.000000	99.356224
2506.000000	99.356896
2505.000000	99.357458
2504.000000	99.357661
2503.000000	99.357621
2502.000000	99.357712
2501.000000	99.358174
2500.000000	99.358915
2499.000000	99.359690
2498.000000	99.360418
2497.000000	99.361187
2496.000000	99.362037
2495.000000	99.362896
2494.000000	99.363749
2493.000000	99.364734
2492.000000	99.365984
2491.000000	99.367421
2490.000000	99.368741
2489.000000	99.369658
2488.000000	99.370132
2487.000000	99.370382
2486.000000	99.370722
2485.000000	99.371312
2484.000000	99.372090
2483.000000	99.372903
2482.000000	99.373689
2481.000000	99.374529
2480.000000	99.375506
2479.000000	99.376526
2478.000000	99.377354
2477.000000	99.377864
2476.000000	99.378153
2475.000000	99.378440
2474.000000	99.378874
2473.000000	99.379473
2472.000000	99.380211
2471.000000	99.381080
2470.000000	99.382033
2469.000000	99.382934
2468.000000	99.383641
2467.000000	99.384133
2466.000000	99.384519
2465.000000	99.384933
2464.000000	99.385438
2463.000000	99.386034
2462.000000	99.386716
2461.000000	99.387472
2460.000000	99.388247
2459.000000	99.388939
2458.000000	99.389470
2457.000000	99.389850
2456.000000	99.390163
2455.000000	99.390497
2454.000000	99.390877
2453.000000	99.391285
2452.000000	99.391716
2451.000000	99.392200
2450.000000	99.392738
2449.000000	99.393256
2448.000000	99.393664
2447.000000	99.393960
2446.000000	99.394230
2445.000000	99.394540
2444.000000	99.394860
2443.000000	99.395148
2442.000000	99.395473
2441.000000	99.395985
2440.000000	99.396701
2439.000000	99.397357
2438.000000	99.397568
2437.000000	99.397202
2436.000000	99.396618
2435.000000	99.396414
2434.000000	99.396848
2433.000000	99.397625
2432.000000	99.398370
2431.000000	99.399114
2430.000000	99.400042
2429.000000	99.401034
2428.000000	99.401803
2427.000000	99.402380
2426.000000	99.403035
2425.000000	99.403711
2424.000000	99.404016
2423.000000	99.403940
2422.000000	99.404098
2421.000000	99.404994
2420.000000	99.406323
2419.000000	99.407339
2418.000000	99.407745
2417.000000	99.407828
2416.000000	99.407905
2415.000000	99.408011
2414.000000	99.407982
2413.000000	99.407551
2412.000000	99.406499
2411.000000	99.404994
2410.000000	99.403697
2409.000000	99.403277
2408.000000	99.403806
2407.000000	99.404830
2406.000000	99.405903
2405.000000	99.406872
2404.000000	99.407672
2403.000000	99.408102
2402.000000	99.407891
2401.000000	99.406960
2400.000000	99.405625
2399.000000	99.404446
2398.000000	99.403791
2397.000000	99.403647
2396.000000	99.403897
2395.000000	99.404544
2394.000000	99.405411
2393.000000	99.405794
2392.000000	99.404994
2391.000000	99.403237
2390.000000	99.401584
2389.000000	99.400768
2388.000000	99.400428
2387.000000	99.399772
2386.000000	99.398590
2385.000000	99.397304
2384.000000	99.396284
2383.000000	99.395508
2382.000000	99.394803
2381.000000	99.394043
2380.000000	99.393127
2379.000000	99.392120
2378.000000	99.391452
2377.000000	99.391637
2376.000000	99.392657
2375.000000	99.393813
2374.000000	99.394327
2373.000000	99.394035
2372.000000	99.393399
2371.000000	99.393021
2370.000000	99.393164
2369.000000	99.393642
2368.000000	99.394077
2367.000000	99.394277
2366.000000	99.394362
2365.000000	99.394516
2364.000000	99.394688
2363.000000	99.394636
2362.000000	99.394232
2361.000000	99.393589
2360.000000	99.392973
2359.000000	99.392633
2358.000000	99.392681
2357.000000	99.393061
2356.000000	99.393585
2355.000000	99.394018
2354.000000	99.394239
2353.000000	99.394277
2352.000000	99.394235
2351.000000	99.394238
2350.000000	99.394349
2349.000000	99.394537
2348.000000	99.394725
2347.000000	99.394882
2346.000000	99.395041
2345.000000	99.395236
2344.000000	99.395455
2343.000000	99.395669
2342.000000	99.395876
2341.000000	99.396089
2340.000000	99.396314
2339.000000	99.396545
2338.000000	99.396776
2337.000000	99.397003
2336.000000	99.397224
2335.000000	99.397433
2334.000000	99.397624
2333.000000	99.397796
2332.000000	99.397954
2331.000000	99.398103
2330.000000	99.398251
2329.000000	99.398400
2328.000000	99.398550
2327.000000	99.398704
2326.000000	99.398860
2325.000000	99.399022
2324.000000	99.399190
2323.000000	99.399359
2322.000000	99.399524
2321.000000	99.399687
2320.000000	99.399849
2319.000000	99.400011
2318.000000	99.400169
2317.000000	99.400318
2316.000000	99.400448
2315.000000	99.400555
2314.000000	99.400643
2313.000000	99.400721
2312.000000	99.400802
2311.000000	99.400890
2310.000000	99.400983
2309.000000	99.401072
2308.000000	99.401152
2307.000000	99.401220
2306.000000	99.401280
2305.000000	99.401336
2304.000000	99.401391
2303.000000	99.401447
2302.000000	99.401506
2301.000000	99.401568
2300.000000	99.401631
2299.000000	99.401683
2298.000000	99.401713
2297.000000	99.401718
2296.000000	99.401711
2295.000000	99.401714
2294.000000	99.401741
2293.000000	99.401781
2292.000000	99.401805
2291.000000	99.401801
2290.000000	99.401802
2289.000000	99.401859
2288.000000	99.401980
2287.000000	99.402124
2286.000000	99.402264
2285.000000	99.402433
2284.000000	99.402660
2283.000000	99.402872
2282.000000	99.402952
2281.000000	99.402888
2280.000000	99.402795
2279.000000	99.402752
2278.000000	99.402707
2277.000000	99.402595
2276.000000	99.402453
2275.000000	99.402374
2274.000000	99.402394
2273.000000	99.402475
2272.000000	99.402540
2271.000000	99.402496
2270.000000	99.402271
2269.000000	99.401929
2268.000000	99.401699
2267.000000	99.401771
2266.000000	99.402099
2265.000000	99.402423
2264.000000	99.402484
2263.000000	99.402191
2262.000000	99.401668
2261.000000	99.401233
2260.000000	99.401214
2259.000000	99.401684
2258.000000	99.402385
2257.000000	99.402974
2256.000000	99.403321
2255.000000	99.403501
2254.000000	99.403642
2253.000000	99.403874
2252.000000	99.404263
2251.000000	99.404649
2250.000000	99.404703
2249.000000	99.404334
2248.000000	99.403916
2247.000000	99.403886
2246.000000	99.404224
2245.000000	99.404564
2244.000000	99.404711
2243.000000	99.404785
2242.000000	99.404836
2241.000000	99.404659
2240.000000	99.404082
2239.000000	99.403292
2238.000000	99.402706
2237.000000	99.402571
2236.000000	99.402821
2235.000000	99.403167
2234.000000	99.403321
2233.000000	99.403206
2232.000000	99.403020
2231.000000	99.403062
2230.000000	99.403420
2229.000000	99.403895
2228.000000	99.404238
2227.000000	99.404427
2226.000000	99.404632
2225.000000	99.404961
2224.000000	99.405327
2223.000000	99.405556
2222.000000	99.405584
2221.000000	99.405505
2220.000000	99.405476
2219.000000	99.405596
2218.000000	99.405886
2217.000000	99.406293
2216.000000	99.406693
2215.000000	99.406957
2214.000000	99.407071
2213.000000	99.407140
2212.000000	99.407222
2211.000000	99.407223
2210.000000	99.407047
2209.000000	99.406817
2208.000000	99.406834
2207.000000	99.407263
2206.000000	99.407958
2205.000000	99.408599
2204.000000	99.409004
2203.000000	99.409202
2202.000000	99.409333
2201.000000	99.409584
2200.000000	99.410165
2199.000000	99.411107
2198.000000	99.412024
2197.000000	99.412327
2196.000000	99.411785
2195.000000	99.410823
2194.000000	99.410236
2193.000000	99.410472
2192.000000	99.411345
2191.000000	99.412227
2190.000000	99.412528
2189.000000	99.412038
2188.000000	99.410971
2187.000000	99.409855
2186.000000	99.409227
2185.000000	99.409293
2184.000000	99.409843
2183.000000	99.410499
2182.000000	99.411084
2181.000000	99.411707
2180.000000	99.412522
2179.000000	99.413507
2178.000000	99.414514
2177.000000	99.415458
2176.000000	99.416375
2175.000000	99.417344
2174.000000	99.418391
2173.000000	99.419432
2172.000000	99.420282
2171.000000	99.420815
2170.000000	99.421180
2169.000000	99.421734
2168.000000	99.422638
2167.000000	99.423562
2166.000000	99.423971
2165.000000	99.423684
2164.000000	99.423035
2163.000000	99.422487
2162.000000	99.422295
2161.000000	99.422522
2160.000000	99.423094
2159.000000	99.423729
2158.000000	99.424056
2157.000000	99.423962
2156.000000	99.423737
2155.000000	99.423738
2154.000000	99.424041
2153.000000	99.424520
2152.000000	99.425135
2151.000000	99.425927
2150.000000	99.426743
2149.000000	99.427239
2148.000000	99.427242
2147.000000	99.426969
2146.000000	99.426878
2145.000000	99.427255
2144.000000	99.428042
2143.000000	99.428992
2142.000000	99.429875
2141.000000	99.430585
2140.000000	99.431120
2139.000000	99.431543
2138.000000	99.431948
2137.000000	99.432404
2136.000000	99.432906
2135.000000	99.433393
2134.000000	99.433807
2133.000000	99.434150
2132.000000	99.434469
2131.000000	99.434809
2130.000000	99.435186
2129.000000	99.435594
2128.000000	99.436021
2127.000000	99.436455
2126.000000	99.436888
2125.000000	99.437327
2124.000000	99.437788
2123.000000	99.438284
2122.000000	99.438812
2121.000000	99.439362
2120.000000	99.439922
2119.000000	99.440484
2118.000000	99.441045
2117.000000	99.441606
2116.000000	99.442173
2115.000000	99.442752
2114.000000	99.443345
2113.000000	99.443949
2112.000000	99.444555
2111.000000	99.445157
2110.000000	99.445755
2109.000000	99.446353
2108.000000	99.446961
2107.000000	99.447585
2106.000000	99.448224
2105.000000	99.448863
2104.000000	99.449486
2103.000000	99.450086
2102.000000	99.450678
2101.000000	99.451291
2100.000000	99.451936
2099.000000	99.452567
2098.000000	99.453088
2097.000000	99.453446
2096.000000	99.453727
2095.000000	99.454105
2094.000000	99.454711
2093.000000	99.455573
2092.000000	99.456619
2091.000000	99.457664
2090.000000	99.458481
2089.000000	99.459069
2088.000000	99.459755
2087.000000	99.460806
2086.000000	99.462014
2085.000000	99.462916
2084.000000	99.463439
2083.000000	99.464042
2082.000000	99.465127
2081.000000	99.466515
2080.000000	99.467654
2079.000000	99.468205
2078.000000	99.468317
2077.000000	99.468486
2076.000000	99.469219
2075.000000	99.470627
2074.000000	99.472258
2073.000000	99.473473
2072.000000	99.474064
2071.000000	99.474335
2070.000000	99.474494
2069.000000	99.474293
2068.000000	99.473492
2067.000000	99.472427
2066.000000	99.471783
2065.000000	99.471910
2064.000000	99.472641
2063.000000	99.473757
2062.000000	99.475293
2061.000000	99.477276
2060.000000	99.479384
2059.000000	99.481118
2058.000000	99.482289
2057.000000	99.483149
2056.000000	99.483860
2055.000000	99.484015
2054.000000	99.483057
2053.000000	99.481236
2052.000000	99.479801
2051.000000	99.479778
2050.000000	99.480660
2049.000000	99.480862
2048.000000	99.479530
2047.000000	99.477394
2046.000000	99.475735
2045.000000	99.474921
2044.000000	99.474414
2043.000000	99.473832
2042.000000	99.473340
2041.000000	99.473095
2040.000000	99.472860
2039.000000	99.472344
2038.000000	99.471525
2037.000000	99.470492
2036.000000	99.469326
2035.000000	99.468319
2034.000000	99.467972
2033.000000	99.468499
2032.000000	99.469457
2031.000000	99.470054
2030.000000	99.469806
2029.000000	99.468716
2028.000000	99.467026
2027.000000	99.465063
2026.000000	99.463297
2025.000000	99.462239
2024.000000	99.462087
2023.000000	99.462539
2022.000000	99.463016
2021.000000	99.463123
2020.000000	99.462869
2019.000000	99.462460
2018.000000	99.462012
2017.000000	99.461450
2016.000000	99.460667
2015.000000	99.459684
2014.000000	99.458596
2013.000000	99.457408
2012.000000	99.456045
2011.000000	99.454566
2010.000000	99.453272
2009.000000	99.452454
2008.000000	99.452103
2007.000000	99.451991
2006.000000	99.452030
2005.000000	99.452296
2004.000000	99.452678
2003.000000	99.452761
2002.000000	99.452207
2001.000000	99.451196
2000.000000	99.450301
1999.000000	99.449970
1998.000000	99.450169
1997.000000	99.450314
1996.000000	99.449566
1995.000000	99.447449
1994.000000	99.444397
1993.000000	99.441616
1992.000000	99.440051
1991.000000	99.439576
1990.000000	99.439394
1989.000000	99.439064
1988.000000	99.438763
1987.000000	99.438676
1986.000000	99.438555
1985.000000	99.437981
1984.000000	99.436837
1983.000000	99.435485
1982.000000	99.434576
1981.000000	99.434633
1980.000000	99.435599
1979.000000	99.436803
1978.000000	99.437529
1977.000000	99.437553
1976.000000	99.437097
1975.000000	99.436473
1974.000000	99.436034
1973.000000	99.436230
1972.000000	99.437343
1971.000000	99.439113
1970.000000	99.440860
1969.000000	99.441998
1968.000000	99.442248
1967.000000	99.441477
1966.000000	99.439754
1965.000000	99.437724
1964.000000	99.436497
1963.000000	99.436770
1962.000000	99.438087
1961.000000	99.439172
1960.000000	99.439194
1959.000000	99.438478
1958.000000	99.437818
1957.000000	99.437305
1956.000000	99.436304
1955.000000	99.434568
1954.000000	99.432892
1953.000000	99.432241
1952.000000	99.432616
1951.000000	99.433217
1950.000000	99.433496
1949.000000	99.433591
1948.000000	99.433628
1947.000000	99.433206
1946.000000	99.431979
1945.000000	99.430239
1944.000000	99.428447
1943.000000	99.426480
1942.000000	99.423967
1941.000000	99.421235
1940.000000	99.419171
1939.000000	99.418227
1938.000000	99.418135
1937.000000	99.418441
1936.000000	99.418870
1935.000000	99.419123
1934.000000	99.418845
1933.000000	99.418040
1932.000000	99.417283
1931.000000	99.417086
1930.000000	99.417170
1929.000000	99.416864
1928.000000	99.415762
1927.000000	99.413987
1926.000000	99.411930
1925.000000	99.409998
1924.000000	99.408503
1923.000000	99.407256
1922.000000	99.405693
1921.000000	99.403677
1920.000000	99.401777
1919.000000	99.400501
1918.000000	99.399457
1917.000000	99.397697
1916.000000	99.394890
1915.000000	99.391432
1914.000000	99.387832
1913.000000	99.384532
1912.000000	99.382109
1911.000000	99.381053
1910.000000	99.381225
1909.000000	99.381936
1908.000000	99.382539
1907.000000	99.382957
1906.000000	99.383307
1905.000000	99.383303
1904.000000	99.382422
1903.000000	99.380180
1902.000000	99.376594
1901.000000	99.372511
1900.000000	99.369049
1899.000000	99.366790
1898.000000	99.365551
1897.000000	99.364765
1896.000000	99.363993
1895.000000	99.362909
1894.000000	99.361364
1893.000000	99.359667
1892.000000	99.358228
1891.000000	99.356723
1890.000000	99.354054
1889.000000	99.349622
1888.000000	99.344402
1887.000000	99.340031
1886.000000	99.337243
1885.000000	99.335645
1884.000000	99.334619
1883.000000	99.334036
1882.000000	99.334094
1881.000000	99.334790
1880.000000	99.335590
1879.000000	99.335822
1878.000000	99.335307
1877.000000	99.334337
1876.000000	99.333438
1875.000000	99.333141
1874.000000	99.333644
1873.000000	99.334651
1872.000000	99.335665
1871.000000	99.336580
1870.000000	99.337841
1869.000000	99.339414
1868.000000	99.339865
1867.000000	99.337930
1866.000000	99.334592
1865.000000	99.332232
1864.000000	99.332076
1863.000000	99.333273
1862.000000	99.334593
1861.000000	99.336290
1860.000000	99.339311
1859.000000	99.343258
1858.000000	99.346461
1857.000000	99.347987
1856.000000	99.348529
1855.000000	99.349290
1854.000000	99.350837
1853.000000	99.353296
1852.000000	99.356324
1851.000000	99.358901
1850.000000	99.360107
1849.000000	99.360085
1848.000000	99.360062
1847.000000	99.361054
1846.000000	99.363043
1845.000000	99.365259
1844.000000	99.366591
1843.000000	99.366197
1842.000000	99.364303
1841.000000	99.362119
1840.000000	99.360883
1839.000000	99.361068
1838.000000	99.362165
1837.000000	99.363357
1836.000000	99.364337
1835.000000	99.365099
1834.000000	99.365434
1833.000000	99.365093
1832.000000	99.364163
1831.000000	99.363227
1830.000000	99.363030
1829.000000	99.363833
1828.000000	99.365415
1827.000000	99.367348
1826.000000	99.368936
1825.000000	99.369340
1824.000000	99.368304
1823.000000	99.366546
1822.000000	99.365078
1821.000000	99.364454
1820.000000	99.364754
1819.000000	99.365776
1818.000000	99.366971
1817.000000	99.367555
1816.000000	99.367108
1815.000000	99.365804
1814.000000	99.364153
1813.000000	99.362655
1812.000000	99.361792
1811.000000	99.361847
1810.000000	99.362197
1809.000000	99.361705
1808.000000	99.360160
1807.000000	99.358699
1806.000000	99.358647
1805.000000	99.360256
1804.000000	99.362645
1803.000000	99.364448
1802.000000	99.364742
1801.000000	99.363495
1800.000000	99.361564
1799.000000	99.360187
1798.000000	99.359904
1797.000000	99.360421
1796.000000	99.361226
1795.000000	99.362046
1794.000000	99.362894
1793.000000	99.363646
1792.000000	99.363812
1791.000000	99.363182
1790.000000	99.362307
1789.000000	99.362199
1788.000000	99.363666
1787.000000	99.366900
1786.000000	99.371049
1785.000000	99.374238
1784.000000	99.374842
1783.000000	99.372826
1782.000000	99.370409
1781.000000	99.370388
1780.000000	99.373345
1779.000000	99.377725
1778.000000	99.382163
1777.000000	99.387097
1776.000000	99.393065
1775.000000	99.399210
1774.000000	99.404397
1773.000000	99.408487
1772.000000	99.411337
1771.000000	99.412617
1770.000000	99.413054
1769.000000	99.413794
1768.000000	99.415336
1767.000000	99.417109
1766.000000	99.418519
1765.000000	99.420069
1764.000000	99.422768
1763.000000	99.426967
1762.000000	99.431791
1761.000000	99.435567
1760.000000	99.437626
1759.000000	99.438707
1758.000000	99.439762
1757.000000	99.441824
1756.000000	99.444800
1755.000000	99.448121
1754.000000	99.452277
1753.000000	99.458419
1752.000000	99.466244
1751.000000	99.472914
1750.000000	99.475717
1749.000000	99.475745
1748.000000	99.476231
1747.000000	99.477900
1746.000000	99.479731
1745.000000	99.481385
1744.000000	99.483515
1743.000000	99.486233
1742.000000	99.488117
1741.000000	99.487742
1740.000000	99.485306
1739.000000	99.481623
1738.000000	99.477247
1737.000000	99.473128
1736.000000	99.470415
1735.000000	99.469877
1734.000000	99.469316
1733.000000	99.465501
1732.000000	99.459973
1731.000000	99.455610
1730.000000	99.452019
1729.000000	99.447969
1728.000000	99.443613
1727.000000	99.440379
1726.000000	99.439144
1725.000000	99.439485
1724.000000	99.440583
1723.000000	99.441585
1722.000000	99.440895
1721.000000	99.437625
1720.000000	99.432906
1719.000000	99.429540
1718.000000	99.428636
1717.000000	99.427432
1716.000000	99.424773
1715.000000	99.422987
1714.000000	99.422363
1713.000000	99.420617
1712.000000	99.416599
1711.000000	99.411216
1710.000000	99.405672
1709.000000	99.400388
1708.000000	99.395405
1707.000000	99.391229
1706.000000	99.388423
1705.000000	99.386391
1704.000000	99.384342
1703.000000	99.382201
1702.000000	99.380282
1701.000000	99.378652
1700.000000	99.375733
1699.000000	99.369694
1698.000000	99.360861
1697.000000	99.350924
1696.000000	99.342808
1695.000000	99.338298
1694.000000	99.335532
1693.000000	99.331836
1692.000000	99.326368
1691.000000	99.319980
1690.000000	99.313971
1689.000000	99.309031
1688.000000	99.304903
1687.000000	99.301141
1686.000000	99.297639
1685.000000	99.294689
1684.000000	99.292146
1683.000000	99.288496
1682.000000	99.283369
1681.000000	99.277594
1680.000000	99.271503
1679.000000	99.265657
1678.000000	99.260589
1677.000000	99.256322
1676.000000	99.251712
1675.000000	99.244993
1674.000000	99.235946
1673.000000	99.226337
1672.000000	99.217717
1671.000000	99.210899
1670.000000	99.206087
1669.000000	99.203006
1668.000000	99.200924
1667.000000	99.198938
1666.000000	99.196006
1665.000000	99.191290
1664.000000	99.185325
1663.000000	99.179064
1662.000000	99.171794
1661.000000	99.162835
1660.000000	99.153646
1659.000000	99.147055
1658.000000	99.144130
1657.000000	99.143158
1656.000000	99.140473
1655.000000	99.133166
1654.000000	99.121964
1653.000000	99.111022
1652.000000	99.103648
1651.000000	99.101170
1650.000000	99.101929
1649.000000	99.101030
1648.000000	99.095044
1647.000000	99.084630
1646.000000	99.075810
1645.000000	99.072456
1644.000000	99.074180
1643.000000	99.078657
1642.000000	99.083752
1641.000000	99.087586
1640.000000	99.088654
1639.000000	99.086743
1638.000000	99.082336
1637.000000	99.076867
1636.000000	99.073632
1635.000000	99.074821
1634.000000	99.079079
1633.000000	99.083986
1632.000000	99.088651
1631.000000	99.092955
1630.000000	99.096978
1629.000000	99.101148
1628.000000	99.106105
1627.000000	99.111539
1626.000000	99.116596
1625.000000	99.121535
1624.000000	99.128469
1623.000000	99.138818
1622.000000	99.149964
1621.000000	99.158240
1620.000000	99.162929
1619.000000	99.166185
1618.000000	99.171286
1617.000000	99.180021
1616.000000	99.190403
1615.000000	99.200638
1614.000000	99.212496
1613.000000	99.226982
1612.000000	99.241741
1611.000000	99.253125
1610.000000	99.261183
1609.000000	99.270602
1608.000000	99.284398
1607.000000	99.299292
1606.000000	99.310130
1605.000000	99.316558
1604.000000	99.322372
1603.000000	99.330639
1602.000000	99.340645
1601.000000	99.349885
1600.000000	99.357367
1599.000000	99.363731
1598.000000	99.369307
1597.000000	99.373463
1596.000000	99.376221
1595.000000	99.379354
1594.000000	99.384903
1593.000000	99.392944
1592.000000	99.401428
1591.000000	99.408097
1590.000000	99.412337
1589.000000	99.415509
1588.000000	99.419513
1587.000000	99.425043
1586.000000	99.430920
1585.000000	99.435490
1584.000000	99.437954
1583.000000	99.438866
1582.000000	99.440071
1581.000000	99.442983
1580.000000	99.447343
1579.000000	99.452060
1578.000000	99.456892
1577.000000	99.462100
1576.000000	99.466249
1575.000000	99.466888
1574.000000	99.465044
1573.000000	99.463316
1572.000000	99.462233
1571.000000	99.461766
1570.000000	99.462213
1569.000000	99.463318
1568.000000	99.463399
1567.000000	99.462335
1566.000000	99.462558
1565.000000	99.466103
1564.000000	99.471154
1563.000000	99.473283
1562.000000	99.470591
1561.000000	99.464364
1560.000000	99.459410
1559.000000	99.461235
1558.000000	99.464365
1557.000000	99.463776
1556.000000	99.463328
1555.000000	99.462434
1554.000000	99.458808
1553.000000	99.451516
1552.000000	99.442827
1551.000000	99.434875
1550.000000	99.427635
1549.000000	99.420147
1548.000000	99.412682
1547.000000	99.406023
1546.000000	99.400297
1545.000000	99.395355
1544.000000	99.391542
1543.000000	99.389386
1542.000000	99.388423
1541.000000	99.387370
1540.000000	99.383970
1539.000000	99.374594
1538.000000	99.359825
1537.000000	99.344144
1536.000000	99.330598
1535.000000	99.320805
1534.000000	99.314833
1533.000000	99.309431
1532.000000	99.300964
1531.000000	99.290683
1530.000000	99.281671
1529.000000	99.275121
1528.000000	99.270138
1527.000000	99.264749
1526.000000	99.257758
1525.000000	99.249660
1524.000000	99.241808
1523.000000	99.235392
1522.000000	99.230626
1521.000000	99.225737
1520.000000	99.219035
1519.000000	99.211639
1518.000000	99.205551
1517.000000	99.200935
1516.000000	99.196031
1515.000000	99.189757
1514.000000	99.183488
1513.000000	99.178706
1512.000000	99.175384
1511.000000	99.172493
1510.000000	99.169402
1509.000000	99.166325
1508.000000	99.164117
1507.000000	99.162612
1506.000000	99.157380
1505.000000	99.146850
1504.000000	99.135254
1503.000000	99.125294
1502.000000	99.117551
1501.000000	99.111851
1500.000000	99.107538
1499.000000	99.103647
1498.000000	99.099763
1497.000000	99.096204
1496.000000	99.093075
1495.000000	99.089508
1494.000000	99.084965
1493.000000	99.080711
1492.000000	99.078759
1491.000000	99.079547
1490.000000	99.080221
1489.000000	99.077186
1488.000000	99.070640
1487.000000	99.063108
1486.000000	99.055021
1485.000000	99.045893
1484.000000	99.036206
1483.000000	99.027093
1482.000000	99.019558
1481.000000	99.013923
1480.000000	99.010370
1479.000000	99.008858
1478.000000	99.008901
1477.000000	99.009573
1476.000000	99.010692
1475.000000	99.012925
1474.000000	99.016875
1473.000000	99.021944
1472.000000	99.025583
1471.000000	99.026003
1470.000000	99.023768
1469.000000	99.019900
1468.000000	99.014970
1467.000000	99.009867
1466.000000	99.006096
1465.000000	99.004900
1464.000000	99.004987
1463.000000	99.004199
1462.000000	99.002471
1461.000000	99.001614
1460.000000	99.003300
1459.000000	99.007121
1458.000000	99.009685
1457.000000	99.006438
1456.000000	98.998310
1455.000000	98.991133
1454.000000	98.986949
1453.000000	98.982844
1452.000000	98.976274
1451.000000	98.967592
1450.000000	98.958580
1449.000000	98.949380
1448.000000	98.939948
1447.000000	98.932212
1446.000000	98.928642
1445.000000	98.929378
1444.000000	98.931893
1443.000000	98.934089
1442.000000	98.935485
1441.000000	98.936402
1440.000000	98.936542
1439.000000	98.935028
1438.000000	98.930759
1437.000000	98.923330
1436.000000	98.914876
1435.000000	98.908772
1434.000000	98.906274
1433.000000	98.905565
1432.000000	98.903755
1431.000000	98.899580
1430.000000	98.895225
1429.000000	98.893729
1428.000000	98.895603
1427.000000	98.898793
1426.000000	98.901765
1425.000000	98.905354
1424.000000	98.911000
1423.000000	98.919307
1422.000000	98.929732
1421.000000	98.940842
1420.000000	98.949854
1419.000000	98.954525
1418.000000	98.956355
1417.000000	98.958422
1416.000000	98.961732
1415.000000	98.965982
1414.000000	98.972301
1413.000000	98.982620
1412.000000	98.996378
1411.000000	99.009714
1410.000000	99.019656
1409.000000	99.027606
1408.000000	99.037356
1407.000000	99.050425
1406.000000	99.065085
1405.000000	99.079239
1404.000000	99.092007
1403.000000	99.103967
1402.000000	99.116722
1401.000000	99.131889
1400.000000	99.149160
1399.000000	99.165226
1398.000000	99.177097
1397.000000	99.186111
1396.000000	99.196379
1395.000000	99.209718
1394.000000	99.223568
1393.000000	99.234386
1392.000000	99.242011
1391.000000	99.249774
1390.000000	99.261327
1389.000000	99.277294
1388.000000	99.293860
1387.000000	99.306047
1386.000000	99.313326
1385.000000	99.319235
1384.000000	99.325299
1383.000000	99.329633
1382.000000	99.331455
1381.000000	99.333844
1380.000000	99.340537
1379.000000	99.351323
1378.000000	99.362667
1377.000000	99.371634
1376.000000	99.377471
1375.000000	99.380449
1374.000000	99.381686
1373.000000	99.383315
1372.000000	99.387046
1371.000000	99.392902
1370.000000	99.399747
1369.000000	99.406226
1368.000000	99.410842
1367.000000	99.412976
1366.000000	99.414163
1365.000000	99.417151
1364.000000	99.423030
1363.000000	99.429862
1362.000000	99.435093
1361.000000	99.438809
1360.000000	99.442689
1359.000000	99.446916
1358.000000	99.450259
1357.000000	99.452093
1356.000000	99.452704
1355.000000	99.452393
1354.000000	99.451678
1353.000000	99.451663
1352.000000	99.452845
1351.000000	99.453954
1350.000000	99.453810
1349.000000	99.454129
1348.000000	99.457991
1347.000000	99.465529
1346.000000	99.472918
1345.000000	99.476650
1344.000000	99.477091
1343.000000	99.476972
1342.000000	99.477567
1341.000000	99.477769
1340.000000	99.476434
1339.000000	99.474109
1338.000000	99.472098
1337.000000	99.471101
1336.000000	99.471638
1335.000000	99.474493
1334.000000	99.479591
1333.000000	99.484923
1332.000000	99.487776
1331.000000	99.487285
1330.000000	99.485145
1329.000000	99.483515
1328.000000	99.482883
1327.000000	99.482583
1326.000000	99.482494
1325.000000	99.483037
1324.000000	99.483822
1323.000000	99.483737
1322.000000	99.482517
1321.000000	99.481217
1320.000000	99.480806
1319.000000	99.481014
1318.000000	99.480936
1317.000000	99.480159
1316.000000	99.478989
1315.000000	99.478173
1314.000000	99.478667
1313.000000	99.480852
1312.000000	99.483638
1311.000000	99.485121
1310.000000	99.484660
1309.000000	99.483671
1308.000000	99.483934
1307.000000	99.485569
1306.000000	99.487218
1305.000000	99.487731
1304.000000	99.486857
1303.000000	99.484722
1302.000000	99.481694
1301.000000	99.478987
1300.000000	99.478484
1299.000000	99.481083
1298.000000	99.485163
1297.000000	99.487367
1296.000000	99.485653
1295.000000	99.481541
1294.000000	99.478835
1293.000000	99.479703
1292.000000	99.482659
1291.000000	99.484768
1290.000000	99.484912
1289.000000	99.483943
1288.000000	99.482460
1287.000000	99.480329
1286.000000	99.478471
1285.000000	99.479093
1284.000000	99.482994
1283.000000	99.487824
1282.000000	99.490178
1281.000000	99.488761
1280.000000	99.484654
1279.000000	99.479346
1278.000000	99.473668
1277.000000	99.468148
1276.000000	99.463402
1275.000000	99.460315
1274.000000	99.460179
1273.000000	99.463652
1272.000000	99.468744
1271.000000	99.471158
1270.000000	99.468449
1269.000000	99.463181
1268.000000	99.460252
1267.000000	99.461634
1266.000000	99.465371
1265.000000	99.469119
1264.000000	99.472642
1263.000000	99.476856
1262.000000	99.482452
1261.000000	99.489544
1260.000000	99.496712
1259.000000	99.500220
1258.000000	99.496512
1257.000000	99.486182
1256.000000	99.473903
1255.000000	99.463961
1254.000000	99.457313
1253.000000	99.453314
1252.000000	99.452064
1251.000000	99.453481
1250.000000	99.455596
1249.000000	99.455510
1248.000000	99.451448
1247.000000	99.443209
1246.000000	99.431875
1245.000000	99.419893
1244.000000	99.410073
1243.000000	99.403169
1242.000000	99.397342
1241.000000	99.390949
1240.000000	99.384637
1239.000000	99.379733
1238.000000	99.376067
1237.000000	99.372518
1236.000000	99.367930
1235.000000	99.360138
1234.000000	99.346344
1233.000000	99.326762
1232.000000	99.305982
1231.000000	99.287800
1230.000000	99.270006
1229.000000	99.247678
1228.000000	99.220581
1227.000000	99.193252
1226.000000	99.167703
1225.000000	99.140186
1224.000000	99.106574
1223.000000	99.067139
1222.000000	99.023968
1221.000000	98.976931
1220.000000	98.925205
1219.000000	98.870710
1218.000000	98.816759
1217.000000	98.763712
1216.000000	98.708331
1215.000000	98.647336
1214.000000	98.580085
1213.000000	98.508099
1212.000000	98.433322
1211.000000	98.356957
1210.000000	98.279478
1209.000000	98.201902
1208.000000	98.126480
1207.000000	98.054727
1206.000000	97.985142
1205.000000	97.914884
1204.000000	97.843412
1203.000000	97.772301
1202.000000	97.701890
1201.000000	97.630955
1200.000000	97.559874
1199.000000	97.490999
1198.000000	97.424929
1197.000000	97.359077
1196.000000	97.290945
1195.000000	97.220663
1194.000000	97.149704
1193.000000	97.079167
1192.000000	97.009540
1191.000000	96.939938
1190.000000	96.867465
1189.000000	96.789651
1188.000000	96.707596
1187.000000	96.624669
1186.000000	96.542739
1185.000000	96.462024
1184.000000	96.383044
1183.000000	96.304847
1182.000000	96.222730
1181.000000	96.132883
1180.000000	96.038959
1179.000000	95.948610
1178.000000	95.862972
1177.000000	95.774975
1176.000000	95.679105
1175.000000	95.577456
1174.000000	95.474493
1173.000000	95.370931
1172.000000	95.265087
1171.000000	95.155959
1170.000000	95.042962
1169.000000	94.926640
1168.000000	94.811529
1167.000000	94.705018
1166.000000	94.613003
1165.000000	94.540606
1164.000000	94.495893
1163.000000	94.485592
1162.000000	94.505458
1161.000000	94.540378
1160.000000	94.575079
1159.000000	94.599587
1158.000000	94.605396
1157.000000	94.585164
1156.000000	94.538760
1155.000000	94.473529
1154.000000	94.396138
1153.000000	94.308992
1152.000000	94.215599
1151.000000	94.122390
1150.000000	94.032325
1149.000000	93.942723
1148.000000	93.852055
1147.000000	93.762816
1146.000000	93.675241
1145.000000	93.584657
1144.000000	93.488237
1143.000000	93.388695
1142.000000	93.288579
1141.000000	93.186706
1140.000000	93.082937
1139.000000	92.980515
1138.000000	92.880657
1137.000000	92.780058
1136.000000	92.675981
1135.000000	92.568363
1134.000000	92.455558
1133.000000	92.334584
1132.000000	92.207531
1131.000000	92.081199
1130.000000	91.958276
1129.000000	91.835136
1128.000000	91.709649
1127.000000	91.583832
1126.000000	91.457537
1125.000000	91.327725
1124.000000	91.196007
1123.000000	91.068559
1122.000000	90.946182
1121.000000	90.822642
1120.000000	90.695089
1119.000000	90.567666
1118.000000	90.442854
1117.000000	90.318505
1116.000000	90.195587
1115.000000	90.079400
1114.000000	89.970506
1113.000000	89.863640
1112.000000	89.757719
1111.000000	89.657375
1110.000000	89.562987
1109.000000	89.469028
1108.000000	89.373311
1107.000000	89.277855
1106.000000	89.180358
1105.000000	89.076008
1104.000000	88.968003
1103.000000	88.864506
1102.000000	88.765280
1101.000000	88.663939
1100.000000	88.562693
1099.000000	88.470053
1098.000000	88.383474
1097.000000	88.290366
1096.000000	88.188431
1095.000000	88.088917
1094.000000	87.996847
1093.000000	87.904255
1092.000000	87.806627
1091.000000	87.709599
1090.000000	87.614922
1089.000000	87.516156
1088.000000	87.413742
1087.000000	87.318682
1086.000000	87.235413
1085.000000	87.155514
1084.000000	87.073135
1083.000000	86.991559
1082.000000	86.910208
1081.000000	86.821394
1080.000000	86.725369
1079.000000	86.632730
1078.000000	86.545914
1077.000000	86.453573
1076.000000	86.348905
1075.000000	86.237469
1074.000000	86.121150
1073.000000	85.990740
1072.000000	85.841072
1071.000000	85.677839
1070.000000	85.502834
1069.000000	85.307873
1068.000000	85.090535
1067.000000	84.861153
1066.000000	84.627280
1065.000000	84.386036
1064.000000	84.138879
1063.000000	83.897945
1062.000000	83.669462
1061.000000	83.445978
1060.000000	83.222979
1059.000000	83.007996
1058.000000	82.805227
1057.000000	82.605605
1056.000000	82.399440
1055.000000	82.184765
1054.000000	81.957426
1053.000000	81.708824
1052.000000	81.440831
1051.000000	81.166869
1050.000000	80.890510
1049.000000	80.600958
1048.000000	80.296433
1047.000000	79.990659
1046.000000	79.689459
1045.000000	79.382185
1044.000000	79.062785
1043.000000	78.739940
1042.000000	78.420648
1041.000000	78.102623
1040.000000	77.789074
1039.000000	77.491830
1038.000000	77.212765
1037.000000	76.940665
1036.000000	76.672721
1035.000000	76.420447
1034.000000	76.189349
1033.000000	75.972984
1032.000000	75.771807
1031.000000	75.596137
1030.000000	75.444723
1029.000000	75.302155
1028.000000	75.163581
1027.000000	75.040354
1026.000000	74.935415
1025.000000	74.835597
1024.000000	74.734229
1023.000000	74.638672
1022.000000	74.549338
1021.000000	74.454534
1020.000000	74.352782
1019.000000	74.256931
1018.000000	74.168881
1017.000000	74.073259
1016.000000	73.963704
1015.000000	73.852864
1014.000000	73.748764
1013.000000	73.643959
1012.000000	73.535944
1011.000000	73.435901
1010.000000	73.348714
1009.000000	73.265606
1008.000000	73.184444
1007.000000	73.116524
1006.000000	73.065990
1005.000000	73.023308
1004.000000	72.985865
1003.000000	72.964010
1002.000000	72.959966
1001.000000	72.961735
1000.000000	72.964355
999.000000	72.976589
998.000000	73.000795
997.000000	73.027580
996.000000	73.056307
995.000000	73.099146
994.000000	73.158243
993.000000	73.220092
992.000000	73.278994
991.000000	73.345142
990.000000	73.423093
989.000000	73.503820
988.000000	73.585272
987.000000	73.680119
986.000000	73.795682
985.000000	73.925814
984.000000	74.068880
983.000000	74.233744
982.000000	74.421273
981.000000	74.619798
980.000000	74.825921
979.000000	75.050720
978.000000	75.298372
977.000000	75.557370
976.000000	75.820191
975.000000	76.094296
974.000000	76.386281
973.000000	76.690946
972.000000	77.002377
971.000000	77.321351
970.000000	77.646530
969.000000	77.971844
968.000000	78.296028
967.000000	78.621742
966.000000	78.944103
965.000000	79.254453
964.000000	79.556043
963.000000	79.860335
962.000000	80.166583
961.000000	80.461181
960.000000	80.739215
959.000000	81.010592
958.000000	81.281995
957.000000	81.547781
956.000000	81.802003
955.000000	82.045200
954.000000	82.276274
953.000000	82.490923
952.000000	82.690791
951.000000	82.881936
950.000000	83.063181
949.000000	83.228464
948.000000	83.380400
947.000000	83.527523
946.000000	83.668379
945.000000	83.793572
944.000000	83.903945
943.000000	84.010635
942.000000	84.115570
941.000000	84.208560
940.000000	84.287012
939.000000	84.362687
938.000000	84.444861
937.000000	84.531399
936.000000	84.620345
935.000000	84.715333
934.000000	84.815057
933.000000	84.911622
932.000000	85.003843
931.000000	85.099012
930.000000	85.198124
929.000000	85.292974
928.000000	85.381031
927.000000	85.468880
926.000000	85.557357
925.000000	85.637663
924.000000	85.706285
923.000000	85.769574
922.000000	85.829284
921.000000	85.877876
920.000000	85.913143
919.000000	85.943703
918.000000	85.974860
917.000000	86.002518
916.000000	86.026338
915.000000	86.055383
914.000000	86.095341
913.000000	86.144207
912.000000	86.206891
911.000000	86.300010
910.000000	86.434351
909.000000	86.604468
908.000000	86.801834
907.000000	87.026080
906.000000	87.276701
905.000000	87.545735
904.000000	87.826433
903.000000	88.119941
902.000000	88.427133
901.000000	88.741340
900.000000	89.053465
899.000000	89.357980
898.000000	89.652503
897.000000	89.938406
896.000000	90.221610
895.000000	90.504803
894.000000	90.779962
893.000000	91.037410
892.000000	91.279897
891.000000	91.516718
890.000000	91.745635
889.000000	91.953692
888.000000	92.136535
887.000000	92.303931
886.000000	92.464000
885.000000	92.614811
884.000000	92.755459
883.000000	92.892565
882.000000	93.029553
881.000000	93.160423
880.000000	93.281018
879.000000	93.397033
878.000000	93.514310
877.000000	93.630220
876.000000	93.742405
875.000000	93.859038
874.000000	93.993372
873.000000	94.152699
872.000000	94.336130
871.000000	94.536953
870.000000	94.744214
869.000000	94.948391
868.000000	95.148114
867.000000	95.346336
866.000000	95.539930
865.000000	95.719955
864.000000	95.882780
863.000000	96.033426
862.000000	96.176305
861.000000	96.309956
860.000000	96.433621
859.000000	96.552295
858.000000	96.671828
857.000000	96.794036
856.000000	96.918786
855.000000	97.045192
854.000000	97.168339
853.000000	97.280613
852.000000	97.379374
851.000000	97.468943
850.000000	97.552952
849.000000	97.629107
848.000000	97.693039
847.000000	97.742252
846.000000	97.774749
845.000000	97.789462
844.000000	97.790646
843.000000	97.786559
842.000000	97.780286
841.000000	97.765611
840.000000	97.734159
839.000000	97.682769
838.000000	97.613237
837.000000	97.530857
836.000000	97.445836
835.000000	97.370323
834.000000	97.309898
833.000000	97.261815
832.000000	97.223582
831.000000	97.197505
830.000000	97.184565
829.000000	97.181432
828.000000	97.188651
827.000000	97.215152
826.000000	97.267810
825.000000	97.340207
824.000000	97.416410
823.000000	97.481875
822.000000	97.527997
821.000000	97.552456
820.000000	97.559792
819.000000	97.557689
818.000000	97.549351
817.000000	97.531755
816.000000	97.501272
815.000000	97.455666
814.000000	97.388887
813.000000	97.288937
812.000000	97.143435
811.000000	96.943604
810.000000	96.682032
809.000000	96.352791
808.000000	95.957533
807.000000	95.507264
806.000000	95.015628
805.000000	94.496434
804.000000	93.971286
803.000000	93.471342
802.000000	93.024886
801.000000	92.649204
800.000000	92.357765
799.000000	92.163998
798.000000	92.070960
797.000000	92.066514
796.000000	92.134169
795.000000	92.259377
794.000000	92.421876
793.000000	92.594321
792.000000	92.755670
791.000000	92.897662
790.000000	93.013465
789.000000	93.088847
788.000000	93.110458
787.000000	93.075979
786.000000	92.990864
785.000000	92.861649
784.000000	92.698693
783.000000	92.520125
782.000000	92.346342
781.000000	92.193678
780.000000	92.076871
779.000000	92.011494
778.000000	92.008058
777.000000	92.067012
776.000000	92.181782
775.000000	92.341779
774.000000	92.531510
773.000000	92.733239
772.000000	92.932470
771.000000	93.117013
770.000000	93.273158
769.000000	93.390659
768.000000	93.471421
767.000000	93.526298
766.000000	93.563179
765.000000	93.584725
764.000000	93.596599
763.000000	93.608361
762.000000	93.624491
761.000000	93.643088
760.000000	93.665335
759.000000	93.697293
758.000000	93.739560
757.000000	93.783973
756.000000	93.824382
755.000000	93.863355
754.000000	93.905490
753.000000	93.952012
752.000000	94.005006
751.000000	94.068593
750.000000	94.141163
749.000000	94.213559
748.000000	94.280583
747.000000	94.349644
746.000000	94.433844
745.000000	94.540474
744.000000	94.668436
743.000000	94.810910
742.000000	94.957397
741.000000	95.098960
740.000000	95.235758
739.000000	95.375844
738.000000	95.524022
737.000000	95.675537
736.000000	95.822203
735.000000	95.959344
734.000000	96.083717
733.000000	96.189163
732.000000	96.269273
731.000000	96.324124
730.000000	96.362257
729.000000	96.395260
728.000000	96.429642
727.000000	96.463525
726.000000	96.492849
725.000000	96.521346
724.000000	96.561139
723.000000	96.621220
722.000000	96.698594
721.000000	96.783459
720.000000	96.868883
719.000000	96.951263
718.000000	97.025701
717.000000	97.087037
716.000000	97.133241
715.000000	97.164332
714.000000	97.182076
713.000000	97.194297
712.000000	97.212836
711.000000	97.239943
710.000000	97.262210
709.000000	97.266756
708.000000	97.258103
707.000000	97.248287
706.000000	97.234049
705.000000	97.196061
704.000000	97.120374
703.000000	97.009393
702.000000	96.870218
701.000000	96.701834
700.000000	96.496436
699.000000	96.248166
698.000000	95.964571
697.000000	95.678920
696.000000	95.446239
695.000000	95.311989
694.000000	95.282385
693.000000	95.331522
692.000000	95.431404
691.000000	95.563326
690.000000	95.706161
689.000000	95.834890
688.000000	95.938509
687.000000	96.026462
686.000000	96.110094
685.000000	96.188361
684.000000	96.255517
683.000000	96.311576
682.000000	96.361430
681.000000	96.411233
680.000000	96.465819
679.000000	96.522106
678.000000	96.569088
677.000000	96.604191
676.000000	96.644471
675.000000	96.708604
674.000000	96.788779
673.000000	96.859108
672.000000	96.912212
671.000000	96.969331
670.000000	97.051363
669.000000	97.160708
668.000000	97.282091
667.000000	97.376768
666.000000	97.425810
665.000000	97.457489
664.000000	97.495195
663.000000	97.544481
662.000000	97.595234
661.000000	97.631410
660.000000	97.648598
659.000000	97.657154
658.000000	97.663062
657.000000	97.656135
656.000000	97.626623
655.000000	97.585553
654.000000	97.553418
653.000000	97.536153
652.000000	97.527982
651.000000	97.529553
650.000000	97.545910
649.000000	97.572176
648.000000	97.597181
647.000000	97.621265
646.000000	97.660523
645.000000	97.730229
644.000000	97.828647
643.000000	97.935782
642.000000	98.026687
641.000000	98.093463
640.000000	98.150673
639.000000	98.214108
638.000000	98.282042
637.000000	98.345499
636.000000	98.405519
635.000000	98.463217
634.000000	98.503768
633.000000	98.514826
632.000000	98.515149
631.000000	98.539868
630.000000	98.597021
629.000000	98.663764
628.000000	98.732038
627.000000	98.829653
626.000000	98.978316
625.000000	99.148663
624.000000	99.278865
623.000000	99.330190
622.000000	99.317556
621.000000	99.293867
620.000000	99.307308
619.000000	99.367166
618.000000	99.443994
617.000000	99.509142
616.000000	99.566162
615.000000	99.626362
614.000000	99.668958
613.000000	99.654079
612.000000	99.570966
611.000000	99.454983
610.000000	99.356804
609.000000	99.304601
608.000000	99.294552
607.000000	99.290784
606.000000	99.237337
605.000000	99.113058
604.000000	98.979009
603.000000	98.931054
602.000000	98.988055
601.000000	99.062746
600.000000	99.062235
599.000000	98.984972
598.000000	98.899180
597.000000	98.851006
596.000000	98.828878
595.000000	98.801686
594.000000	98.757026
593.000000	98.707846
592.000000	98.680112
591.000000	98.687615
590.000000	98.710409
589.000000	98.716250
588.000000	98.707233
587.000000	98.720494
586.000000	98.780659
585.000000	98.877254
584.000000	98.991036
583.000000	99.108063
582.000000	99.208385
581.000000	99.283366
580.000000	99.361303
579.000000	99.470982
578.000000	99.582908
577.000000	99.644405
576.000000	99.672766
575.000000	99.746680
574.000000	99.888501
573.000000	100.021533
572.000000	100.066315
571.000000	100.017589
570.000000	99.924218
569.000000	99.833689
568.000000	99.767542
567.000000	99.705988
566.000000	99.586741
565.000000	99.385915
564.000000	99.198786
563.000000	99.161097
562.000000	99.265460
561.000000	99.354137
560.000000	99.324167
559.000000	99.223698
558.000000	99.125254
557.000000	99.022844
556.000000	98.919580
555.000000	98.894355
554.000000	98.985314
553.000000	99.111389
552.000000	99.194322
551.000000	99.263739
550.000000	99.364853
