PE IR       SUBTECH     SPECTRUM    ASCII       PEDS        4.00        
   -1
BH1 8-1 1 15_1.asc
24/05/17
15:20:47.00
24/05/17
15:21:25.00
Administrator
?品 025 用? Administrator 日期 Friday, May 17 2024
550.000000
#HDR
-1
-1
#GR
cm-1
%T
1.0
0.0
4000.000000
-1.000000
3451
8
98.614298
88.275872
#DATA
4000.000000	98.493587
3999.000000	98.492816
3998.000000	98.491438
3997.000000	98.489549
3996.000000	98.487865
3995.000000	98.486989
3994.000000	98.486800
3993.000000	98.486551
3992.000000	98.485610
3991.000000	98.484011
3990.000000	98.482331
3989.000000	98.481273
3988.000000	98.481376
3987.000000	98.482841
3986.000000	98.485348
3985.000000	98.487980
3984.000000	98.489699
3983.000000	98.490031
3982.000000	98.489204
3981.000000	98.487722
3980.000000	98.485798
3979.000000	98.483397
3978.000000	98.480802
3977.000000	98.478844
3976.000000	98.478344
3975.000000	98.479324
3974.000000	98.480698
3973.000000	98.480973
3972.000000	98.479487
3971.000000	98.476924
3970.000000	98.474711
3969.000000	98.473735
3968.000000	98.473724
3967.000000	98.473735
3966.000000	98.473109
3965.000000	98.471973
3964.000000	98.470937
3963.000000	98.470486
3962.000000	98.470655
3961.000000	98.471162
3960.000000	98.471731
3959.000000	98.472164
3958.000000	98.472162
3957.000000	98.471435
3956.000000	98.470281
3955.000000	98.469728
3954.000000	98.470690
3953.000000	98.472911
3952.000000	98.474985
3951.000000	98.475613
3950.000000	98.474828
3949.000000	98.473954
3948.000000	98.474236
3947.000000	98.475686
3946.000000	98.477449
3945.000000	98.478905
3944.000000	98.480037
3943.000000	98.480863
3942.000000	98.481036
3941.000000	98.480203
3940.000000	98.478442
3939.000000	98.476231
3938.000000	98.474096
3937.000000	98.472411
3936.000000	98.471543
3935.000000	98.471761
3934.000000	98.472853
3933.000000	98.473987
3932.000000	98.474373
3931.000000	98.474077
3930.000000	98.473701
3929.000000	98.473543
3928.000000	98.473340
3927.000000	98.472755
3926.000000	98.471730
3925.000000	98.470292
3924.000000	98.468544
3923.000000	98.466869
3922.000000	98.465721
3921.000000	98.465145
3920.000000	98.464702
3919.000000	98.463952
3918.000000	98.462944
3917.000000	98.462112
3916.000000	98.461772
3915.000000	98.461871
3914.000000	98.462091
3913.000000	98.462038
3912.000000	98.461460
3911.000000	98.460416
3910.000000	98.459188
3909.000000	98.458069
3908.000000	98.457175
3907.000000	98.456449
3906.000000	98.455788
3905.000000	98.455081
3904.000000	98.454269
3903.000000	98.453390
3902.000000	98.452512
3901.000000	98.451655
3900.000000	98.450810
3899.000000	98.449981
3898.000000	98.449166
3897.000000	98.448363
3896.000000	98.447573
3895.000000	98.446790
3894.000000	98.446002
3893.000000	98.445200
3892.000000	98.444384
3891.000000	98.443563
3890.000000	98.442747
3889.000000	98.441948
3888.000000	98.441174
3887.000000	98.440428
3886.000000	98.439703
3885.000000	98.438990
3884.000000	98.438285
3883.000000	98.437591
3882.000000	98.436914
3881.000000	98.436253
3880.000000	98.435602
3879.000000	98.434955
3878.000000	98.434308
3877.000000	98.433660
3876.000000	98.433011
3875.000000	98.432359
3874.000000	98.431701
3873.000000	98.431038
3872.000000	98.430375
3871.000000	98.429719
3870.000000	98.429078
3869.000000	98.428462
3868.000000	98.427885
3867.000000	98.427354
3866.000000	98.426853
3865.000000	98.426350
3864.000000	98.425823
3863.000000	98.425272
3862.000000	98.424715
3861.000000	98.424161
3860.000000	98.423601
3859.000000	98.423018
3858.000000	98.422405
3857.000000	98.421769
3856.000000	98.421125
3855.000000	98.420489
3854.000000	98.419864
3853.000000	98.419249
3852.000000	98.418660
3851.000000	98.418117
3850.000000	98.417625
3849.000000	98.417170
3848.000000	98.416725
3847.000000	98.416259
3846.000000	98.415753
3845.000000	98.415211
3844.000000	98.414635
3843.000000	98.414037
3842.000000	98.413431
3841.000000	98.412830
3840.000000	98.412263
3839.000000	98.411755
3838.000000	98.411304
3837.000000	98.410886
3836.000000	98.410483
3835.000000	98.410102
3834.000000	98.409767
3833.000000	98.409502
3832.000000	98.409293
3831.000000	98.409102
3830.000000	98.408923
3829.000000	98.408822
3828.000000	98.408858
3827.000000	98.408933
3826.000000	98.408758
3825.000000	98.408061
3824.000000	98.406916
3823.000000	98.405996
3822.000000	98.405923
3821.000000	98.406445
3820.000000	98.406597
3819.000000	98.405884
3818.000000	98.404848
3817.000000	98.404582
3816.000000	98.405405
3815.000000	98.406679
3814.000000	98.407949
3813.000000	98.409323
3812.000000	98.410797
3811.000000	98.411990
3810.000000	98.412658
3809.000000	98.413192
3808.000000	98.414008
3807.000000	98.414607
3806.000000	98.414215
3805.000000	98.412989
3804.000000	98.412113
3803.000000	98.412828
3802.000000	98.414922
3801.000000	98.416709
3800.000000	98.417491
3799.000000	98.418088
3798.000000	98.419298
3797.000000	98.421020
3796.000000	98.422580
3795.000000	98.423747
3794.000000	98.424859
3793.000000	98.426027
3792.000000	98.426799
3791.000000	98.426834
3790.000000	98.426508
3789.000000	98.426471
3788.000000	98.426896
3787.000000	98.427540
3786.000000	98.428210
3785.000000	98.428869
3784.000000	98.429354
3783.000000	98.429451
3782.000000	98.429285
3781.000000	98.429238
3780.000000	98.429324
3779.000000	98.429229
3778.000000	98.429026
3777.000000	98.429075
3776.000000	98.429420
3775.000000	98.429487
3774.000000	98.428552
3773.000000	98.426576
3772.000000	98.424375
3771.000000	98.422894
3770.000000	98.422329
3769.000000	98.422215
3768.000000	98.422030
3767.000000	98.421503
3766.000000	98.420561
3765.000000	98.419223
3764.000000	98.417660
3763.000000	98.416264
3762.000000	98.415408
3761.000000	98.415125
3760.000000	98.415006
3759.000000	98.414585
3758.000000	98.413795
3757.000000	98.412646
3756.000000	98.410934
3755.000000	98.408606
3754.000000	98.406248
3753.000000	98.404790
3752.000000	98.404516
3751.000000	98.404844
3750.000000	98.405139
3749.000000	98.404903
3748.000000	98.403466
3747.000000	98.400806
3746.000000	98.398618
3745.000000	98.398341
3744.000000	98.399093
3743.000000	98.399808
3742.000000	98.400508
3741.000000	98.401006
3740.000000	98.400431
3739.000000	98.397957
3738.000000	98.394415
3737.000000	98.391818
3736.000000	98.390662
3735.000000	98.389493
3734.000000	98.387462
3733.000000	98.385423
3732.000000	98.384053
3731.000000	98.383055
3730.000000	98.382323
3729.000000	98.382676
3728.000000	98.384952
3727.000000	98.388114
3726.000000	98.389590
3725.000000	98.388270
3724.000000	98.385569
3723.000000	98.383516
3722.000000	98.382907
3721.000000	98.383687
3720.000000	98.385549
3719.000000	98.387587
3718.000000	98.388089
3717.000000	98.384764
3716.000000	98.376523
3715.000000	98.365313
3714.000000	98.355506
3713.000000	98.350047
3712.000000	98.347063
3711.000000	98.342643
3710.000000	98.336466
3709.000000	98.331569
3708.000000	98.330005
3707.000000	98.330793
3706.000000	98.331422
3705.000000	98.330619
3704.000000	98.329082
3703.000000	98.327606
3702.000000	98.325436
3701.000000	98.321585
3700.000000	98.316674
3699.000000	98.312342
3698.000000	98.309374
3697.000000	98.306387
3696.000000	98.300698
3695.000000	98.291157
3694.000000	98.279252
3693.000000	98.267619
3692.000000	98.258428
3691.000000	98.252821
3690.000000	98.250536
3689.000000	98.249565
3688.000000	98.248244
3687.000000	98.246841
3686.000000	98.246243
3685.000000	98.246374
3684.000000	98.245552
3683.000000	98.241469
3682.000000	98.233476
3681.000000	98.222855
3680.000000	98.210667
3679.000000	98.197171
3678.000000	98.184202
3677.000000	98.175648
3676.000000	98.171514
3675.000000	98.167288
3674.000000	98.160839
3673.000000	98.153422
3672.000000	98.147217
3671.000000	98.142947
3670.000000	98.138403
3669.000000	98.132549
3668.000000	98.127268
3667.000000	98.123451
3666.000000	98.119843
3665.000000	98.115102
3664.000000	98.109106
3663.000000	98.102420
3662.000000	98.095187
3661.000000	98.086643
3660.000000	98.076207
3659.000000	98.064958
3658.000000	98.055433
3657.000000	98.048985
3656.000000	98.043799
3655.000000	98.037403
3654.000000	98.029766
3653.000000	98.023321
3652.000000	98.020611
3651.000000	98.020030
3650.000000	98.015047
3649.000000	98.003070
3648.000000	97.990437
3647.000000	97.983506
3646.000000	97.981712
3645.000000	97.980957
3644.000000	97.978380
3643.000000	97.973701
3642.000000	97.968373
3641.000000	97.964097
3640.000000	97.961798
3639.000000	97.960632
3638.000000	97.958323
3637.000000	97.953355
3636.000000	97.946518
3635.000000	97.939539
3634.000000	97.932063
3633.000000	97.922270
3632.000000	97.910839
3631.000000	97.903122
3630.000000	97.902462
3629.000000	97.902363
3628.000000	97.896951
3627.000000	97.890677
3626.000000	97.889267
3625.000000	97.892713
3624.000000	97.896810
3623.000000	97.897303
3622.000000	97.893797
3621.000000	97.889372
3620.000000	97.886676
3619.000000	97.886263
3618.000000	97.888468
3617.000000	97.893748
3616.000000	97.902150
3615.000000	97.913428
3614.000000	97.925583
3613.000000	97.934421
3612.000000	97.936601
3611.000000	97.932674
3610.000000	97.926625
3609.000000	97.922566
3608.000000	97.921931
3607.000000	97.923873
3606.000000	97.927215
3605.000000	97.931306
3604.000000	97.935870
3603.000000	97.940400
3602.000000	97.944005
3601.000000	97.945817
3600.000000	97.945830
3599.000000	97.945461
3598.000000	97.946789
3597.000000	97.950911
3596.000000	97.957190
3595.000000	97.963772
3594.000000	97.968652
3593.000000	97.971003
3592.000000	97.971197
3591.000000	97.969927
3590.000000	97.967577
3589.000000	97.964023
3588.000000	97.959473
3587.000000	97.955946
3586.000000	97.955965
3585.000000	97.959575
3584.000000	97.964371
3583.000000	97.967740
3582.000000	97.968530
3581.000000	97.967319
3580.000000	97.965473
3579.000000	97.963761
3578.000000	97.961759
3577.000000	97.958836
3576.000000	97.955487
3575.000000	97.953350
3574.000000	97.953728
3573.000000	97.956345
3572.000000	97.959655
3571.000000	97.962080
3570.000000	97.962827
3569.000000	97.961548
3568.000000	97.957943
3567.000000	97.952587
3566.000000	97.947523
3565.000000	97.944442
3564.000000	97.943226
3563.000000	97.942773
3562.000000	97.942260
3561.000000	97.941650
3560.000000	97.941369
3559.000000	97.941694
3558.000000	97.942374
3557.000000	97.942697
3556.000000	97.941954
3555.000000	97.939895
3554.000000	97.936781
3553.000000	97.933045
3552.000000	97.929196
3551.000000	97.926057
3550.000000	97.924619
3549.000000	97.925328
3548.000000	97.927509
3547.000000	97.929591
3546.000000	97.930305
3545.000000	97.929520
3544.000000	97.927814
3543.000000	97.925786
3542.000000	97.923891
3541.000000	97.922410
3540.000000	97.921223
3539.000000	97.919749
3538.000000	97.917477
3537.000000	97.914595
3536.000000	97.911975
3535.000000	97.910399
3534.000000	97.909851
3533.000000	97.909613
3532.000000	97.908993
3531.000000	97.907982
3530.000000	97.907209
3529.000000	97.907302
3528.000000	97.908279
3527.000000	97.909630
3526.000000	97.910917
3525.000000	97.912092
3524.000000	97.913248
3523.000000	97.914254
3522.000000	97.914765
3521.000000	97.914556
3520.000000	97.913822
3519.000000	97.913073
3518.000000	97.912680
3517.000000	97.912494
3516.000000	97.911986
3515.000000	97.910752
3514.000000	97.908793
3513.000000	97.906516
3512.000000	97.904630
3511.000000	97.903838
3510.000000	97.904226
3509.000000	97.904878
3508.000000	97.904507
3507.000000	97.902837
3506.000000	97.901127
3505.000000	97.900981
3504.000000	97.902800
3503.000000	97.905592
3502.000000	97.908003
3501.000000	97.909177
3500.000000	97.908713
3499.000000	97.906661
3498.000000	97.903865
3497.000000	97.901820
3496.000000	97.901692
3495.000000	97.903463
3494.000000	97.905957
3493.000000	97.907657
3492.000000	97.907627
3491.000000	97.905945
3490.000000	97.903526
3489.000000	97.901347
3488.000000	97.899565
3487.000000	97.897474
3486.000000	97.894441
3485.000000	97.890724
3484.000000	97.887266
3483.000000	97.884774
3482.000000	97.883183
3481.000000	97.882042
3480.000000	97.881174
3479.000000	97.880804
3478.000000	97.881133
3477.000000	97.881962
3476.000000	97.882760
3475.000000	97.883015
3474.000000	97.882480
3473.000000	97.881176
3472.000000	97.879393
3471.000000	97.877694
3470.000000	97.876658
3469.000000	97.876350
3468.000000	97.876052
3467.000000	97.874781
3466.000000	97.872267
3465.000000	97.869342
3464.000000	97.867282
3463.000000	97.866633
3462.000000	97.866773
3461.000000	97.866534
3460.000000	97.865291
3459.000000	97.863394
3458.000000	97.861649
3457.000000	97.860460
3456.000000	97.859521
3455.000000	97.858235
3454.000000	97.856356
3453.000000	97.854162
3452.000000	97.852107
3451.000000	97.850442
3450.000000	97.849198
3449.000000	97.848314
3448.000000	97.847640
3447.000000	97.846933
3446.000000	97.846031
3445.000000	97.845008
3444.000000	97.844074
3443.000000	97.843285
3442.000000	97.842426
3441.000000	97.841257
3440.000000	97.839832
3439.000000	97.838503
3438.000000	97.837592
3437.000000	97.837112
3436.000000	97.836792
3435.000000	97.836333
3434.000000	97.835637
3433.000000	97.834810
3432.000000	97.834033
3431.000000	97.833453
3430.000000	97.833111
3429.000000	97.832907
3428.000000	97.832643
3427.000000	97.832174
3426.000000	97.831539
3425.000000	97.830932
3424.000000	97.830494
3423.000000	97.830148
3422.000000	97.829643
3421.000000	97.828781
3420.000000	97.827612
3419.000000	97.826476
3418.000000	97.825769
3417.000000	97.825650
3416.000000	97.825977
3415.000000	97.826397
3414.000000	97.826581
3413.000000	97.826384
3412.000000	97.825829
3411.000000	97.825079
3410.000000	97.824386
3409.000000	97.823948
3408.000000	97.823798
3407.000000	97.823814
3406.000000	97.823828
3405.000000	97.823761
3404.000000	97.823659
3403.000000	97.823628
3402.000000	97.823736
3401.000000	97.823965
3400.000000	97.824248
3399.000000	97.824524
3398.000000	97.824732
3397.000000	97.824794
3396.000000	97.824702
3395.000000	97.824616
3394.000000	97.824795
3393.000000	97.825324
3392.000000	97.825935
3391.000000	97.826215
3390.000000	97.826005
3389.000000	97.825505
3388.000000	97.825071
3387.000000	97.824938
3386.000000	97.825095
3385.000000	97.825330
3384.000000	97.825412
3383.000000	97.825309
3382.000000	97.825151
3381.000000	97.824952
3380.000000	97.824535
3379.000000	97.823910
3378.000000	97.823603
3377.000000	97.824259
3376.000000	97.825962
3375.000000	97.828108
3374.000000	97.829830
3373.000000	97.830609
3372.000000	97.830388
3371.000000	97.829461
3370.000000	97.828419
3369.000000	97.827880
3368.000000	97.828125
3367.000000	97.829028
3366.000000	97.830299
3365.000000	97.831715
3364.000000	97.833085
3363.000000	97.834173
3362.000000	97.834827
3361.000000	97.835115
3360.000000	97.835222
3359.000000	97.835220
3358.000000	97.835023
3357.000000	97.834583
3356.000000	97.834082
3355.000000	97.833922
3354.000000	97.834520
3353.000000	97.836073
3352.000000	97.838468
3351.000000	97.841349
3350.000000	97.844204
3349.000000	97.846489
3348.000000	97.847867
3347.000000	97.848439
3346.000000	97.848661
3345.000000	97.848876
3344.000000	97.849016
3343.000000	97.848909
3342.000000	97.848723
3341.000000	97.848949
3340.000000	97.849976
3339.000000	97.851822
3338.000000	97.854147
3337.000000	97.856318
3336.000000	97.857597
3335.000000	97.857585
3334.000000	97.856573
3333.000000	97.855480
3332.000000	97.855131
3331.000000	97.855614
3330.000000	97.856448
3329.000000	97.857221
3328.000000	97.858016
3327.000000	97.859157
3326.000000	97.860691
3325.000000	97.862265
3324.000000	97.863461
3323.000000	97.864194
3322.000000	97.864742
3321.000000	97.865403
3320.000000	97.866164
3319.000000	97.866777
3318.000000	97.867138
3317.000000	97.867453
3316.000000	97.867994
3315.000000	97.868787
3314.000000	97.869623
3313.000000	97.870343
3312.000000	97.871026
3311.000000	97.871875
3310.000000	97.872967
3309.000000	97.874108
3308.000000	97.874990
3307.000000	97.875507
3306.000000	97.875843
3305.000000	97.876297
3304.000000	97.877004
3303.000000	97.877866
3302.000000	97.878741
3301.000000	97.879641
3300.000000	97.880687
3299.000000	97.881837
3298.000000	97.882775
3297.000000	97.883190
3296.000000	97.883099
3295.000000	97.882862
3294.000000	97.882850
3293.000000	97.883189
3292.000000	97.883850
3291.000000	97.884848
3290.000000	97.886232
3289.000000	97.887843
3288.000000	97.889253
3287.000000	97.890155
3286.000000	97.890652
3285.000000	97.891123
3284.000000	97.891823
3283.000000	97.892648
3282.000000	97.893362
3281.000000	97.893922
3280.000000	97.894487
3279.000000	97.895185
3278.000000	97.895996
3277.000000	97.896829
3276.000000	97.897607
3275.000000	97.898301
3274.000000	97.898960
3273.000000	97.899683
3272.000000	97.900457
3271.000000	97.901039
3270.000000	97.901157
3269.000000	97.900881
3268.000000	97.900718
3267.000000	97.901190
3266.000000	97.902402
3265.000000	97.904018
3264.000000	97.905518
3263.000000	97.906556
3262.000000	97.907045
3261.000000	97.907145
3260.000000	97.907202
3259.000000	97.907457
3258.000000	97.907778
3257.000000	97.907803
3256.000000	97.907418
3255.000000	97.906991
3254.000000	97.907048
3253.000000	97.907739
3252.000000	97.908788
3251.000000	97.909877
3250.000000	97.910917
3249.000000	97.911932
3248.000000	97.912833
3247.000000	97.913390
3246.000000	97.913410
3245.000000	97.912967
3244.000000	97.912524
3243.000000	97.912688
3242.000000	97.913692
3241.000000	97.915074
3240.000000	97.916002
3239.000000	97.916087
3238.000000	97.915773
3237.000000	97.915903
3236.000000	97.916889
3235.000000	97.918377
3234.000000	97.919618
3233.000000	97.920172
3232.000000	97.920264
3231.000000	97.920575
3230.000000	97.921656
3229.000000	97.923482
3228.000000	97.925476
3227.000000	97.926981
3226.000000	97.927792
3225.000000	97.928253
3224.000000	97.928981
3223.000000	97.930436
3222.000000	97.932660
3221.000000	97.935216
3220.000000	97.937351
3219.000000	97.938427
3218.000000	97.938359
3217.000000	97.937750
3216.000000	97.937483
3215.000000	97.937938
3214.000000	97.938719
3213.000000	97.939269
3212.000000	97.939654
3211.000000	97.940469
3210.000000	97.941909
3209.000000	97.943275
3208.000000	97.943678
3207.000000	97.943032
3206.000000	97.942104
3205.000000	97.941734
3204.000000	97.942274
3203.000000	97.943726
3202.000000	97.945954
3201.000000	97.948555
3200.000000	97.950829
3199.000000	97.952272
3198.000000	97.952992
3197.000000	97.953518
3196.000000	97.954319
3195.000000	97.955528
3194.000000	97.957063
3193.000000	97.958776
3192.000000	97.960484
3191.000000	97.961992
3190.000000	97.963157
3189.000000	97.963973
3188.000000	97.964606
3187.000000	97.965332
3186.000000	97.966371
3185.000000	97.967717
3184.000000	97.969166
3183.000000	97.970509
3182.000000	97.971693
3181.000000	97.972792
3180.000000	97.973901
3179.000000	97.975077
3178.000000	97.976343
3177.000000	97.977689
3176.000000	97.979089
3175.000000	97.980514
3174.000000	97.981954
3173.000000	97.983403
3172.000000	97.984852
3171.000000	97.986289
3170.000000	97.987715
3169.000000	97.989141
3168.000000	97.990579
3167.000000	97.992036
3166.000000	97.993513
3165.000000	97.995003
3164.000000	97.996492
3163.000000	97.997961
3162.000000	97.999390
3161.000000	98.000775
3160.000000	98.002123
3159.000000	98.003454
3158.000000	98.004783
3157.000000	98.006129
3156.000000	98.007502
3155.000000	98.008886
3154.000000	98.010257
3153.000000	98.011600
3152.000000	98.012915
3151.000000	98.014225
3150.000000	98.015569
3149.000000	98.016971
3148.000000	98.018405
3147.000000	98.019818
3146.000000	98.021190
3145.000000	98.022565
3144.000000	98.024005
3143.000000	98.025524
3142.000000	98.027064
3141.000000	98.028537
3140.000000	98.029889
3139.000000	98.031155
3138.000000	98.032465
3137.000000	98.033951
3136.000000	98.035615
3135.000000	98.037293
3134.000000	98.038787
3133.000000	98.040033
3132.000000	98.041141
3131.000000	98.042338
3130.000000	98.043845
3129.000000	98.045730
3128.000000	98.047760
3127.000000	98.049481
3126.000000	98.050597
3125.000000	98.051183
3124.000000	98.051532
3123.000000	98.051846
3122.000000	98.052191
3121.000000	98.052672
3120.000000	98.053483
3119.000000	98.054771
3118.000000	98.056505
3117.000000	98.058479
3116.000000	98.060388
3115.000000	98.061934
3114.000000	98.063010
3113.000000	98.063794
3112.000000	98.064599
3111.000000	98.065582
3110.000000	98.066650
3109.000000	98.067702
3108.000000	98.068857
3107.000000	98.070317
3106.000000	98.072042
3105.000000	98.073651
3104.000000	98.074770
3103.000000	98.075414
3102.000000	98.075943
3101.000000	98.076681
3100.000000	98.077614
3099.000000	98.078572
3098.000000	98.079540
3097.000000	98.080661
3096.000000	98.081968
3095.000000	98.083259
3094.000000	98.084302
3093.000000	98.085083
3092.000000	98.085766
3091.000000	98.086486
3090.000000	98.087264
3089.000000	98.088098
3088.000000	98.089035
3087.000000	98.090080
3086.000000	98.091122
3085.000000	98.092018
3084.000000	98.092755
3083.000000	98.093511
3082.000000	98.094500
3081.000000	98.095794
3080.000000	98.097285
3079.000000	98.098794
3078.000000	98.100178
3077.000000	98.101332
3076.000000	98.102174
3075.000000	98.102713
3074.000000	98.103105
3073.000000	98.103582
3072.000000	98.104305
3071.000000	98.105315
3070.000000	98.106585
3069.000000	98.108059
3068.000000	98.109613
3067.000000	98.111071
3066.000000	98.112296
3065.000000	98.113256
3064.000000	98.114059
3063.000000	98.114935
3062.000000	98.116081
3061.000000	98.117443
3060.000000	98.118671
3059.000000	98.119484
3058.000000	98.120034
3057.000000	98.120791
3056.000000	98.121912
3055.000000	98.123035
3054.000000	98.123795
3053.000000	98.124362
3052.000000	98.125190
3051.000000	98.126400
3050.000000	98.127666
3049.000000	98.128650
3048.000000	98.129334
3047.000000	98.129924
3046.000000	98.130643
3045.000000	98.131591
3044.000000	98.132701
3043.000000	98.133889
3042.000000	98.135350
3041.000000	98.137439
3040.000000	98.140093
3039.000000	98.142613
3038.000000	98.144342
3037.000000	98.145349
3036.000000	98.146076
3035.000000	98.146697
3034.000000	98.147315
3033.000000	98.148459
3032.000000	98.150536
3031.000000	98.152813
3030.000000	98.153828
3029.000000	98.153076
3028.000000	98.151698
3027.000000	98.151146
3026.000000	98.151681
3025.000000	98.152537
3024.000000	98.153081
3023.000000	98.153426
3022.000000	98.154134
3021.000000	98.155738
3020.000000	98.158451
3019.000000	98.162020
3018.000000	98.165867
3017.000000	98.169421
3016.000000	98.172296
3015.000000	98.174366
3014.000000	98.175936
3013.000000	98.177801
3012.000000	98.180786
3011.000000	98.184987
3010.000000	98.189554
3009.000000	98.193415
3008.000000	98.196107
3007.000000	98.197858
3006.000000	98.199072
3005.000000	98.199986
3004.000000	98.200822
3003.000000	98.202005
3002.000000	98.203895
3001.000000	98.206263
3000.000000	98.208423
2999.000000	98.210115
2998.000000	98.211976
2997.000000	98.214696
2996.000000	98.217909
2995.000000	98.220421
2994.000000	98.221556
2993.000000	98.221762
2992.000000	98.221962
2991.000000	98.222977
2990.000000	98.225656
2989.000000	98.230553
2988.000000	98.236735
2987.000000	98.241680
2986.000000	98.243485
2985.000000	98.242984
2984.000000	98.242999
2983.000000	98.245728
2982.000000	98.251548
2981.000000	98.259757
2980.000000	98.269163
2979.000000	98.277939
2978.000000	98.284241
2977.000000	98.287783
2976.000000	98.290390
2975.000000	98.294347
2974.000000	98.300008
2973.000000	98.305188
2972.000000	98.307011
2971.000000	98.304669
2970.000000	98.300576
2969.000000	98.298431
2968.000000	98.299631
2967.000000	98.301997
2966.000000	98.302659
2965.000000	98.301654
2964.000000	98.301594
2963.000000	98.303939
2962.000000	98.306923
2961.000000	98.307696
2960.000000	98.305568
2959.000000	98.302498
2958.000000	98.300880
2957.000000	98.301358
2956.000000	98.302371
2955.000000	98.301379
2954.000000	98.296993
2953.000000	98.290511
2952.000000	98.285189
2951.000000	98.283578
2950.000000	98.285588
2949.000000	98.289293
2948.000000	98.293428
2947.000000	98.298843
2946.000000	98.307495
2945.000000	98.320176
2944.000000	98.335342
2943.000000	98.350362
2942.000000	98.363951
2941.000000	98.376941
2940.000000	98.390325
2939.000000	98.402943
2938.000000	98.411899
2937.000000	98.415435
2936.000000	98.415088
2935.000000	98.415094
2934.000000	98.419904
2933.000000	98.431806
2932.000000	98.449544
2931.000000	98.468545
2930.000000	98.483237
2929.000000	98.490455
2928.000000	98.491346
2927.000000	98.490067
2926.000000	98.490444
2925.000000	98.493483
2924.000000	98.497671
2923.000000	98.500946
2922.000000	98.501716
2921.000000	98.498176
2920.000000	98.487996
2919.000000	98.470283
2918.000000	98.447917
2917.000000	98.426409
2916.000000	98.409306
2915.000000	98.395630
2914.000000	98.382760
2913.000000	98.370720
2912.000000	98.362097
2911.000000	98.358173
2910.000000	98.356929
2909.000000	98.355164
2908.000000	98.351380
2907.000000	98.346320
2906.000000	98.341929
2905.000000	98.340167
2904.000000	98.341366
2903.000000	98.342864
2902.000000	98.340509
2901.000000	98.332860
2900.000000	98.323200
2899.000000	98.316451
2898.000000	98.314688
2897.000000	98.316443
2896.000000	98.319228
2895.000000	98.321123
2894.000000	98.320497
2893.000000	98.316518
2892.000000	98.310601
2891.000000	98.305745
2890.000000	98.303414
2889.000000	98.302045
2888.000000	98.299497
2887.000000	98.296052
2886.000000	98.293828
2885.000000	98.293838
2884.000000	98.294941
2883.000000	98.295536
2882.000000	98.295177
2881.000000	98.294374
2880.000000	98.293695
2879.000000	98.293553
2878.000000	98.294360
2877.000000	98.296393
2876.000000	98.299593
2875.000000	98.303615
2874.000000	98.307776
2873.000000	98.310898
2872.000000	98.311738
2871.000000	98.310217
2870.000000	98.308307
2869.000000	98.309326
2868.000000	98.315684
2867.000000	98.326653
2866.000000	98.338153
2865.000000	98.345472
2864.000000	98.347134
2863.000000	98.346112
2862.000000	98.346961
2861.000000	98.351897
2860.000000	98.360068
2859.000000	98.369949
2858.000000	98.380987
2857.000000	98.392663
2856.000000	98.403359
2855.000000	98.411131
2854.000000	98.414901
2853.000000	98.414352
2852.000000	98.409581
2851.000000	98.401640
2850.000000	98.392503
2849.000000	98.383186
2848.000000	98.372373
2847.000000	98.358217
2846.000000	98.341405
2845.000000	98.325274
2844.000000	98.312686
2843.000000	98.303857
2842.000000	98.297498
2841.000000	98.292982
2840.000000	98.290622
2839.000000	98.290297
2838.000000	98.290588
2837.000000	98.289463
2836.000000	98.285837
2835.000000	98.280607
2834.000000	98.276092
2833.000000	98.274243
2832.000000	98.275438
2831.000000	98.278955
2830.000000	98.283832
2829.000000	98.288534
2828.000000	98.290503
2827.000000	98.287647
2826.000000	98.280736
2825.000000	98.273394
2824.000000	98.269132
2823.000000	98.268847
2822.000000	98.271282
2821.000000	98.274860
2820.000000	98.278606
2819.000000	98.281975
2818.000000	98.284542
2817.000000	98.285813
2816.000000	98.285243
2815.000000	98.282837
2814.000000	98.279666
2813.000000	98.277068
2812.000000	98.275218
2811.000000	98.273326
2810.000000	98.271338
2809.000000	98.270303
2808.000000	98.270574
2807.000000	98.270720
2806.000000	98.269316
2805.000000	98.267246
2804.000000	98.267009
2803.000000	98.269743
2802.000000	98.273977
2801.000000	98.277388
2800.000000	98.279116
2799.000000	98.279915
2798.000000	98.280735
2797.000000	98.281846
2796.000000	98.283026
2795.000000	98.284054
2794.000000	98.284991
2793.000000	98.286213
2792.000000	98.288062
2791.000000	98.290252
2790.000000	98.291737
2789.000000	98.291524
2788.000000	98.289712
2787.000000	98.287636
2786.000000	98.286775
2785.000000	98.287501
2784.000000	98.289064
2783.000000	98.290688
2782.000000	98.292391
2781.000000	98.294547
2780.000000	98.296925
2779.000000	98.298579
2778.000000	98.298721
2777.000000	98.297450
2776.000000	98.295562
2775.000000	98.293810
2774.000000	98.292441
2773.000000	98.291393
2772.000000	98.290734
2771.000000	98.290740
2770.000000	98.291477
2769.000000	98.292439
2768.000000	98.292954
2767.000000	98.293080
2766.000000	98.293734
2765.000000	98.295625
2764.000000	98.298320
2763.000000	98.300640
2762.000000	98.301905
2761.000000	98.302321
2760.000000	98.302240
2759.000000	98.301619
2758.000000	98.300403
2757.000000	98.299065
2756.000000	98.298328
2755.000000	98.298547
2754.000000	98.299587
2753.000000	98.301030
2752.000000	98.302333
2751.000000	98.303060
2750.000000	98.303202
2749.000000	98.303195
2748.000000	98.303445
2747.000000	98.303985
2746.000000	98.304734
2745.000000	98.305784
2744.000000	98.307138
2743.000000	98.308367
2742.000000	98.308982
2741.000000	98.308998
2740.000000	98.308808
2739.000000	98.308633
2738.000000	98.308422
2737.000000	98.308297
2736.000000	98.308609
2735.000000	98.309485
2734.000000	98.310621
2733.000000	98.311592
2732.000000	98.312293
2731.000000	98.312919
2730.000000	98.313656
2729.000000	98.314519
2728.000000	98.315407
2727.000000	98.316186
2726.000000	98.316762
2725.000000	98.317149
2724.000000	98.317480
2723.000000	98.317894
2722.000000	98.318430
2721.000000	98.319025
2720.000000	98.319535
2719.000000	98.319800
2718.000000	98.319765
2717.000000	98.319628
2716.000000	98.319769
2715.000000	98.320420
2714.000000	98.321464
2713.000000	98.322560
2712.000000	98.323457
2711.000000	98.324126
2710.000000	98.324672
2709.000000	98.325227
2708.000000	98.325878
2707.000000	98.326585
2706.000000	98.327148
2705.000000	98.327343
2704.000000	98.327108
2703.000000	98.326642
2702.000000	98.326349
2701.000000	98.326604
2700.000000	98.327440
2699.000000	98.328403
2698.000000	98.328863
2697.000000	98.328616
2696.000000	98.328087
2695.000000	98.327893
2694.000000	98.328221
2693.000000	98.328813
2692.000000	98.329462
2691.000000	98.330321
2690.000000	98.331633
2689.000000	98.333283
2688.000000	98.334705
2687.000000	98.335314
2686.000000	98.334932
2685.000000	98.333836
2684.000000	98.332533
2683.000000	98.331429
2682.000000	98.330689
2681.000000	98.330318
2680.000000	98.330265
2679.000000	98.330489
2678.000000	98.330987
2677.000000	98.331747
2676.000000	98.332587
2675.000000	98.333113
2674.000000	98.333019
2673.000000	98.332472
2672.000000	98.332075
2671.000000	98.332311
2670.000000	98.333096
2669.000000	98.333931
2668.000000	98.334404
2667.000000	98.334503
2666.000000	98.334547
2665.000000	98.334879
2664.000000	98.335519
2663.000000	98.336079
2662.000000	98.336161
2661.000000	98.335887
2660.000000	98.335759
2659.000000	98.335880
2658.000000	98.335676
2657.000000	98.334719
2656.000000	98.333521
2655.000000	98.333034
2654.000000	98.333457
2653.000000	98.334092
2652.000000	98.334343
2651.000000	98.334277
2650.000000	98.333962
2649.000000	98.332934
2648.000000	98.330967
2647.000000	98.329097
2646.000000	98.329023
2645.000000	98.331386
2644.000000	98.335106
2643.000000	98.338498
2642.000000	98.340917
2641.000000	98.342648
2640.000000	98.343677
2639.000000	98.343510
2638.000000	98.342261
2637.000000	98.341024
2636.000000	98.340602
2635.000000	98.340437
2634.000000	98.339466
2633.000000	98.337544
2632.000000	98.335367
2631.000000	98.333351
2630.000000	98.331454
2629.000000	98.330050
2628.000000	98.329984
2627.000000	98.331347
2626.000000	98.332871
2625.000000	98.333178
2624.000000	98.332358
2623.000000	98.331696
2622.000000	98.331993
2621.000000	98.332699
2620.000000	98.332758
2619.000000	98.331918
2618.000000	98.330957
2617.000000	98.330792
2616.000000	98.331556
2615.000000	98.332513
2614.000000	98.332850
2613.000000	98.332504
2612.000000	98.332119
2611.000000	98.332150
2610.000000	98.332262
2609.000000	98.331793
2608.000000	98.330685
2607.000000	98.329623
2606.000000	98.329243
2605.000000	98.329503
2604.000000	98.330022
2603.000000	98.330792
2602.000000	98.332172
2601.000000	98.334221
2600.000000	98.336308
2599.000000	98.337535
2598.000000	98.337536
2597.000000	98.336677
2596.000000	98.335680
2595.000000	98.335080
2594.000000	98.334966
2593.000000	98.335056
2592.000000	98.334894
2591.000000	98.334165
2590.000000	98.333003
2589.000000	98.331987
2588.000000	98.331652
2587.000000	98.331991
2586.000000	98.332487
2585.000000	98.332628
2584.000000	98.332379
2583.000000	98.332146
2582.000000	98.332418
2581.000000	98.333423
2580.000000	98.334957
2579.000000	98.336400
2578.000000	98.337075
2577.000000	98.336718
2576.000000	98.335607
2575.000000	98.334320
2574.000000	98.333382
2573.000000	98.333074
2572.000000	98.333420
2571.000000	98.334162
2570.000000	98.334881
2569.000000	98.335307
2568.000000	98.335476
2567.000000	98.335534
2566.000000	98.335511
2565.000000	98.335392
2564.000000	98.335285
2563.000000	98.335361
2562.000000	98.335635
2561.000000	98.335935
2560.000000	98.336069
2559.000000	98.335918
2558.000000	98.335432
2557.000000	98.334668
2556.000000	98.333861
2555.000000	98.333302
2554.000000	98.333095
2553.000000	98.333174
2552.000000	98.333538
2551.000000	98.334323
2550.000000	98.335539
2549.000000	98.336888
2548.000000	98.337972
2547.000000	98.338654
2546.000000	98.339059
2545.000000	98.339269
2544.000000	98.339196
2543.000000	98.338835
2542.000000	98.338486
2541.000000	98.338529
2540.000000	98.338982
2539.000000	98.339478
2538.000000	98.339677
2537.000000	98.339643
2536.000000	98.339677
2535.000000	98.339914
2534.000000	98.340206
2533.000000	98.340392
2532.000000	98.340492
2531.000000	98.340636
2530.000000	98.340900
2529.000000	98.341249
2528.000000	98.341606
2527.000000	98.341922
2526.000000	98.342184
2525.000000	98.342413
2524.000000	98.342636
2523.000000	98.342875
2522.000000	98.343129
2521.000000	98.343384
2520.000000	98.343634
2519.000000	98.343878
2518.000000	98.344117
2517.000000	98.344349
2516.000000	98.344575
2515.000000	98.344797
2514.000000	98.345021
2513.000000	98.345249
2512.000000	98.345479
2511.000000	98.345705
2510.000000	98.345923
2509.000000	98.346133
2508.000000	98.346340
2507.000000	98.346547
2506.000000	98.346760
2505.000000	98.346980
2504.000000	98.347207
2503.000000	98.347438
2502.000000	98.347669
2501.000000	98.347895
2500.000000	98.348116
2499.000000	98.348325
2498.000000	98.348524
2497.000000	98.348725
2496.000000	98.348953
2495.000000	98.349224
2494.000000	98.349525
2493.000000	98.349814
2492.000000	98.350061
2491.000000	98.350276
2490.000000	98.350496
2489.000000	98.350738
2488.000000	98.350955
2487.000000	98.351077
2486.000000	98.351074
2485.000000	98.351022
2484.000000	98.351083
2483.000000	98.351381
2482.000000	98.351905
2481.000000	98.352486
2480.000000	98.352928
2479.000000	98.353165
2478.000000	98.353289
2477.000000	98.353435
2476.000000	98.353631
2475.000000	98.353795
2474.000000	98.353878
2473.000000	98.353977
2472.000000	98.354257
2471.000000	98.354791
2470.000000	98.355487
2469.000000	98.356176
2468.000000	98.356769
2467.000000	98.357302
2466.000000	98.357823
2465.000000	98.358262
2464.000000	98.358456
2463.000000	98.358355
2462.000000	98.358101
2461.000000	98.357876
2460.000000	98.357721
2459.000000	98.357572
2458.000000	98.357392
2457.000000	98.357213
2456.000000	98.357097
2455.000000	98.357169
2454.000000	98.357618
2453.000000	98.358454
2452.000000	98.359345
2451.000000	98.359907
2450.000000	98.360177
2449.000000	98.360584
2448.000000	98.361344
2447.000000	98.362079
2446.000000	98.362252
2445.000000	98.361790
2444.000000	98.361093
2443.000000	98.360603
2442.000000	98.360469
2441.000000	98.360695
2440.000000	98.361274
2439.000000	98.362099
2438.000000	98.362936
2437.000000	98.363596
2436.000000	98.364076
2435.000000	98.364435
2434.000000	98.364636
2433.000000	98.364632
2432.000000	98.364547
2431.000000	98.364615
2430.000000	98.364940
2429.000000	98.365414
2428.000000	98.365863
2427.000000	98.366227
2426.000000	98.366540
2425.000000	98.366820
2424.000000	98.367034
2423.000000	98.367175
2422.000000	98.367330
2421.000000	98.367625
2420.000000	98.368104
2419.000000	98.368678
2418.000000	98.369178
2417.000000	98.369504
2416.000000	98.369700
2415.000000	98.369909
2414.000000	98.370266
2413.000000	98.370803
2412.000000	98.371436
2411.000000	98.372020
2410.000000	98.372432
2409.000000	98.372637
2408.000000	98.372679
2407.000000	98.372657
2406.000000	98.372696
2405.000000	98.372898
2404.000000	98.373278
2403.000000	98.373722
2402.000000	98.374069
2401.000000	98.374265
2400.000000	98.374384
2399.000000	98.374519
2398.000000	98.374703
2397.000000	98.374927
2396.000000	98.375134
2395.000000	98.375176
2394.000000	98.374914
2393.000000	98.374379
2392.000000	98.373809
2391.000000	98.373454
2390.000000	98.373395
2389.000000	98.373580
2388.000000	98.373926
2387.000000	98.374315
2386.000000	98.374579
2385.000000	98.374569
2384.000000	98.374290
2383.000000	98.373862
2382.000000	98.373406
2381.000000	98.373011
2380.000000	98.372743
2379.000000	98.372610
2378.000000	98.372523
2377.000000	98.372362
2376.000000	98.372094
2375.000000	98.371783
2374.000000	98.371491
2373.000000	98.371227
2372.000000	98.370980
2371.000000	98.370745
2370.000000	98.370507
2369.000000	98.370230
2368.000000	98.369893
2367.000000	98.369517
2366.000000	98.369134
2365.000000	98.368761
2364.000000	98.368390
2363.000000	98.368011
2362.000000	98.367622
2361.000000	98.367223
2360.000000	98.366818
2359.000000	98.366416
2358.000000	98.366022
2357.000000	98.365639
2356.000000	98.365265
2355.000000	98.364902
2354.000000	98.364554
2353.000000	98.364229
2352.000000	98.363927
2351.000000	98.363643
2350.000000	98.363367
2349.000000	98.363094
2348.000000	98.362823
2347.000000	98.362556
2346.000000	98.362295
2345.000000	98.362041
2344.000000	98.361793
2343.000000	98.361548
2342.000000	98.361309
2341.000000	98.361082
2340.000000	98.360875
2339.000000	98.360692
2338.000000	98.360527
2337.000000	98.360372
2336.000000	98.360225
2335.000000	98.360091
2334.000000	98.359978
2333.000000	98.359889
2332.000000	98.359818
2331.000000	98.359758
2330.000000	98.359705
2329.000000	98.359660
2328.000000	98.359628
2327.000000	98.359615
2326.000000	98.359631
2325.000000	98.359679
2324.000000	98.359747
2323.000000	98.359799
2322.000000	98.359796
2321.000000	98.359730
2320.000000	98.359667
2319.000000	98.359707
2318.000000	98.359881
2317.000000	98.360129
2316.000000	98.360353
2315.000000	98.360609
2314.000000	98.360969
2313.000000	98.361479
2312.000000	98.361966
2311.000000	98.362324
2310.000000	98.362486
2309.000000	98.362581
2308.000000	98.362636
2307.000000	98.362660
2306.000000	98.362527
2305.000000	98.362232
2304.000000	98.361892
2303.000000	98.361807
2302.000000	98.362085
2301.000000	98.362545
2300.000000	98.362787
2299.000000	98.362720
2298.000000	98.362560
2297.000000	98.362570
2296.000000	98.362667
2295.000000	98.362678
2294.000000	98.362569
2293.000000	98.362518
2292.000000	98.362645
2291.000000	98.362916
2290.000000	98.363183
2289.000000	98.363328
2288.000000	98.363348
2287.000000	98.363351
2286.000000	98.363448
2285.000000	98.363570
2284.000000	98.363510
2283.000000	98.363166
2282.000000	98.362674
2281.000000	98.362274
2280.000000	98.362076
2279.000000	98.362011
2278.000000	98.361953
2277.000000	98.361818
2276.000000	98.361560
2275.000000	98.361148
2274.000000	98.360659
2273.000000	98.360326
2272.000000	98.360358
2271.000000	98.360693
2270.000000	98.360953
2269.000000	98.360824
2268.000000	98.360335
2267.000000	98.359771
2266.000000	98.359322
2265.000000	98.358931
2264.000000	98.358544
2263.000000	98.358360
2262.000000	98.358657
2261.000000	98.359360
2260.000000	98.359910
2259.000000	98.359726
2258.000000	98.358757
2257.000000	98.357502
2256.000000	98.356557
2255.000000	98.356173
2254.000000	98.356291
2253.000000	98.356759
2252.000000	98.357385
2251.000000	98.357914
2250.000000	98.358120
2249.000000	98.358022
2248.000000	98.357843
2247.000000	98.357800
2246.000000	98.357890
2245.000000	98.357878
2244.000000	98.357375
2243.000000	98.355982
2242.000000	98.353531
2241.000000	98.350389
2240.000000	98.347468
2239.000000	98.345646
2238.000000	98.345084
2237.000000	98.345189
2236.000000	98.345342
2235.000000	98.345643
2234.000000	98.346552
2233.000000	98.347927
2232.000000	98.348911
2231.000000	98.348927
2230.000000	98.348474
2229.000000	98.348575
2228.000000	98.349616
2227.000000	98.351072
2226.000000	98.352211
2225.000000	98.352724
2224.000000	98.352642
2223.000000	98.352068
2222.000000	98.351215
2221.000000	98.350435
2220.000000	98.349973
2219.000000	98.349838
2218.000000	98.350003
2217.000000	98.350504
2216.000000	98.351164
2215.000000	98.351472
2214.000000	98.351079
2213.000000	98.350326
2212.000000	98.350010
2211.000000	98.350523
2210.000000	98.351419
2209.000000	98.351882
2208.000000	98.351544
2207.000000	98.350699
2206.000000	98.349928
2205.000000	98.349635
2204.000000	98.349898
2203.000000	98.350600
2202.000000	98.351553
2201.000000	98.352536
2200.000000	98.353333
2199.000000	98.353801
2198.000000	98.353917
2197.000000	98.353724
2196.000000	98.353223
2195.000000	98.352401
2194.000000	98.351402
2193.000000	98.350640
2192.000000	98.350530
2191.000000	98.351075
2190.000000	98.351756
2189.000000	98.352015
2188.000000	98.351861
2187.000000	98.351769
2186.000000	98.352008
2185.000000	98.352327
2184.000000	98.352403
2183.000000	98.352251
2182.000000	98.351998
2181.000000	98.351555
2180.000000	98.350817
2179.000000	98.350000
2178.000000	98.349446
2177.000000	98.349141
2176.000000	98.348749
2175.000000	98.348089
2174.000000	98.347303
2173.000000	98.346570
2172.000000	98.346011
2171.000000	98.345882
2170.000000	98.346421
2169.000000	98.347418
2168.000000	98.348299
2167.000000	98.348793
2166.000000	98.349185
2165.000000	98.349738
2164.000000	98.350224
2163.000000	98.350254
2162.000000	98.349829
2161.000000	98.349317
2160.000000	98.349024
2159.000000	98.348957
2158.000000	98.349002
2157.000000	98.349102
2156.000000	98.349261
2155.000000	98.349479
2154.000000	98.349724
2153.000000	98.349920
2152.000000	98.349989
2151.000000	98.349929
2150.000000	98.349837
2149.000000	98.349831
2148.000000	98.349953
2147.000000	98.350177
2146.000000	98.350459
2145.000000	98.350756
2144.000000	98.351009
2143.000000	98.351183
2142.000000	98.351295
2141.000000	98.351399
2140.000000	98.351529
2139.000000	98.351685
2138.000000	98.351851
2137.000000	98.352023
2136.000000	98.352198
2135.000000	98.352378
2134.000000	98.352564
2133.000000	98.352761
2132.000000	98.352971
2131.000000	98.353195
2130.000000	98.353427
2129.000000	98.353660
2128.000000	98.353887
2127.000000	98.354110
2126.000000	98.354334
2125.000000	98.354566
2124.000000	98.354808
2123.000000	98.355059
2122.000000	98.355316
2121.000000	98.355577
2120.000000	98.355836
2119.000000	98.356087
2118.000000	98.356326
2117.000000	98.356556
2116.000000	98.356782
2115.000000	98.357010
2114.000000	98.357246
2113.000000	98.357497
2112.000000	98.357769
2111.000000	98.358067
2110.000000	98.358398
2109.000000	98.358749
2108.000000	98.359086
2107.000000	98.359382
2106.000000	98.359630
2105.000000	98.359835
2104.000000	98.360026
2103.000000	98.360276
2102.000000	98.360637
2101.000000	98.361026
2100.000000	98.361257
2099.000000	98.361229
2098.000000	98.361084
2097.000000	98.361108
2096.000000	98.361491
2095.000000	98.362198
2094.000000	98.363035
2093.000000	98.363772
2092.000000	98.364247
2091.000000	98.364448
2090.000000	98.364493
2089.000000	98.364505
2088.000000	98.364555
2087.000000	98.364739
2086.000000	98.365160
2085.000000	98.365691
2084.000000	98.365916
2083.000000	98.365525
2082.000000	98.364693
2081.000000	98.363897
2080.000000	98.363348
2079.000000	98.362937
2078.000000	98.362702
2077.000000	98.362947
2076.000000	98.363769
2075.000000	98.364728
2074.000000	98.365287
2073.000000	98.365452
2072.000000	98.365729
2071.000000	98.366475
2070.000000	98.367420
2069.000000	98.367854
2068.000000	98.367247
2067.000000	98.365643
2066.000000	98.363643
2065.000000	98.361992
2064.000000	98.361006
2063.000000	98.360465
2062.000000	98.359978
2061.000000	98.359339
2060.000000	98.358547
2059.000000	98.357685
2058.000000	98.356929
2057.000000	98.356565
2056.000000	98.356762
2055.000000	98.357294
2054.000000	98.357572
2053.000000	98.357132
2052.000000	98.356051
2051.000000	98.354875
2050.000000	98.354096
2049.000000	98.353684
2048.000000	98.353213
2047.000000	98.352376
2046.000000	98.351269
2045.000000	98.350210
2044.000000	98.349425
2043.000000	98.348942
2042.000000	98.348673
2041.000000	98.348398
2040.000000	98.347790
2039.000000	98.346652
2038.000000	98.345126
2037.000000	98.343647
2036.000000	98.342526
2035.000000	98.341691
2034.000000	98.340889
2033.000000	98.340024
2032.000000	98.339232
2031.000000	98.338638
2030.000000	98.338197
2029.000000	98.337753
2028.000000	98.337152
2027.000000	98.336325
2026.000000	98.335342
2025.000000	98.334386
2024.000000	98.333607
2023.000000	98.332996
2022.000000	98.332487
2021.000000	98.332127
2020.000000	98.331973
2019.000000	98.331869
2018.000000	98.331564
2017.000000	98.331084
2016.000000	98.330748
2015.000000	98.330666
2014.000000	98.330438
2013.000000	98.329581
2012.000000	98.328071
2011.000000	98.326373
2010.000000	98.325046
2009.000000	98.324339
2008.000000	98.324028
2007.000000	98.323582
2006.000000	98.322664
2005.000000	98.321546
2004.000000	98.320850
2003.000000	98.320799
2002.000000	98.320861
2001.000000	98.320306
2000.000000	98.318991
1999.000000	98.317494
1998.000000	98.316579
1997.000000	98.316500
1996.000000	98.316825
1995.000000	98.316915
1994.000000	98.316564
1993.000000	98.316020
1992.000000	98.315538
1991.000000	98.315192
1990.000000	98.315146
1989.000000	98.315751
1988.000000	98.317145
1987.000000	98.318925
1986.000000	98.320425
1985.000000	98.321299
1984.000000	98.321611
1983.000000	98.321393
1982.000000	98.320399
1981.000000	98.318446
1980.000000	98.315796
1979.000000	98.313186
1978.000000	98.311479
1977.000000	98.311143
1976.000000	98.312011
1975.000000	98.313431
1974.000000	98.314692
1973.000000	98.315442
1972.000000	98.315731
1971.000000	98.315765
1970.000000	98.315646
1969.000000	98.315362
1968.000000	98.315002
1967.000000	98.314884
1966.000000	98.315263
1965.000000	98.315932
1964.000000	98.316347
1963.000000	98.316193
1962.000000	98.315672
1961.000000	98.315177
1960.000000	98.314842
1959.000000	98.314554
1958.000000	98.314273
1957.000000	98.314092
1956.000000	98.314003
1955.000000	98.313826
1954.000000	98.313422
1953.000000	98.312837
1952.000000	98.312246
1951.000000	98.311832
1950.000000	98.311686
1949.000000	98.311767
1948.000000	98.311858
1947.000000	98.311671
1946.000000	98.311078
1945.000000	98.310202
1944.000000	98.309339
1943.000000	98.308731
1942.000000	98.308432
1941.000000	98.308323
1940.000000	98.308191
1939.000000	98.307876
1938.000000	98.307403
1937.000000	98.306937
1936.000000	98.306545
1935.000000	98.306051
1934.000000	98.305262
1933.000000	98.304228
1932.000000	98.303239
1931.000000	98.302493
1930.000000	98.301887
1929.000000	98.301238
1928.000000	98.300492
1927.000000	98.299731
1926.000000	98.299021
1925.000000	98.298349
1924.000000	98.297644
1923.000000	98.296811
1922.000000	98.295925
1921.000000	98.295241
1920.000000	98.294749
1919.000000	98.293898
1918.000000	98.292083
1917.000000	98.289573
1916.000000	98.287409
1915.000000	98.286082
1914.000000	98.285221
1913.000000	98.284340
1912.000000	98.283339
1911.000000	98.282203
1910.000000	98.280637
1909.000000	98.278474
1908.000000	98.276110
1907.000000	98.274267
1906.000000	98.273279
1905.000000	98.272799
1904.000000	98.272129
1903.000000	98.270613
1902.000000	98.268200
1901.000000	98.265706
1900.000000	98.264041
1899.000000	98.263246
1898.000000	98.262473
1897.000000	98.260783
1896.000000	98.257873
1895.000000	98.254194
1894.000000	98.250931
1893.000000	98.249458
1892.000000	98.250161
1891.000000	98.251776
1890.000000	98.252263
1889.000000	98.250949
1888.000000	98.249136
1887.000000	98.248055
1886.000000	98.247521
1885.000000	98.246798
1884.000000	98.245543
1883.000000	98.243583
1882.000000	98.240766
1881.000000	98.237611
1880.000000	98.235361
1879.000000	98.235041
1878.000000	98.236688
1877.000000	98.239420
1876.000000	98.242115
1875.000000	98.243883
1874.000000	98.244255
1873.000000	98.243522
1872.000000	98.242591
1871.000000	98.242107
1870.000000	98.241815
1869.000000	98.241010
1868.000000	98.239932
1867.000000	98.239765
1866.000000	98.241099
1865.000000	98.243463
1864.000000	98.245813
1863.000000	98.247134
1862.000000	98.247138
1861.000000	98.246551
1860.000000	98.246433
1859.000000	98.247329
1858.000000	98.249386
1857.000000	98.252749
1856.000000	98.257020
1855.000000	98.260799
1854.000000	98.262697
1853.000000	98.262912
1852.000000	98.262790
1851.000000	98.263276
1850.000000	98.264420
1849.000000	98.265729
1848.000000	98.266701
1847.000000	98.267253
1846.000000	98.268201
1845.000000	98.270783
1844.000000	98.274806
1843.000000	98.278281
1842.000000	98.279742
1841.000000	98.279500
1840.000000	98.278667
1839.000000	98.278081
1838.000000	98.277967
1837.000000	98.278370
1836.000000	98.279187
1835.000000	98.279720
1834.000000	98.279255
1833.000000	98.278070
1832.000000	98.277311
1831.000000	98.277939
1830.000000	98.279661
1829.000000	98.281201
1828.000000	98.281928
1827.000000	98.282162
1826.000000	98.282356
1825.000000	98.282550
1824.000000	98.282613
1823.000000	98.282646
1822.000000	98.282837
1821.000000	98.283279
1820.000000	98.283927
1819.000000	98.284549
1818.000000	98.284696
1817.000000	98.284130
1816.000000	98.283345
1815.000000	98.283101
1814.000000	98.283603
1813.000000	98.284185
1812.000000	98.283894
1811.000000	98.282418
1810.000000	98.280367
1809.000000	98.279180
1808.000000	98.280145
1807.000000	98.282824
1806.000000	98.285091
1805.000000	98.285339
1804.000000	98.284195
1803.000000	98.283437
1802.000000	98.284186
1801.000000	98.286166
1800.000000	98.288506
1799.000000	98.290564
1798.000000	98.291897
1797.000000	98.292737
1796.000000	98.293604
1795.000000	98.293925
1794.000000	98.292336
1793.000000	98.288354
1792.000000	98.283834
1791.000000	98.281640
1790.000000	98.282366
1789.000000	98.284975
1788.000000	98.288731
1787.000000	98.292554
1786.000000	98.294510
1785.000000	98.294087
1784.000000	98.293667
1783.000000	98.294866
1782.000000	98.296740
1781.000000	98.297854
1780.000000	98.298586
1779.000000	98.300477
1778.000000	98.303150
1777.000000	98.304998
1776.000000	98.305060
1775.000000	98.303624
1774.000000	98.302118
1773.000000	98.302099
1772.000000	98.304577
1771.000000	98.310865
1770.000000	98.319962
1769.000000	98.328419
1768.000000	98.334680
1767.000000	98.339960
1766.000000	98.345271
1765.000000	98.349259
1764.000000	98.350452
1763.000000	98.349492
1762.000000	98.348438
1761.000000	98.348772
1760.000000	98.351410
1759.000000	98.357054
1758.000000	98.366522
1757.000000	98.379858
1756.000000	98.394186
1755.000000	98.406607
1754.000000	98.416904
1753.000000	98.427011
1752.000000	98.438917
1751.000000	98.452342
1750.000000	98.464275
1749.000000	98.471938
1748.000000	98.475795
1747.000000	98.479298
1746.000000	98.486005
1745.000000	98.495238
1744.000000	98.502893
1743.000000	98.506131
1742.000000	98.504924
1741.000000	98.499676
1740.000000	98.490259
1739.000000	98.477785
1738.000000	98.464418
1737.000000	98.450108
1736.000000	98.434578
1735.000000	98.420279
1734.000000	98.408507
1733.000000	98.398850
1732.000000	98.389845
1731.000000	98.379888
1730.000000	98.370855
1729.000000	98.366142
1728.000000	98.365530
1727.000000	98.365644
1726.000000	98.364091
1725.000000	98.360115
1724.000000	98.354212
1723.000000	98.347759
1722.000000	98.341799
1721.000000	98.337169
1720.000000	98.335198
1719.000000	98.336851
1718.000000	98.337675
1717.000000	98.330491
1716.000000	98.318114
1715.000000	98.308028
1714.000000	98.302337
1713.000000	98.299857
1712.000000	98.299101
1711.000000	98.298571
1710.000000	98.297755
1709.000000	98.297503
1708.000000	98.298400
1707.000000	98.299855
1706.000000	98.300663
1705.000000	98.300591
1704.000000	98.300642
1703.000000	98.300151
1702.000000	98.298210
1701.000000	98.295477
1700.000000	98.293110
1699.000000	98.293328
1698.000000	98.293850
1697.000000	98.291039
1696.000000	98.284741
1695.000000	98.278068
1694.000000	98.274084
1693.000000	98.272458
1692.000000	98.271800
1691.000000	98.271346
1690.000000	98.270747
1689.000000	98.270090
1688.000000	98.269432
1687.000000	98.268682
1686.000000	98.268123
1685.000000	98.267843
1684.000000	98.266473
1683.000000	98.264081
1682.000000	98.261980
1681.000000	98.260341
1680.000000	98.259046
1679.000000	98.258140
1678.000000	98.257465
1677.000000	98.256861
1676.000000	98.256240
1675.000000	98.255399
1674.000000	98.254395
1673.000000	98.253280
1672.000000	98.252010
1671.000000	98.250632
1670.000000	98.249107
1669.000000	98.247427
1668.000000	98.245831
1667.000000	98.244602
1666.000000	98.243859
1665.000000	98.243561
1664.000000	98.243528
1663.000000	98.243177
1662.000000	98.241974
1661.000000	98.240391
1660.000000	98.239230
1659.000000	98.238708
1658.000000	98.238262
1657.000000	98.236731
1656.000000	98.233196
1655.000000	98.228879
1654.000000	98.227000
1653.000000	98.226927
1652.000000	98.227386
1651.000000	98.228956
1650.000000	98.230644
1649.000000	98.232139
1648.000000	98.234621
1647.000000	98.237082
1646.000000	98.236520
1645.000000	98.232844
1644.000000	98.228452
1643.000000	98.225086
1642.000000	98.223376
1641.000000	98.223008
1640.000000	98.222771
1639.000000	98.221950
1638.000000	98.221035
1637.000000	98.221275
1636.000000	98.222132
1635.000000	98.221758
1634.000000	98.221062
1633.000000	98.220635
1632.000000	98.219843
1631.000000	98.218297
1630.000000	98.216203
1629.000000	98.214319
1628.000000	98.213648
1627.000000	98.214618
1626.000000	98.216916
1625.000000	98.219900
1624.000000	98.222926
1623.000000	98.225258
1622.000000	98.226913
1621.000000	98.228486
1620.000000	98.229914
1619.000000	98.232050
1618.000000	98.236631
1617.000000	98.242678
1616.000000	98.246142
1615.000000	98.246401
1614.000000	98.246227
1613.000000	98.247184
1612.000000	98.249151
1611.000000	98.251813
1610.000000	98.255976
1609.000000	98.262453
1608.000000	98.269736
1607.000000	98.275153
1606.000000	98.278548
1605.000000	98.281944
1604.000000	98.286140
1603.000000	98.290323
1602.000000	98.293811
1601.000000	98.296694
1600.000000	98.299194
1599.000000	98.301761
1598.000000	98.305442
1597.000000	98.310769
1596.000000	98.316637
1595.000000	98.321139
1594.000000	98.323725
1593.000000	98.325728
1592.000000	98.328451
1591.000000	98.331666
1590.000000	98.334404
1589.000000	98.336363
1588.000000	98.337895
1587.000000	98.339284
1586.000000	98.340711
1585.000000	98.342826
1584.000000	98.346279
1583.000000	98.351147
1582.000000	98.356870
1581.000000	98.362179
1580.000000	98.365618
1579.000000	98.366744
1578.000000	98.366760
1577.000000	98.367582
1576.000000	98.370063
1575.000000	98.373984
1574.000000	98.378932
1573.000000	98.383926
1572.000000	98.388117
1571.000000	98.391480
1570.000000	98.394072
1569.000000	98.395814
1568.000000	98.396576
1567.000000	98.396598
1566.000000	98.396904
1565.000000	98.398438
1564.000000	98.400286
1563.000000	98.400713
1562.000000	98.399057
1561.000000	98.397649
1560.000000	98.400068
1559.000000	98.405030
1558.000000	98.408383
1557.000000	98.411381
1556.000000	98.413913
1555.000000	98.414902
1554.000000	98.414977
1553.000000	98.414757
1552.000000	98.414228
1551.000000	98.413347
1550.000000	98.412413
1549.000000	98.411808
1548.000000	98.411688
1547.000000	98.411856
1546.000000	98.412143
1545.000000	98.412039
1544.000000	98.410661
1543.000000	98.408062
1542.000000	98.405711
1541.000000	98.405262
1540.000000	98.406496
1539.000000	98.407605
1538.000000	98.408116
1537.000000	98.408253
1536.000000	98.408137
1535.000000	98.407926
1534.000000	98.407305
1533.000000	98.405601
1532.000000	98.403255
1531.000000	98.401323
1530.000000	98.400151
1529.000000	98.399721
1528.000000	98.399912
1527.000000	98.400245
1526.000000	98.400022
1525.000000	98.398858
1524.000000	98.397047
1523.000000	98.395521
1522.000000	98.395203
1521.000000	98.396056
1520.000000	98.397221
1519.000000	98.397964
1518.000000	98.397975
1517.000000	98.396969
1516.000000	98.394983
1515.000000	98.392826
1514.000000	98.391414
1513.000000	98.391067
1512.000000	98.391546
1511.000000	98.392291
1510.000000	98.392894
1509.000000	98.393625
1508.000000	98.395075
1507.000000	98.396476
1506.000000	98.396330
1505.000000	98.396083
1504.000000	98.397021
1503.000000	98.398524
1502.000000	98.399755
1501.000000	98.400202
1500.000000	98.400183
1499.000000	98.401061
1498.000000	98.404140
1497.000000	98.408323
1496.000000	98.410891
1495.000000	98.410826
1494.000000	98.408954
1493.000000	98.406058
1492.000000	98.402896
1491.000000	98.401015
1490.000000	98.402086
1489.000000	98.405961
1488.000000	98.410631
1487.000000	98.414080
1486.000000	98.415840
1485.000000	98.417520
1484.000000	98.420333
1483.000000	98.423512
1482.000000	98.425459
1481.000000	98.425457
1480.000000	98.424563
1479.000000	98.424396
1478.000000	98.426177
1477.000000	98.430620
1476.000000	98.437573
1475.000000	98.445278
1474.000000	98.451352
1473.000000	98.454409
1472.000000	98.455702
1471.000000	98.458556
1470.000000	98.463915
1469.000000	98.470284
1468.000000	98.476426
1467.000000	98.481298
1466.000000	98.483224
1465.000000	98.480977
1464.000000	98.476251
1463.000000	98.472897
1462.000000	98.472012
1461.000000	98.472103
1460.000000	98.472429
1459.000000	98.474269
1458.000000	98.478078
1457.000000	98.479392
1456.000000	98.476446
1455.000000	98.474530
1454.000000	98.476179
1453.000000	98.479254
1452.000000	98.480937
1451.000000	98.479874
1450.000000	98.476774
1449.000000	98.473136
1448.000000	98.470608
1447.000000	98.469858
1446.000000	98.470028
1445.000000	98.469347
1444.000000	98.467128
1443.000000	98.465163
1442.000000	98.465097
1441.000000	98.465655
1440.000000	98.463878
1439.000000	98.458940
1438.000000	98.453094
1437.000000	98.449112
1436.000000	98.447865
1435.000000	98.448749
1434.000000	98.450237
1433.000000	98.450806
1432.000000	98.450010
1431.000000	98.448467
1430.000000	98.447215
1429.000000	98.446595
1428.000000	98.446319
1427.000000	98.445912
1426.000000	98.445457
1425.000000	98.445551
1424.000000	98.446367
1423.000000	98.447786
1422.000000	98.449192
1421.000000	98.449598
1420.000000	98.448264
1419.000000	98.445937
1418.000000	98.444791
1417.000000	98.445309
1416.000000	98.445983
1415.000000	98.446071
1414.000000	98.446092
1413.000000	98.446485
1412.000000	98.447157
1411.000000	98.448179
1410.000000	98.449610
1409.000000	98.450657
1408.000000	98.450405
1407.000000	98.449138
1406.000000	98.448544
1405.000000	98.450119
1404.000000	98.453494
1403.000000	98.457136
1402.000000	98.459855
1401.000000	98.461197
1400.000000	98.461149
1399.000000	98.460370
1398.000000	98.460240
1397.000000	98.461535
1396.000000	98.463753
1395.000000	98.465894
1394.000000	98.467735
1393.000000	98.469663
1392.000000	98.471495
1391.000000	98.472658
1390.000000	98.473028
1389.000000	98.473133
1388.000000	98.473668
1387.000000	98.474762
1386.000000	98.475958
1385.000000	98.476821
1384.000000	98.477322
1383.000000	98.477850
1382.000000	98.478833
1381.000000	98.480310
1380.000000	98.481882
1379.000000	98.482950
1378.000000	98.483143
1377.000000	98.482544
1376.000000	98.481542
1375.000000	98.480591
1374.000000	98.480173
1373.000000	98.480660
1372.000000	98.482019
1371.000000	98.483721
1370.000000	98.485097
1369.000000	98.485830
1368.000000	98.486135
1367.000000	98.486534
1366.000000	98.487208
1365.000000	98.487805
1364.000000	98.488084
1363.000000	98.488538
1362.000000	98.489897
1361.000000	98.491954
1360.000000	98.493515
1359.000000	98.493759
1358.000000	98.493050
1357.000000	98.492303
1356.000000	98.491905
1355.000000	98.491571
1354.000000	98.491073
1353.000000	98.490628
1352.000000	98.490651
1351.000000	98.491267
1350.000000	98.492253
1349.000000	98.493212
1348.000000	98.493694
1347.000000	98.493454
1346.000000	98.492698
1345.000000	98.492044
1344.000000	98.492049
1343.000000	98.492725
1342.000000	98.493540
1341.000000	98.493850
1340.000000	98.493416
1339.000000	98.492643
1338.000000	98.492235
1337.000000	98.492438
1336.000000	98.492880
1335.000000	98.493139
1334.000000	98.493184
1333.000000	98.493238
1332.000000	98.493421
1331.000000	98.493662
1330.000000	98.493820
1329.000000	98.493773
1328.000000	98.493447
1327.000000	98.492889
1326.000000	98.492314
1325.000000	98.491997
1324.000000	98.492129
1323.000000	98.492815
1322.000000	98.493858
1321.000000	98.494510
1320.000000	98.493899
1319.000000	98.492034
1318.000000	98.490220
1317.000000	98.489846
1316.000000	98.491008
1315.000000	98.492646
1314.000000	98.493779
1313.000000	98.494315
1312.000000	98.494560
1311.000000	98.494499
1310.000000	98.493887
1309.000000	98.492749
1308.000000	98.491577
1307.000000	98.491029
1306.000000	98.491493
1305.000000	98.492724
1304.000000	98.493825
1303.000000	98.493943
1302.000000	98.493073
1301.000000	98.492067
1300.000000	98.491747
1299.000000	98.492177
1298.000000	98.492759
1297.000000	98.492671
1296.000000	98.491239
1295.000000	98.488459
1294.000000	98.485492
1293.000000	98.483976
1292.000000	98.484345
1291.000000	98.485223
1290.000000	98.485107
1289.000000	98.484228
1288.000000	98.483716
1287.000000	98.483427
1286.000000	98.482096
1285.000000	98.479555
1284.000000	98.477258
1283.000000	98.476125
1282.000000	98.474996
1281.000000	98.472006
1280.000000	98.466797
1279.000000	98.460767
1278.000000	98.455839
1277.000000	98.453581
1276.000000	98.454816
1275.000000	98.458881
1274.000000	98.463240
1273.000000	98.464815
1272.000000	98.462486
1271.000000	98.458359
1270.000000	98.456191
1269.000000	98.457953
1268.000000	98.461841
1267.000000	98.464049
1266.000000	98.462668
1265.000000	98.459259
1264.000000	98.456370
1263.000000	98.454427
1262.000000	98.452040
1261.000000	98.448818
1260.000000	98.446262
1259.000000	98.445495
1258.000000	98.445294
1257.000000	98.443227
1256.000000	98.438326
1255.000000	98.432195
1254.000000	98.427673
1253.000000	98.426250
1252.000000	98.426190
1251.000000	98.423244
1250.000000	98.414240
1249.000000	98.400599
1248.000000	98.387756
1247.000000	98.380479
1246.000000	98.378706
1245.000000	98.377957
1244.000000	98.373310
1243.000000	98.362914
1242.000000	98.348760
1241.000000	98.334940
1240.000000	98.324622
1239.000000	98.317608
1238.000000	98.310508
1237.000000	98.299717
1236.000000	98.284500
1235.000000	98.267628
1234.000000	98.253559
1233.000000	98.245398
1232.000000	98.242034
1231.000000	98.237927
1230.000000	98.227433
1229.000000	98.210330
1228.000000	98.191745
1227.000000	98.175551
1226.000000	98.159300
1225.000000	98.137443
1224.000000	98.108121
1223.000000	98.074808
1222.000000	98.042469
1221.000000	98.014252
1220.000000	97.990674
1219.000000	97.968772
1218.000000	97.942636
1217.000000	97.908492
1216.000000	97.869697
1215.000000	97.833461
1214.000000	97.801699
1213.000000	97.768506
1212.000000	97.728099
1211.000000	97.681912
1210.000000	97.636121
1209.000000	97.594903
1208.000000	97.558082
1207.000000	97.522677
1206.000000	97.484538
1205.000000	97.440947
1204.000000	97.393871
1203.000000	97.348819
1202.000000	97.308948
1201.000000	97.272537
1200.000000	97.237248
1199.000000	97.203294
1198.000000	97.170461
1197.000000	97.136064
1196.000000	97.099266
1195.000000	97.064107
1194.000000	97.033992
1193.000000	97.005221
1192.000000	96.970273
1191.000000	96.926618
1190.000000	96.878770
1189.000000	96.832258
1188.000000	96.788795
1187.000000	96.747063
1186.000000	96.704911
1185.000000	96.660341
1184.000000	96.612657
1183.000000	96.563241
1182.000000	96.514132
1181.000000	96.466271
1180.000000	96.419937
1179.000000	96.375222
1178.000000	96.330323
1177.000000	96.281091
1176.000000	96.224813
1175.000000	96.163495
1174.000000	96.101207
1173.000000	96.039304
1172.000000	95.976827
1171.000000	95.914550
1170.000000	95.855328
1169.000000	95.800453
1168.000000	95.748475
1167.000000	95.698587
1166.000000	95.653838
1165.000000	95.620406
1164.000000	95.604183
1163.000000	95.607343
1162.000000	95.626631
1161.000000	95.654443
1160.000000	95.681754
1159.000000	95.700574
1158.000000	95.705623
1157.000000	95.695428
1156.000000	95.671568
1155.000000	95.636176
1154.000000	95.590969
1153.000000	95.539379
1152.000000	95.487392
1151.000000	95.439173
1150.000000	95.392552
1149.000000	95.342314
1148.000000	95.288213
1147.000000	95.236630
1146.000000	95.193605
1145.000000	95.158782
1144.000000	95.126491
1143.000000	95.089825
1142.000000	95.043639
1141.000000	94.987535
1140.000000	94.927605
1139.000000	94.872497
1138.000000	94.825853
1137.000000	94.784054
1136.000000	94.741465
1135.000000	94.695220
1134.000000	94.645074
1133.000000	94.592326
1132.000000	94.539963
1131.000000	94.490818
1130.000000	94.444519
1129.000000	94.398551
1128.000000	94.352096
1127.000000	94.305504
1126.000000	94.256518
1125.000000	94.201857
1124.000000	94.143389
1123.000000	94.088117
1122.000000	94.040160
1121.000000	93.996258
1120.000000	93.950596
1119.000000	93.900683
1118.000000	93.847617
1117.000000	93.794350
1116.000000	93.744622
1115.000000	93.699699
1114.000000	93.655448
1113.000000	93.606701
1112.000000	93.554659
1111.000000	93.505179
1110.000000	93.459894
1109.000000	93.414792
1108.000000	93.367902
1107.000000	93.322043
1106.000000	93.278969
1105.000000	93.237350
1104.000000	93.197692
1103.000000	93.162317
1102.000000	93.129261
1101.000000	93.093210
1100.000000	93.054290
1099.000000	93.018266
1098.000000	92.985968
1097.000000	92.950671
1096.000000	92.908788
1095.000000	92.865710
1094.000000	92.827509
1093.000000	92.794074
1092.000000	92.764113
1091.000000	92.739613
1090.000000	92.720450
1089.000000	92.700593
1088.000000	92.674561
1087.000000	92.643370
1086.000000	92.611141
1085.000000	92.580762
1084.000000	92.555293
1083.000000	92.537538
1082.000000	92.524555
1081.000000	92.508005
1080.000000	92.483445
1079.000000	92.454813
1078.000000	92.427615
1077.000000	92.402758
1076.000000	92.379071
1075.000000	92.355628
1074.000000	92.328526
1073.000000	92.291460
1072.000000	92.243034
1071.000000	92.188579
1070.000000	92.131547
1069.000000	92.067472
1068.000000	91.989515
1067.000000	91.896078
1066.000000	91.791110
1065.000000	91.681195
1064.000000	91.573962
1063.000000	91.474753
1062.000000	91.383128
1061.000000	91.296787
1060.000000	91.218638
1059.000000	91.153757
1058.000000	91.099523
1057.000000	91.046220
1056.000000	90.987877
1055.000000	90.924922
1054.000000	90.856243
1053.000000	90.778130
1052.000000	90.692915
1051.000000	90.608473
1050.000000	90.525489
1049.000000	90.435774
1048.000000	90.337026
1047.000000	90.237659
1046.000000	90.142674
1045.000000	90.045686
1044.000000	89.939471
1043.000000	89.825493
1042.000000	89.709147
1041.000000	89.593667
1040.000000	89.482702
1039.000000	89.381249
1038.000000	89.289796
1037.000000	89.204031
1036.000000	89.122842
1035.000000	89.049356
1034.000000	88.982775
1033.000000	88.918260
1032.000000	88.856722
1031.000000	88.804893
1030.000000	88.763255
1029.000000	88.723935
1028.000000	88.683522
1027.000000	88.647961
1026.000000	88.621374
1025.000000	88.599913
1024.000000	88.579881
1023.000000	88.562020
1022.000000	88.544693
1021.000000	88.523518
1020.000000	88.501612
1019.000000	88.489250
1018.000000	88.487915
1017.000000	88.484194
1016.000000	88.465149
1015.000000	88.432089
1014.000000	88.394998
1013.000000	88.361650
1012.000000	88.336326
1011.000000	88.320563
1010.000000	88.310004
1009.000000	88.297619
1008.000000	88.283715
1007.000000	88.275872
1006.000000	88.276863
1005.000000	88.280835
1004.000000	88.283486
1003.000000	88.286898
1002.000000	88.291679
1001.000000	88.294330
1000.000000	88.296285
999.000000	88.305900
998.000000	88.326558
997.000000	88.351350
996.000000	88.374156
995.000000	88.397736
994.000000	88.425724
993.000000	88.454569
992.000000	88.479400
991.000000	88.502002
990.000000	88.527745
989.000000	88.559278
988.000000	88.596920
987.000000	88.640589
986.000000	88.688865
985.000000	88.741022
984.000000	88.801352
983.000000	88.875535
982.000000	88.961288
981.000000	89.048876
980.000000	89.132550
979.000000	89.215713
978.000000	89.303881
977.000000	89.399109
976.000000	89.502102
975.000000	89.612848
974.000000	89.728145
973.000000	89.845025
972.000000	89.966846
971.000000	90.098456
970.000000	90.234816
969.000000	90.363001
968.000000	90.477503
967.000000	90.585610
966.000000	90.695359
965.000000	90.806063
964.000000	90.914048
963.000000	91.020003
962.000000	91.125388
961.000000	91.227059
960.000000	91.320973
959.000000	91.408429
958.000000	91.495177
957.000000	91.586274
956.000000	91.682995
955.000000	91.781523
954.000000	91.873637
953.000000	91.952668
952.000000	92.020401
951.000000	92.085186
950.000000	92.152471
949.000000	92.220353
948.000000	92.284383
947.000000	92.342097
946.000000	92.392549
945.000000	92.436439
944.000000	92.477726
943.000000	92.520367
942.000000	92.562491
941.000000	92.598934
940.000000	92.630478
939.000000	92.664542
938.000000	92.704373
937.000000	92.743616
936.000000	92.775618
935.000000	92.803450
934.000000	92.836393
933.000000	92.879343
932.000000	92.929285
931.000000	92.979665
930.000000	93.024736
929.000000	93.061538
928.000000	93.091242
927.000000	93.118816
926.000000	93.149752
925.000000	93.186549
924.000000	93.227537
923.000000	93.267707
922.000000	93.301718
921.000000	93.328584
920.000000	93.353001
919.000000	93.379953
918.000000	93.409121
917.000000	93.437274
916.000000	93.464710
915.000000	93.495550
914.000000	93.532429
913.000000	93.575019
912.000000	93.623188
911.000000	93.677014
910.000000	93.733788
909.000000	93.789690
908.000000	93.844976
907.000000	93.903680
906.000000	93.968575
905.000000	94.040475
904.000000	94.121562
903.000000	94.214140
902.000000	94.315687
901.000000	94.419500
900.000000	94.520824
899.000000	94.618674
898.000000	94.712106
897.000000	94.799095
896.000000	94.879414
895.000000	94.955102
894.000000	95.028209
893.000000	95.101456
892.000000	95.179918
891.000000	95.266741
890.000000	95.356619
889.000000	95.438646
888.000000	95.507441
887.000000	95.568043
886.000000	95.628689
885.000000	95.691638
884.000000	95.752427
883.000000	95.805646
882.000000	95.850245
881.000000	95.891065
880.000000	95.935337
879.000000	95.985639
878.000000	96.037267
877.000000	96.085862
876.000000	96.136081
875.000000	96.197104
874.000000	96.268858
873.000000	96.338206
872.000000	96.391204
871.000000	96.425860
870.000000	96.452379
869.000000	96.484698
868.000000	96.532400
867.000000	96.595899
866.000000	96.665946
865.000000	96.730434
864.000000	96.784412
863.000000	96.832341
862.000000	96.880143
861.000000	96.928105
860.000000	96.973429
859.000000	97.016323
858.000000	97.059725
857.000000	97.104500
856.000000	97.148641
855.000000	97.191172
854.000000	97.233574
853.000000	97.276177
852.000000	97.315166
851.000000	97.344896
850.000000	97.362943
849.000000	97.372395
848.000000	97.379671
847.000000	97.390204
846.000000	97.404938
845.000000	97.419754
844.000000	97.428547
843.000000	97.427992
842.000000	97.419930
841.000000	97.408690
840.000000	97.396125
839.000000	97.380588
838.000000	97.361174
837.000000	97.340654
836.000000	97.321844
835.000000	97.302527
834.000000	97.277932
833.000000	97.249026
832.000000	97.224681
831.000000	97.213423
830.000000	97.215532
829.000000	97.225490
828.000000	97.239022
827.000000	97.253705
826.000000	97.265403
825.000000	97.269878
824.000000	97.267713
823.000000	97.263279
822.000000	97.259089
821.000000	97.254491
820.000000	97.248126
819.000000	97.237647
818.000000	97.218893
817.000000	97.189506
816.000000	97.152074
815.000000	97.109811
814.000000	97.059734
813.000000	96.993440
812.000000	96.903408
811.000000	96.784632
810.000000	96.631991
809.000000	96.442400
808.000000	96.220339
807.000000	95.975663
806.000000	95.714434
805.000000	95.438339
804.000000	95.156312
803.000000	94.889507
802.000000	94.658537
801.000000	94.470548
800.000000	94.324165
799.000000	94.222068
798.000000	94.172328
797.000000	94.179233
796.000000	94.235637
795.000000	94.321782
794.000000	94.411946
793.000000	94.488264
792.000000	94.549895
791.000000	94.605055
790.000000	94.654439
789.000000	94.687014
788.000000	94.691505
787.000000	94.665750
786.000000	94.614100
785.000000	94.542437
784.000000	94.458363
783.000000	94.370502
782.000000	94.284077
781.000000	94.201527
780.000000	94.129783
779.000000	94.081379
778.000000	94.065295
777.000000	94.081908
776.000000	94.129303
775.000000	94.207977
774.000000	94.314820
773.000000	94.437066
772.000000	94.556451
771.000000	94.657865
770.000000	94.734647
769.000000	94.790887
768.000000	94.839559
767.000000	94.892063
766.000000	94.946062
765.000000	94.988200
764.000000	95.011588
763.000000	95.025264
762.000000	95.042782
761.000000	95.067164
760.000000	95.092985
759.000000	95.118968
758.000000	95.150967
757.000000	95.193185
756.000000	95.242072
755.000000	95.289851
754.000000	95.331635
753.000000	95.369142
752.000000	95.408841
751.000000	95.455556
750.000000	95.506886
749.000000	95.556103
748.000000	95.601759
747.000000	95.650676
746.000000	95.708411
745.000000	95.770114
744.000000	95.825691
743.000000	95.872884
742.000000	95.920499
741.000000	95.978390
740.000000	96.047904
739.000000	96.122492
738.000000	96.194318
737.000000	96.259344
736.000000	96.318552
735.000000	96.375509
734.000000	96.431364
733.000000	96.481731
732.000000	96.520216
731.000000	96.545715
730.000000	96.564047
729.000000	96.581103
728.000000	96.597188
727.000000	96.610716
726.000000	96.624686
725.000000	96.645055
724.000000	96.673379
723.000000	96.705774
722.000000	96.740112
721.000000	96.779042
720.000000	96.822534
719.000000	96.862394
718.000000	96.890745
717.000000	96.911376
716.000000	96.935365
715.000000	96.965574
714.000000	96.992946
713.000000	97.011039
712.000000	97.027374
711.000000	97.053996
710.000000	97.089632
709.000000	97.117533
708.000000	97.121442
707.000000	97.100451
706.000000	97.068218
705.000000	97.039736
704.000000	97.018144
703.000000	96.991630
702.000000	96.942957
701.000000	96.863182
700.000000	96.755562
699.000000	96.627428
698.000000	96.484168
697.000000	96.336250
696.000000	96.208227
695.000000	96.130930
694.000000	96.122034
693.000000	96.176807
692.000000	96.274634
691.000000	96.389857
690.000000	96.498635
689.000000	96.584494
688.000000	96.644072
687.000000	96.686207
686.000000	96.722502
685.000000	96.759350
684.000000	96.797927
683.000000	96.836757
682.000000	96.872382
681.000000	96.901363
680.000000	96.924648
679.000000	96.948123
678.000000	96.977279
677.000000	97.012709
676.000000	97.051437
675.000000	97.091142
674.000000	97.129380
673.000000	97.160262
672.000000	97.177382
671.000000	97.181248
670.000000	97.181909
669.000000	97.197227
668.000000	97.238450
667.000000	97.293694
666.000000	97.346252
665.000000	97.391236
664.000000	97.429402
663.000000	97.460790
662.000000	97.482362
661.000000	97.495585
660.000000	97.508559
659.000000	97.528144
658.000000	97.551802
657.000000	97.570834
656.000000	97.579661
655.000000	97.579669
654.000000	97.575273
653.000000	97.570429
652.000000	97.570096
651.000000	97.579615
650.000000	97.599581
649.000000	97.624088
648.000000	97.646385
647.000000	97.664951
646.000000	97.684342
645.000000	97.712669
644.000000	97.757894
643.000000	97.821825
642.000000	97.895560
641.000000	97.964792
640.000000	98.018175
639.000000	98.047162
638.000000	98.045338
637.000000	98.018135
636.000000	97.992107
635.000000	98.001699
634.000000	98.057591
633.000000	98.133755
632.000000	98.192366
631.000000	98.216659
630.000000	98.218006
629.000000	98.219500
628.000000	98.238179
627.000000	98.278553
626.000000	98.331419
625.000000	98.379036
624.000000	98.409466
623.000000	98.425357
622.000000	98.434834
621.000000	98.438230
620.000000	98.432952
619.000000	98.429429
618.000000	98.445635
617.000000	98.479547
616.000000	98.504560
615.000000	98.503247
614.000000	98.492128
613.000000	98.499537
612.000000	98.527621
611.000000	98.551615
610.000000	98.551680
609.000000	98.529551
608.000000	98.497048
607.000000	98.465417
606.000000	98.442529
605.000000	98.424650
604.000000	98.390829
603.000000	98.320940
602.000000	98.225882
601.000000	98.147427
600.000000	98.121038
599.000000	98.148654
598.000000	98.208326
597.000000	98.279930
596.000000	98.351656
595.000000	98.406776
594.000000	98.428504
593.000000	98.423585
592.000000	98.423227
591.000000	98.450628
590.000000	98.494326
589.000000	98.522086
588.000000	98.513932
587.000000	98.476710
586.000000	98.437842
585.000000	98.424385
584.000000	98.438820
583.000000	98.453766
582.000000	98.440060
581.000000	98.405187
580.000000	98.390842
579.000000	98.425237
578.000000	98.490513
577.000000	98.547033
576.000000	98.575777
575.000000	98.579887
574.000000	98.564121
573.000000	98.531556
572.000000	98.493226
571.000000	98.466393
570.000000	98.462543
569.000000	98.485829
568.000000	98.535354
567.000000	98.591602
566.000000	98.614298
565.000000	98.578251
564.000000	98.502877
563.000000	98.439655
562.000000	98.422698
561.000000	98.441755
560.000000	98.464225
559.000000	98.463996
558.000000	98.434455
557.000000	98.392557
556.000000	98.369910
555.000000	98.383829
554.000000	98.416865
553.000000	98.436092
552.000000	98.434718
551.000000	98.432430
550.000000	98.435712
