PE IR       SUBTECH     SPECTRUM    ASCII       PEDS        4.00        
   -1
BH1 8-1 4 30_1.asc
24/05/15
16:39:31.00
24/05/15
16:39:44.00
Administrator
?品 122 用? Administrator 日期 Wednesday, May 15 2024
550.000000
#HDR
-1
-1
#GR
cm-1
%T
1.0
0.0
4000.000000
-1.000000
3451
8
100.562065
79.414810
#DATA
4000.000000	100.208276
3999.000000	100.210177
3998.000000	100.211690
3997.000000	100.212103
3996.000000	100.211457
3995.000000	100.210292
3994.000000	100.209118
3993.000000	100.208128
3992.000000	100.207319
3991.000000	100.206671
3990.000000	100.206189
3989.000000	100.205798
3988.000000	100.205311
3987.000000	100.204639
3986.000000	100.204020
3985.000000	100.203877
3984.000000	100.204354
3983.000000	100.205167
3982.000000	100.205863
3981.000000	100.206214
3980.000000	100.206321
3979.000000	100.206393
3978.000000	100.206511
3977.000000	100.206600
3976.000000	100.206584
3975.000000	100.206521
3974.000000	100.206577
3973.000000	100.206869
3972.000000	100.207339
3971.000000	100.207737
3970.000000	100.207833
3969.000000	100.207583
3968.000000	100.207166
3967.000000	100.206863
3966.000000	100.206863
3965.000000	100.207190
3964.000000	100.207741
3963.000000	100.208345
3962.000000	100.208826
3961.000000	100.209053
3960.000000	100.208988
3959.000000	100.208689
3958.000000	100.208258
3957.000000	100.207796
3956.000000	100.207424
3955.000000	100.207304
3954.000000	100.207577
3953.000000	100.208213
3952.000000	100.208885
3951.000000	100.209095
3950.000000	100.208547
3949.000000	100.207450
3948.000000	100.206475
3947.000000	100.206268
3946.000000	100.207054
3945.000000	100.208491
3944.000000	100.209734
3943.000000	100.209938
3942.000000	100.208840
3941.000000	100.207018
3940.000000	100.205497
3939.000000	100.204846
3938.000000	100.204788
3937.000000	100.204549
3936.000000	100.203576
3935.000000	100.201898
3934.000000	100.199956
3933.000000	100.198345
3932.000000	100.197585
3931.000000	100.197832
3930.000000	100.198596
3929.000000	100.199015
3928.000000	100.198898
3927.000000	100.199251
3926.000000	100.201366
3925.000000	100.205213
3924.000000	100.209147
3923.000000	100.211716
3922.000000	100.212814
3921.000000	100.212958
3920.000000	100.212258
3919.000000	100.210481
3918.000000	100.207840
3917.000000	100.205106
3916.000000	100.203181
3915.000000	100.202608
3914.000000	100.203335
3913.000000	100.204631
3912.000000	100.205564
3911.000000	100.205573
3910.000000	100.204741
3909.000000	100.203535
3908.000000	100.202512
3907.000000	100.202105
3906.000000	100.202422
3905.000000	100.203069
3904.000000	100.203337
3903.000000	100.202963
3902.000000	100.202438
3901.000000	100.202250
3900.000000	100.202141
3899.000000	100.201504
3898.000000	100.200199
3897.000000	100.198567
3896.000000	100.196918
3895.000000	100.195343
3894.000000	100.194034
3893.000000	100.193269
3892.000000	100.192954
3891.000000	100.192419
3890.000000	100.191341
3889.000000	100.190420
3888.000000	100.190495
3887.000000	100.191453
3886.000000	100.192056
3885.000000	100.191153
3884.000000	100.189238
3883.000000	100.188083
3882.000000	100.188785
3881.000000	100.190735
3880.000000	100.192010
3879.000000	100.191309
3878.000000	100.189321
3877.000000	100.187916
3876.000000	100.188223
3875.000000	100.189407
3874.000000	100.189108
3873.000000	100.185942
3872.000000	100.181348
3871.000000	100.178276
3870.000000	100.177731
3869.000000	100.178010
3868.000000	100.177918
3867.000000	100.178280
3866.000000	100.179724
3865.000000	100.181574
3864.000000	100.182993
3863.000000	100.183738
3862.000000	100.183744
3861.000000	100.182612
3860.000000	100.180337
3859.000000	100.177292
3858.000000	100.173438
3857.000000	100.168294
3856.000000	100.162286
3855.000000	100.157061
3854.000000	100.152948
3853.000000	100.147950
3852.000000	100.143680
3851.000000	100.144946
3850.000000	100.151676
3849.000000	100.159215
3848.000000	100.164372
3847.000000	100.167562
3846.000000	100.170626
3845.000000	100.174129
3844.000000	100.176700
3843.000000	100.176049
3842.000000	100.171353
3841.000000	100.164402
3840.000000	100.158357
3839.000000	100.155467
3838.000000	100.156024
3837.000000	100.158857
3836.000000	100.162563
3835.000000	100.166172
3834.000000	100.169460
3833.000000	100.172888
3832.000000	100.176706
3831.000000	100.180341
3830.000000	100.183206
3829.000000	100.185379
3828.000000	100.187168
3827.000000	100.187880
3826.000000	100.185888
3825.000000	100.180562
3824.000000	100.173633
3823.000000	100.168018
3822.000000	100.165558
3821.000000	100.165055
3820.000000	100.164522
3819.000000	100.165330
3818.000000	100.169423
3817.000000	100.175498
3816.000000	100.179861
3815.000000	100.180874
3814.000000	100.181363
3813.000000	100.184017
3812.000000	100.187203
3811.000000	100.187789
3810.000000	100.185282
3809.000000	100.182281
3808.000000	100.181355
3807.000000	100.181506
3806.000000	100.179810
3805.000000	100.176207
3804.000000	100.173509
3803.000000	100.173820
3802.000000	100.176434
3801.000000	100.178197
3800.000000	100.178715
3799.000000	100.181374
3798.000000	100.187104
3797.000000	100.193046
3796.000000	100.196400
3795.000000	100.197567
3794.000000	100.199184
3793.000000	100.202609
3792.000000	100.206476
3791.000000	100.208723
3790.000000	100.208406
3789.000000	100.205760
3788.000000	100.201799
3787.000000	100.198238
3786.000000	100.197047
3785.000000	100.198939
3784.000000	100.202470
3783.000000	100.205370
3782.000000	100.206474
3781.000000	100.205938
3780.000000	100.204561
3779.000000	100.203049
3778.000000	100.202079
3777.000000	100.202239
3776.000000	100.203035
3775.000000	100.202407
3774.000000	100.198525
3773.000000	100.191958
3772.000000	100.185633
3771.000000	100.182092
3770.000000	100.181360
3769.000000	100.182106
3768.000000	100.184401
3767.000000	100.189343
3766.000000	100.196357
3765.000000	100.202444
3764.000000	100.204742
3763.000000	100.202947
3762.000000	100.198504
3761.000000	100.192438
3760.000000	100.185573
3759.000000	100.179202
3758.000000	100.173983
3757.000000	100.168932
3756.000000	100.163089
3755.000000	100.157280
3754.000000	100.153266
3753.000000	100.151257
3752.000000	100.148844
3751.000000	100.143331
3750.000000	100.134872
3749.000000	100.126450
3748.000000	100.121570
3747.000000	100.123119
3746.000000	100.132372
3745.000000	100.145746
3744.000000	100.154267
3743.000000	100.156440
3742.000000	100.160356
3741.000000	100.167232
3740.000000	100.170193
3739.000000	100.166099
3738.000000	100.159800
3737.000000	100.157741
3736.000000	100.159479
3735.000000	100.159366
3734.000000	100.155834
3733.000000	100.153049
3732.000000	100.153531
3731.000000	100.155553
3730.000000	100.157028
3729.000000	100.157942
3728.000000	100.159407
3727.000000	100.161946
3726.000000	100.164799
3725.000000	100.167420
3724.000000	100.169864
3723.000000	100.171286
3722.000000	100.169950
3721.000000	100.164718
3720.000000	100.156265
3719.000000	100.146719
3718.000000	100.137923
3717.000000	100.130190
3716.000000	100.123185
3715.000000	100.116918
3714.000000	100.111661
3713.000000	100.107566
3712.000000	100.104259
3711.000000	100.100762
3710.000000	100.096844
3709.000000	100.093493
3708.000000	100.091592
3707.000000	100.090884
3706.000000	100.090383
3705.000000	100.089261
3704.000000	100.087215
3703.000000	100.084373
3702.000000	100.080962
3701.000000	100.077028
3700.000000	100.072832
3699.000000	100.068950
3698.000000	100.064765
3697.000000	100.058108
3696.000000	100.047988
3695.000000	100.036909
3694.000000	100.028406
3693.000000	100.022620
3692.000000	100.016012
3691.000000	100.005430
3690.000000	99.991975
3689.000000	99.979640
3688.000000	99.971002
3687.000000	99.966197
3686.000000	99.963825
3685.000000	99.961030
3684.000000	99.954936
3683.000000	99.944852
3682.000000	99.932179
3681.000000	99.918211
3680.000000	99.902422
3679.000000	99.885183
3678.000000	99.871079
3677.000000	99.865287
3676.000000	99.864092
3675.000000	99.855441
3674.000000	99.835604
3673.000000	99.812499
3672.000000	99.792305
3671.000000	99.774883
3670.000000	99.758415
3669.000000	99.742794
3668.000000	99.730006
3667.000000	99.720462
3666.000000	99.711672
3665.000000	99.701424
3664.000000	99.689256
3663.000000	99.675094
3662.000000	99.658590
3661.000000	99.640401
3660.000000	99.622751
3659.000000	99.607959
3658.000000	99.595660
3657.000000	99.582081
3656.000000	99.562867
3655.000000	99.538484
3654.000000	99.514245
3653.000000	99.494452
3652.000000	99.480170
3651.000000	99.471667
3650.000000	99.468497
3649.000000	99.467050
3648.000000	99.462105
3647.000000	99.451214
3646.000000	99.436138
3645.000000	99.420588
3644.000000	99.407666
3643.000000	99.397944
3642.000000	99.389615
3641.000000	99.380646
3640.000000	99.370946
3639.000000	99.361886
3638.000000	99.354043
3637.000000	99.346642
3636.000000	99.337783
3635.000000	99.323916
3634.000000	99.300686
3633.000000	99.267079
3632.000000	99.228823
3631.000000	99.196505
3630.000000	99.179253
3629.000000	99.176482
3628.000000	99.178747
3627.000000	99.181983
3626.000000	99.187826
3625.000000	99.193606
3624.000000	99.195256
3623.000000	99.194020
3622.000000	99.195665
3621.000000	99.204463
3620.000000	99.218806
3619.000000	99.233212
3618.000000	99.244786
3617.000000	99.256039
3616.000000	99.270116
3615.000000	99.286034
3614.000000	99.298980
3613.000000	99.304648
3612.000000	99.304043
3611.000000	99.303957
3610.000000	99.311650
3609.000000	99.329014
3608.000000	99.351499
3607.000000	99.372535
3606.000000	99.388352
3605.000000	99.398184
3604.000000	99.402629
3603.000000	99.404150
3602.000000	99.407014
3601.000000	99.414797
3600.000000	99.427367
3599.000000	99.441650
3598.000000	99.453962
3597.000000	99.461833
3596.000000	99.464441
3595.000000	99.462876
3594.000000	99.459780
3593.000000	99.458563
3592.000000	99.461428
3591.000000	99.468056
3590.000000	99.475911
3589.000000	99.481134
3588.000000	99.479925
3587.000000	99.471307
3586.000000	99.459689
3585.000000	99.452214
3584.000000	99.452365
3583.000000	99.457607
3582.000000	99.462354
3581.000000	99.462708
3580.000000	99.458972
3579.000000	99.454461
3578.000000	99.451901
3577.000000	99.451029
3576.000000	99.449370
3575.000000	99.444570
3574.000000	99.436117
3573.000000	99.425490
3572.000000	99.415462
3571.000000	99.408939
3570.000000	99.407708
3569.000000	99.410928
3568.000000	99.414819
3567.000000	99.415403
3566.000000	99.412619
3565.000000	99.410045
3564.000000	99.410080
3563.000000	99.411148
3562.000000	99.409856
3561.000000	99.404592
3560.000000	99.397026
3559.000000	99.390537
3558.000000	99.387485
3557.000000	99.387636
3556.000000	99.388981
3555.000000	99.389624
3554.000000	99.388889
3553.000000	99.386851
3552.000000	99.383565
3551.000000	99.379239
3550.000000	99.374857
3549.000000	99.371913
3548.000000	99.371340
3547.000000	99.372801
3546.000000	99.374866
3545.000000	99.375838
3544.000000	99.374798
3543.000000	99.371904
3542.000000	99.368103
3541.000000	99.364574
3540.000000	99.362003
3539.000000	99.360389
3538.000000	99.359417
3537.000000	99.358853
3536.000000	99.358555
3535.000000	99.358338
3534.000000	99.357998
3533.000000	99.357519
3532.000000	99.357057
3531.000000	99.356761
3530.000000	99.356640
3529.000000	99.356608
3528.000000	99.356539
3527.000000	99.356309
3526.000000	99.355905
3525.000000	99.355431
3524.000000	99.354921
3523.000000	99.354165
3522.000000	99.352960
3521.000000	99.351546
3520.000000	99.350595
3519.000000	99.350630
3518.000000	99.351605
3517.000000	99.353137
3516.000000	99.354876
3515.000000	99.356411
3514.000000	99.357084
3513.000000	99.356343
3512.000000	99.354185
3511.000000	99.351075
3510.000000	99.347415
3509.000000	99.343328
3508.000000	99.339042
3507.000000	99.335286
3506.000000	99.333095
3505.000000	99.333063
3504.000000	99.334589
3503.000000	99.335946
3502.000000	99.335576
3501.000000	99.333576
3500.000000	99.331760
3499.000000	99.332133
3498.000000	99.335488
3497.000000	99.341118
3496.000000	99.347320
3495.000000	99.352078
3494.000000	99.353785
3493.000000	99.352091
3492.000000	99.348355
3491.000000	99.344857
3490.000000	99.342986
3489.000000	99.342395
3488.000000	99.342100
3487.000000	99.341988
3486.000000	99.342748
3485.000000	99.344451
3484.000000	99.345844
3483.000000	99.345412
3482.000000	99.342897
3481.000000	99.339424
3480.000000	99.336136
3479.000000	99.332989
3478.000000	99.329207
3477.000000	99.324612
3476.000000	99.320090
3475.000000	99.316735
3474.000000	99.314860
3473.000000	99.314124
3472.000000	99.314277
3471.000000	99.315206
3470.000000	99.316303
3469.000000	99.316431
3468.000000	99.314982
3467.000000	99.312674
3466.000000	99.310877
3465.000000	99.310152
3464.000000	99.309732
3463.000000	99.308433
3462.000000	99.305768
3461.000000	99.302204
3460.000000	99.298733
3459.000000	99.296325
3458.000000	99.295490
3457.000000	99.295902
3456.000000	99.296340
3455.000000	99.295514
3454.000000	99.293106
3453.000000	99.289760
3452.000000	99.286169
3451.000000	99.282477
3450.000000	99.278535
3449.000000	99.274465
3448.000000	99.270759
3447.000000	99.267818
3446.000000	99.265607
3445.000000	99.263823
3444.000000	99.262309
3443.000000	99.261252
3442.000000	99.260934
3441.000000	99.261080
3440.000000	99.260584
3439.000000	99.258275
3438.000000	99.254050
3437.000000	99.249146
3436.000000	99.245122
3435.000000	99.242672
3434.000000	99.241501
3433.000000	99.240922
3432.000000	99.240245
3431.000000	99.238868
3430.000000	99.236487
3429.000000	99.233316
3428.000000	99.229882
3427.000000	99.226527
3426.000000	99.223235
3425.000000	99.219884
3424.000000	99.216384
3423.000000	99.212538
3422.000000	99.208132
3421.000000	99.203513
3420.000000	99.199881
3419.000000	99.198588
3418.000000	99.200035
3417.000000	99.203343
3416.000000	99.206950
3415.000000	99.209415
3414.000000	99.209816
3413.000000	99.207863
3412.000000	99.204167
3411.000000	99.200413
3410.000000	99.198641
3409.000000	99.199867
3408.000000	99.203372
3407.000000	99.207141
3406.000000	99.209264
3405.000000	99.209093
3404.000000	99.207241
3403.000000	99.204998
3402.000000	99.203571
3401.000000	99.203462
3400.000000	99.204342
3399.000000	99.205415
3398.000000	99.206043
3397.000000	99.206172
3396.000000	99.206191
3395.000000	99.206458
3394.000000	99.206996
3393.000000	99.207586
3392.000000	99.208040
3391.000000	99.208387
3390.000000	99.208849
3389.000000	99.209689
3388.000000	99.211028
3387.000000	99.212709
3386.000000	99.214297
3385.000000	99.215346
3384.000000	99.215764
3383.000000	99.215946
3382.000000	99.216486
3381.000000	99.217646
3380.000000	99.219190
3379.000000	99.220692
3378.000000	99.221947
3377.000000	99.223041
3376.000000	99.224121
3375.000000	99.225195
3374.000000	99.226126
3373.000000	99.226761
3372.000000	99.227060
3371.000000	99.227162
3370.000000	99.227412
3369.000000	99.228219
3368.000000	99.229709
3367.000000	99.231466
3366.000000	99.232779
3365.000000	99.233440
3364.000000	99.234049
3363.000000	99.235341
3362.000000	99.237406
3361.000000	99.239848
3360.000000	99.242471
3359.000000	99.245328
3358.000000	99.248217
3357.000000	99.250540
3356.000000	99.251876
3355.000000	99.252565
3354.000000	99.253604
3353.000000	99.255764
3352.000000	99.258770
3351.000000	99.261404
3350.000000	99.262634
3349.000000	99.262492
3348.000000	99.261807
3347.000000	99.261309
3346.000000	99.261205
3345.000000	99.261706
3344.000000	99.263309
3343.000000	99.266162
3342.000000	99.269463
3341.000000	99.271975
3340.000000	99.273211
3339.000000	99.273806
3338.000000	99.274763
3337.000000	99.276492
3336.000000	99.278631
3335.000000	99.280587
3334.000000	99.282132
3333.000000	99.283583
3332.000000	99.285514
3331.000000	99.288269
3330.000000	99.291700
3329.000000	99.295309
3328.000000	99.298598
3327.000000	99.301299
3326.000000	99.303379
3325.000000	99.305003
3324.000000	99.306448
3323.000000	99.307912
3322.000000	99.309369
3321.000000	99.310696
3320.000000	99.311946
3319.000000	99.313401
3318.000000	99.315294
3317.000000	99.317559
3316.000000	99.319895
3315.000000	99.322053
3314.000000	99.324027
3313.000000	99.325983
3312.000000	99.328072
3311.000000	99.330277
3310.000000	99.332413
3309.000000	99.334303
3308.000000	99.335944
3307.000000	99.337535
3306.000000	99.339363
3305.000000	99.341556
3304.000000	99.344029
3303.000000	99.346557
3302.000000	99.348940
3301.000000	99.351123
3300.000000	99.353151
3299.000000	99.355101
3298.000000	99.357039
3297.000000	99.359009
3296.000000	99.361032
3295.000000	99.363111
3294.000000	99.365223
3293.000000	99.367326
3292.000000	99.369379
3291.000000	99.371371
3290.000000	99.373323
3289.000000	99.375252
3288.000000	99.377143
3287.000000	99.378982
3286.000000	99.380796
3285.000000	99.382649
3284.000000	99.384585
3283.000000	99.386585
3282.000000	99.388598
3281.000000	99.390590
3280.000000	99.392572
3279.000000	99.394571
3278.000000	99.396600
3277.000000	99.398641
3276.000000	99.400651
3275.000000	99.402588
3274.000000	99.404442
3273.000000	99.406262
3272.000000	99.408141
3271.000000	99.410150
3270.000000	99.412265
3269.000000	99.414386
3268.000000	99.416429
3267.000000	99.418382
3266.000000	99.420283
3265.000000	99.422203
3264.000000	99.424210
3263.000000	99.426280
3262.000000	99.428246
3261.000000	99.429954
3260.000000	99.431472
3259.000000	99.433069
3258.000000	99.434965
3257.000000	99.437196
3256.000000	99.439710
3255.000000	99.442425
3254.000000	99.445146
3253.000000	99.447595
3252.000000	99.449627
3251.000000	99.451276
3250.000000	99.452553
3249.000000	99.453392
3248.000000	99.453967
3247.000000	99.454931
3246.000000	99.457045
3245.000000	99.460550
3244.000000	99.464857
3243.000000	99.468803
3242.000000	99.471330
3241.000000	99.471987
3240.000000	99.471177
3239.000000	99.470043
3238.000000	99.469795
3237.000000	99.470987
3236.000000	99.473342
3235.000000	99.476119
3234.000000	99.478649
3233.000000	99.480609
3232.000000	99.482008
3231.000000	99.483188
3230.000000	99.484823
3229.000000	99.487616
3228.000000	99.491709
3227.000000	99.496384
3226.000000	99.500620
3225.000000	99.504135
3224.000000	99.507688
3223.000000	99.512077
3222.000000	99.516954
3221.000000	99.520933
3220.000000	99.522887
3219.000000	99.522872
3218.000000	99.521934
3217.000000	99.521401
3216.000000	99.522345
3215.000000	99.525277
3214.000000	99.529908
3213.000000	99.535270
3212.000000	99.540341
3211.000000	99.544510
3210.000000	99.547409
3209.000000	99.548719
3208.000000	99.548521
3207.000000	99.547561
3206.000000	99.546696
3205.000000	99.546115
3204.000000	99.545559
3203.000000	99.545347
3202.000000	99.546565
3201.000000	99.549923
3200.000000	99.554836
3199.000000	99.559800
3198.000000	99.563689
3197.000000	99.566507
3196.000000	99.568964
3195.000000	99.571714
3194.000000	99.574924
3193.000000	99.578239
3192.000000	99.581023
3191.000000	99.582835
3190.000000	99.583860
3189.000000	99.584874
3188.000000	99.586673
3187.000000	99.589484
3186.000000	99.592843
3185.000000	99.595921
3184.000000	99.598059
3183.000000	99.599171
3182.000000	99.599808
3181.000000	99.600808
3180.000000	99.602667
3179.000000	99.605233
3178.000000	99.607982
3177.000000	99.610554
3176.000000	99.613028
3175.000000	99.615686
3174.000000	99.618610
3173.000000	99.621523
3172.000000	99.624032
3171.000000	99.626039
3170.000000	99.627845
3169.000000	99.629820
3168.000000	99.631962
3167.000000	99.633913
3166.000000	99.635427
3165.000000	99.636706
3164.000000	99.638261
3163.000000	99.640402
3162.000000	99.642959
3161.000000	99.645478
3160.000000	99.647668
3159.000000	99.649565
3158.000000	99.651331
3157.000000	99.653064
3156.000000	99.654828
3155.000000	99.656754
3154.000000	99.658979
3153.000000	99.661453
3152.000000	99.663865
3151.000000	99.665843
3150.000000	99.667290
3149.000000	99.668582
3148.000000	99.670334
3147.000000	99.672845
3146.000000	99.675765
3145.000000	99.678373
3144.000000	99.680349
3143.000000	99.682090
3142.000000	99.684200
3141.000000	99.686751
3140.000000	99.689216
3139.000000	99.691105
3138.000000	99.692446
3137.000000	99.693627
3136.000000	99.695005
3135.000000	99.696802
3134.000000	99.699203
3133.000000	99.702249
3132.000000	99.705622
3131.000000	99.708796
3130.000000	99.711521
3129.000000	99.714036
3128.000000	99.716722
3127.000000	99.719644
3126.000000	99.722521
3125.000000	99.725080
3124.000000	99.727217
3123.000000	99.728892
3122.000000	99.730056
3121.000000	99.730770
3120.000000	99.731415
3119.000000	99.732640
3118.000000	99.734898
3117.000000	99.738023
3116.000000	99.741179
3115.000000	99.743553
3114.000000	99.745117
3113.000000	99.746534
3112.000000	99.748257
3111.000000	99.749913
3110.000000	99.750917
3109.000000	99.751408
3108.000000	99.752248
3107.000000	99.754014
3106.000000	99.756386
3105.000000	99.758608
3104.000000	99.760319
3103.000000	99.761785
3102.000000	99.763407
3101.000000	99.765282
3100.000000	99.767244
3099.000000	99.769135
3098.000000	99.770931
3097.000000	99.772677
3096.000000	99.774411
3095.000000	99.776153
3094.000000	99.777904
3093.000000	99.779637
3092.000000	99.781311
3091.000000	99.782904
3090.000000	99.784431
3089.000000	99.785936
3088.000000	99.787449
3087.000000	99.788968
3086.000000	99.790476
3085.000000	99.791968
3084.000000	99.793449
3083.000000	99.794929
3082.000000	99.796411
3081.000000	99.797899
3080.000000	99.799393
3079.000000	99.800882
3078.000000	99.802355
3077.000000	99.803803
3076.000000	99.805227
3075.000000	99.806637
3074.000000	99.808044
3073.000000	99.809454
3072.000000	99.810863
3071.000000	99.812265
3070.000000	99.813652
3069.000000	99.815024
3068.000000	99.816382
3067.000000	99.817723
3066.000000	99.819040
3065.000000	99.820324
3064.000000	99.821563
3063.000000	99.822754
3062.000000	99.823923
3061.000000	99.825107
3060.000000	99.826309
3059.000000	99.827529
3058.000000	99.828799
3057.000000	99.830127
3056.000000	99.831449
3055.000000	99.832685
3054.000000	99.833844
3053.000000	99.835023
3052.000000	99.836264
3051.000000	99.837451
3050.000000	99.838412
3049.000000	99.839124
3048.000000	99.839828
3047.000000	99.840868
3046.000000	99.842358
3045.000000	99.844012
3044.000000	99.845420
3043.000000	99.846559
3042.000000	99.847856
3041.000000	99.849604
3040.000000	99.851458
3039.000000	99.852773
3038.000000	99.853418
3037.000000	99.853949
3036.000000	99.854903
3035.000000	99.856187
3034.000000	99.857377
3033.000000	99.858368
3032.000000	99.859401
3031.000000	99.860537
3030.000000	99.861443
3029.000000	99.861776
3028.000000	99.861602
3027.000000	99.861379
3026.000000	99.861487
3025.000000	99.861797
3024.000000	99.861776
3023.000000	99.861241
3022.000000	99.860963
3021.000000	99.862118
3020.000000	99.865054
3019.000000	99.868794
3018.000000	99.871983
3017.000000	99.874265
3016.000000	99.876186
3015.000000	99.878001
3014.000000	99.879253
3013.000000	99.879741
3012.000000	99.880326
3011.000000	99.882198
3010.000000	99.885491
3009.000000	99.889042
3008.000000	99.891602
3007.000000	99.892970
3006.000000	99.893804
3005.000000	99.894576
3004.000000	99.895129
3003.000000	99.895218
3002.000000	99.895070
3001.000000	99.895164
3000.000000	99.895698
2999.000000	99.896591
2998.000000	99.897933
2997.000000	99.900011
2996.000000	99.902802
2995.000000	99.905700
2994.000000	99.908007
2993.000000	99.909600
2992.000000	99.910844
2991.000000	99.912041
2990.000000	99.913152
2989.000000	99.913973
2988.000000	99.914332
2987.000000	99.914182
2986.000000	99.913784
2985.000000	99.913785
2984.000000	99.914814
2983.000000	99.916916
2982.000000	99.919545
2981.000000	99.922136
2980.000000	99.924537
2979.000000	99.926772
2978.000000	99.928638
2977.000000	99.929814
2976.000000	99.930234
2975.000000	99.930194
2974.000000	99.930126
2973.000000	99.930334
2972.000000	99.930888
2971.000000	99.931669
2970.000000	99.932552
2969.000000	99.933627
2968.000000	99.935120
2967.000000	99.936998
2966.000000	99.938745
2965.000000	99.939745
2964.000000	99.939880
2963.000000	99.939635
2962.000000	99.939642
2961.000000	99.940233
2960.000000	99.941537
2959.000000	99.943620
2958.000000	99.946260
2957.000000	99.948697
2956.000000	99.949961
2955.000000	99.949564
2954.000000	99.947950
2953.000000	99.946397
2952.000000	99.946203
2951.000000	99.947737
2950.000000	99.950120
2949.000000	99.952001
2948.000000	99.952885
2947.000000	99.953444
2946.000000	99.954527
2945.000000	99.956234
2944.000000	99.958113
2943.000000	99.959865
2942.000000	99.961420
2941.000000	99.962586
2940.000000	99.963154
2939.000000	99.963354
2938.000000	99.963744
2937.000000	99.964557
2936.000000	99.965479
2935.000000	99.966247
2934.000000	99.967193
2933.000000	99.969012
2932.000000	99.972096
2931.000000	99.976242
2930.000000	99.980885
2929.000000	99.985381
2928.000000	99.989168
2927.000000	99.991933
2926.000000	99.993753
2925.000000	99.995002
2924.000000	99.995925
2923.000000	99.996298
2922.000000	99.995610
2921.000000	99.993641
2920.000000	99.990800
2919.000000	99.988067
2918.000000	99.986652
2917.000000	99.987402
2916.000000	99.990150
2915.000000	99.993490
2914.000000	99.995598
2913.000000	99.995543
2912.000000	99.993808
2911.000000	99.991604
2910.000000	99.989978
2909.000000	99.989592
2908.000000	99.990720
2907.000000	99.992896
2906.000000	99.994850
2905.000000	99.995566
2904.000000	99.995493
2903.000000	99.996137
2902.000000	99.998184
2901.000000	100.000560
2900.000000	100.001591
2899.000000	100.000911
2898.000000	99.999632
2897.000000	99.998906
2896.000000	99.998807
2895.000000	99.998886
2894.000000	99.999275
2893.000000	100.000643
2892.000000	100.003125
2891.000000	100.005771
2890.000000	100.007336
2889.000000	100.007542
2888.000000	100.007319
2887.000000	100.007864
2886.000000	100.009601
2885.000000	100.012072
2884.000000	100.014558
2883.000000	100.016660
2882.000000	100.018338
2881.000000	100.019622
2880.000000	100.020477
2879.000000	100.020944
2878.000000	100.021331
2877.000000	100.022101
2876.000000	100.023483
2875.000000	100.025231
2874.000000	100.026807
2873.000000	100.027852
2872.000000	100.028379
2871.000000	100.028601
2870.000000	100.028781
2869.000000	100.029209
2868.000000	100.030106
2867.000000	100.031441
2866.000000	100.032901
2865.000000	100.034147
2864.000000	100.035073
2863.000000	100.035773
2862.000000	100.036381
2861.000000	100.037041
2860.000000	100.037926
2859.000000	100.039126
2858.000000	100.040499
2857.000000	100.041715
2856.000000	100.042532
2855.000000	100.042979
2854.000000	100.043268
2853.000000	100.043651
2852.000000	100.044268
2851.000000	100.045102
2850.000000	100.046030
2849.000000	100.046905
2848.000000	100.047669
2847.000000	100.048353
2846.000000	100.048990
2845.000000	100.049554
2844.000000	100.050024
2843.000000	100.050455
2842.000000	100.050962
2841.000000	100.051607
2840.000000	100.052352
2839.000000	100.053114
2838.000000	100.053825
2837.000000	100.054456
2836.000000	100.055031
2835.000000	100.055620
2834.000000	100.056293
2833.000000	100.057055
2832.000000	100.057856
2831.000000	100.058664
2830.000000	100.059487
2829.000000	100.060298
2828.000000	100.061007
2827.000000	100.061536
2826.000000	100.061915
2825.000000	100.062277
2824.000000	100.062747
2823.000000	100.063421
2822.000000	100.064410
2821.000000	100.065758
2820.000000	100.067285
2819.000000	100.068591
2818.000000	100.069372
2817.000000	100.069665
2816.000000	100.069833
2815.000000	100.070228
2814.000000	100.070897
2813.000000	100.071715
2812.000000	100.072592
2811.000000	100.073441
2810.000000	100.074078
2809.000000	100.074409
2808.000000	100.074674
2807.000000	100.075222
2806.000000	100.076084
2805.000000	100.076983
2804.000000	100.077787
2803.000000	100.078742
2802.000000	100.080087
2801.000000	100.081630
2800.000000	100.082879
2799.000000	100.083536
2798.000000	100.083726
2797.000000	100.083874
2796.000000	100.084381
2795.000000	100.085347
2794.000000	100.086545
2793.000000	100.087707
2792.000000	100.088853
2791.000000	100.090217
2790.000000	100.091844
2789.000000	100.093433
2788.000000	100.094678
2787.000000	100.095651
2786.000000	100.096673
2785.000000	100.097844
2784.000000	100.098855
2783.000000	100.099354
2782.000000	100.099414
2781.000000	100.099585
2780.000000	100.100465
2779.000000	100.102237
2778.000000	100.104603
2777.000000	100.107015
2776.000000	100.108969
2775.000000	100.110163
2774.000000	100.110506
2773.000000	100.110195
2772.000000	100.109753
2771.000000	100.109720
2770.000000	100.110275
2769.000000	100.111211
2768.000000	100.112183
2767.000000	100.112958
2766.000000	100.113471
2765.000000	100.113804
2764.000000	100.114198
2763.000000	100.114952
2762.000000	100.116169
2761.000000	100.117649
2760.000000	100.119016
2759.000000	100.120023
2758.000000	100.120707
2757.000000	100.121277
2756.000000	100.121944
2755.000000	100.122750
2754.000000	100.123586
2753.000000	100.124330
2752.000000	100.124966
2751.000000	100.125563
2750.000000	100.126179
2749.000000	100.126810
2748.000000	100.127414
2747.000000	100.127973
2746.000000	100.128508
2745.000000	100.129039
2744.000000	100.129572
2743.000000	100.130095
2742.000000	100.130603
2741.000000	100.131098
2740.000000	100.131586
2739.000000	100.132066
2738.000000	100.132540
2737.000000	100.133003
2736.000000	100.133450
2735.000000	100.133876
2734.000000	100.134282
2733.000000	100.134672
2732.000000	100.135061
2731.000000	100.135461
2730.000000	100.135875
2729.000000	100.136290
2728.000000	100.136690
2727.000000	100.137065
2726.000000	100.137415
2725.000000	100.137744
2724.000000	100.138059
2723.000000	100.138360
2722.000000	100.138647
2721.000000	100.138920
2720.000000	100.139178
2719.000000	100.139426
2718.000000	100.139671
2717.000000	100.139921
2716.000000	100.140178
2715.000000	100.140439
2714.000000	100.140694
2713.000000	100.140937
2712.000000	100.141167
2711.000000	100.141383
2710.000000	100.141585
2709.000000	100.141780
2708.000000	100.141977
2707.000000	100.142185
2706.000000	100.142396
2705.000000	100.142600
2704.000000	100.142789
2703.000000	100.142916
2702.000000	100.142903
2701.000000	100.142746
2700.000000	100.142593
2699.000000	100.142625
2698.000000	100.142883
2697.000000	100.143303
2696.000000	100.143834
2695.000000	100.144409
2694.000000	100.144891
2693.000000	100.145199
2692.000000	100.145440
2691.000000	100.145783
2690.000000	100.146258
2689.000000	100.146814
2688.000000	100.147394
2687.000000	100.147776
2686.000000	100.147549
2685.000000	100.146565
2684.000000	100.145435
2683.000000	100.145141
2682.000000	100.146149
2681.000000	100.148137
2680.000000	100.150428
2679.000000	100.152399
2678.000000	100.153451
2677.000000	100.153053
2676.000000	100.151179
2675.000000	100.148558
2674.000000	100.146254
2673.000000	100.144925
2672.000000	100.144579
2671.000000	100.144845
2670.000000	100.145237
2669.000000	100.145215
2668.000000	100.144339
2667.000000	100.142668
2666.000000	100.141012
2665.000000	100.140409
2664.000000	100.141101
2663.000000	100.142245
2662.000000	100.142911
2661.000000	100.143325
2660.000000	100.144632
2659.000000	100.147393
2658.000000	100.150783
2657.000000	100.153434
2656.000000	100.154719
2655.000000	100.155038
2654.000000	100.155289
2653.000000	100.156256
2652.000000	100.157978
2651.000000	100.159393
2650.000000	100.159204
2649.000000	100.157546
2648.000000	100.156253
2647.000000	100.156763
2646.000000	100.158130
2645.000000	100.158087
2644.000000	100.155732
2643.000000	100.152225
2642.000000	100.149069
2641.000000	100.146581
2640.000000	100.144422
2639.000000	100.142673
2638.000000	100.141752
2637.000000	100.141806
2636.000000	100.142699
2635.000000	100.144258
2634.000000	100.146076
2633.000000	100.147416
2632.000000	100.147898
2631.000000	100.148055
2630.000000	100.148789
2629.000000	100.150324
2628.000000	100.151931
2627.000000	100.152644
2626.000000	100.152132
2625.000000	100.150920
2624.000000	100.149937
2623.000000	100.149783
2622.000000	100.150312
2621.000000	100.150863
2620.000000	100.150885
2619.000000	100.150344
2618.000000	100.149607
2617.000000	100.149065
2616.000000	100.148899
2615.000000	100.149121
2614.000000	100.149644
2613.000000	100.150296
2612.000000	100.150858
2611.000000	100.151185
2610.000000	100.151305
2609.000000	100.151355
2608.000000	100.151444
2607.000000	100.151588
2606.000000	100.151777
2605.000000	100.152041
2604.000000	100.152407
2603.000000	100.152838
2602.000000	100.153271
2601.000000	100.153676
2600.000000	100.154063
2599.000000	100.154443
2598.000000	100.154815
2597.000000	100.155174
2596.000000	100.155514
2595.000000	100.155832
2594.000000	100.156127
2593.000000	100.156407
2592.000000	100.156679
2591.000000	100.156950
2590.000000	100.157215
2589.000000	100.157464
2588.000000	100.157689
2587.000000	100.157890
2586.000000	100.158075
2585.000000	100.158256
2584.000000	100.158442
2583.000000	100.158635
2582.000000	100.158829
2581.000000	100.159013
2580.000000	100.159178
2579.000000	100.159325
2578.000000	100.159462
2577.000000	100.159597
2576.000000	100.159736
2575.000000	100.159881
2574.000000	100.160021
2573.000000	100.160145
2572.000000	100.160240
2571.000000	100.160302
2570.000000	100.160338
2569.000000	100.160360
2568.000000	100.160378
2567.000000	100.160396
2566.000000	100.160412
2565.000000	100.160423
2564.000000	100.160425
2563.000000	100.160420
2562.000000	100.160410
2561.000000	100.160397
2560.000000	100.160378
2559.000000	100.160351
2558.000000	100.160316
2557.000000	100.160282
2556.000000	100.160264
2555.000000	100.160273
2554.000000	100.160304
2553.000000	100.160343
2552.000000	100.160375
2551.000000	100.160399
2550.000000	100.160411
2549.000000	100.160401
2548.000000	100.160391
2547.000000	100.160443
2546.000000	100.160580
2545.000000	100.160767
2544.000000	100.160966
2543.000000	100.161194
2542.000000	100.161463
2541.000000	100.161740
2540.000000	100.161996
2539.000000	100.162237
2538.000000	100.162490
2537.000000	100.162779
2536.000000	100.163097
2535.000000	100.163429
2534.000000	100.163758
2533.000000	100.164072
2532.000000	100.164367
2531.000000	100.164647
2530.000000	100.164925
2529.000000	100.165217
2528.000000	100.165535
2527.000000	100.165880
2526.000000	100.166242
2525.000000	100.166605
2524.000000	100.166966
2523.000000	100.167354
2522.000000	100.167808
2521.000000	100.168332
2520.000000	100.168866
2519.000000	100.169328
2518.000000	100.169674
2517.000000	100.169933
2516.000000	100.170201
2515.000000	100.170584
2514.000000	100.171121
2513.000000	100.171755
2512.000000	100.172379
2511.000000	100.172931
2510.000000	100.173362
2509.000000	100.173597
2508.000000	100.173611
2507.000000	100.173536
2506.000000	100.173610
2505.000000	100.174017
2504.000000	100.174836
2503.000000	100.176039
2502.000000	100.177370
2501.000000	100.178308
2500.000000	100.178420
2499.000000	100.177780
2498.000000	100.176884
2497.000000	100.176113
2496.000000	100.175538
2495.000000	100.175197
2494.000000	100.175176
2493.000000	100.175305
2492.000000	100.175213
2491.000000	100.174911
2490.000000	100.174936
2489.000000	100.175718
2488.000000	100.177153
2487.000000	100.178936
2486.000000	100.180933
2485.000000	100.182924
2484.000000	100.184335
2483.000000	100.184659
2482.000000	100.183991
2481.000000	100.182908
2480.000000	100.181899
2479.000000	100.181167
2478.000000	100.180788
2477.000000	100.180749
2476.000000	100.180888
2475.000000	100.181057
2474.000000	100.181332
2473.000000	100.181895
2472.000000	100.182752
2471.000000	100.183689
2470.000000	100.184433
2469.000000	100.184781
2468.000000	100.184697
2467.000000	100.184421
2466.000000	100.184307
2465.000000	100.184413
2464.000000	100.184415
2463.000000	100.184145
2462.000000	100.184032
2461.000000	100.184698
2460.000000	100.186168
2459.000000	100.187731
2458.000000	100.188600
2457.000000	100.188620
2456.000000	100.188311
2455.000000	100.188409
2454.000000	100.189272
2453.000000	100.190686
2452.000000	100.192121
2451.000000	100.193204
2450.000000	100.193928
2449.000000	100.194427
2448.000000	100.194750
2447.000000	100.194916
2446.000000	100.195103
2445.000000	100.195539
2444.000000	100.196224
2443.000000	100.196895
2442.000000	100.197331
2441.000000	100.197593
2440.000000	100.197920
2439.000000	100.198428
2438.000000	100.198995
2437.000000	100.199420
2436.000000	100.199656
2435.000000	100.199845
2434.000000	100.200148
2433.000000	100.200583
2432.000000	100.201060
2431.000000	100.201518
2430.000000	100.201961
2429.000000	100.202350
2428.000000	100.202562
2427.000000	100.202555
2426.000000	100.202515
2425.000000	100.202703
2424.000000	100.203159
2423.000000	100.203654
2422.000000	100.203973
2421.000000	100.204169
2420.000000	100.204430
2419.000000	100.204762
2418.000000	100.204937
2417.000000	100.204761
2416.000000	100.204368
2415.000000	100.204181
2414.000000	100.204547
2413.000000	100.205457
2412.000000	100.206614
2411.000000	100.207698
2410.000000	100.208557
2409.000000	100.209112
2408.000000	100.209214
2407.000000	100.208802
2406.000000	100.208158
2405.000000	100.207849
2404.000000	100.208229
2403.000000	100.209114
2402.000000	100.209983
2401.000000	100.210517
2400.000000	100.210722
2399.000000	100.210628
2398.000000	100.210185
2397.000000	100.209508
2396.000000	100.208986
2395.000000	100.208886
2394.000000	100.209061
2393.000000	100.209197
2392.000000	100.209249
2391.000000	100.209441
2390.000000	100.209935
2389.000000	100.210709
2388.000000	100.211669
2387.000000	100.212660
2386.000000	100.213402
2385.000000	100.213660
2384.000000	100.213491
2383.000000	100.213214
2382.000000	100.213076
2381.000000	100.213060
2380.000000	100.213060
2379.000000	100.213089
2378.000000	100.213200
2377.000000	100.213331
2376.000000	100.213377
2375.000000	100.213356
2374.000000	100.213381
2373.000000	100.213464
2372.000000	100.213473
2371.000000	100.213303
2370.000000	100.213000
2369.000000	100.212679
2368.000000	100.212411
2367.000000	100.212239
2366.000000	100.212190
2365.000000	100.212231
2364.000000	100.212278
2363.000000	100.212259
2362.000000	100.212135
2361.000000	100.211854
2360.000000	100.211396
2359.000000	100.210846
2358.000000	100.210366
2357.000000	100.210041
2356.000000	100.209830
2355.000000	100.209625
2354.000000	100.209339
2353.000000	100.208967
2352.000000	100.208561
2351.000000	100.208167
2350.000000	100.207795
2349.000000	100.207407
2348.000000	100.206962
2347.000000	100.206455
2346.000000	100.205943
2345.000000	100.205492
2344.000000	100.205097
2343.000000	100.204701
2342.000000	100.204278
2341.000000	100.203846
2340.000000	100.203387
2339.000000	100.202836
2338.000000	100.202179
2337.000000	100.201485
2336.000000	100.200803
2335.000000	100.200110
2334.000000	100.199393
2333.000000	100.198744
2332.000000	100.198272
2331.000000	100.197965
2330.000000	100.197711
2329.000000	100.197390
2328.000000	100.196982
2327.000000	100.196516
2326.000000	100.196044
2325.000000	100.195602
2324.000000	100.195196
2323.000000	100.194814
2322.000000	100.194437
2321.000000	100.194054
2320.000000	100.193666
2319.000000	100.193288
2318.000000	100.192946
2317.000000	100.192655
2316.000000	100.192400
2315.000000	100.192148
2314.000000	100.191886
2313.000000	100.191627
2312.000000	100.191384
2311.000000	100.191153
2310.000000	100.190927
2309.000000	100.190704
2308.000000	100.190490
2307.000000	100.190298
2306.000000	100.190136
2305.000000	100.190001
2304.000000	100.189879
2303.000000	100.189748
2302.000000	100.189591
2301.000000	100.189404
2300.000000	100.189192
2299.000000	100.188974
2298.000000	100.188760
2297.000000	100.188552
2296.000000	100.188353
2295.000000	100.188168
2294.000000	100.187998
2293.000000	100.187836
2292.000000	100.187678
2291.000000	100.187523
2290.000000	100.187368
2289.000000	100.187200
2288.000000	100.186997
2287.000000	100.186738
2286.000000	100.186410
2285.000000	100.186020
2284.000000	100.185623
2283.000000	100.185298
2282.000000	100.185088
2281.000000	100.184925
2280.000000	100.184665
2279.000000	100.184230
2278.000000	100.183683
2277.000000	100.183189
2276.000000	100.182867
2275.000000	100.182692
2274.000000	100.182487
2273.000000	100.182081
2272.000000	100.181516
2271.000000	100.181053
2270.000000	100.180879
2269.000000	100.180822
2268.000000	100.180492
2267.000000	100.179688
2266.000000	100.178560
2265.000000	100.177365
2264.000000	100.176184
2263.000000	100.175002
2262.000000	100.173943
2261.000000	100.173232
2260.000000	100.172922
2259.000000	100.172773
2258.000000	100.172437
2257.000000	100.171823
2256.000000	100.171147
2255.000000	100.170648
2254.000000	100.170393
2253.000000	100.170335
2252.000000	100.170424
2251.000000	100.170572
2250.000000	100.170605
2249.000000	100.170387
2248.000000	100.169945
2247.000000	100.169351
2246.000000	100.168522
2245.000000	100.167329
2244.000000	100.165954
2243.000000	100.164947
2242.000000	100.164790
2241.000000	100.165490
2240.000000	100.166554
2239.000000	100.167298
2238.000000	100.167254
2237.000000	100.166428
2236.000000	100.165371
2235.000000	100.164793
2234.000000	100.164893
2233.000000	100.165213
2232.000000	100.165248
2231.000000	100.165120
2230.000000	100.165368
2229.000000	100.166207
2228.000000	100.167285
2227.000000	100.168091
2226.000000	100.168385
2225.000000	100.168152
2224.000000	100.167449
2223.000000	100.166476
2222.000000	100.165661
2221.000000	100.165397
2220.000000	100.165701
2219.000000	100.166285
2218.000000	100.166992
2217.000000	100.167984
2216.000000	100.169436
2215.000000	100.171148
2214.000000	100.172550
2213.000000	100.173167
2212.000000	100.172972
2211.000000	100.172355
2210.000000	100.171802
2209.000000	100.171544
2208.000000	100.171485
2207.000000	100.171383
2206.000000	100.171114
2205.000000	100.170797
2204.000000	100.170708
2203.000000	100.171017
2202.000000	100.171643
2201.000000	100.172352
2200.000000	100.172960
2199.000000	100.173400
2198.000000	100.173617
2197.000000	100.173546
2196.000000	100.173230
2195.000000	100.172925
2194.000000	100.172929
2193.000000	100.173286
2192.000000	100.173748
2191.000000	100.174010
2190.000000	100.174022
2189.000000	100.173979
2188.000000	100.174070
2187.000000	100.174276
2186.000000	100.174444
2185.000000	100.174504
2184.000000	100.174515
2183.000000	100.174533
2182.000000	100.174530
2181.000000	100.174465
2180.000000	100.174375
2179.000000	100.174347
2178.000000	100.174417
2177.000000	100.174546
2176.000000	100.174668
2175.000000	100.174748
2174.000000	100.174787
2173.000000	100.174787
2172.000000	100.174739
2171.000000	100.174652
2170.000000	100.174555
2169.000000	100.174493
2168.000000	100.174497
2167.000000	100.174560
2166.000000	100.174636
2165.000000	100.174670
2164.000000	100.174642
2163.000000	100.174554
2162.000000	100.174388
2161.000000	100.174134
2160.000000	100.173863
2159.000000	100.173714
2158.000000	100.173759
2157.000000	100.173941
2156.000000	100.174134
2155.000000	100.174283
2154.000000	100.174410
2153.000000	100.174520
2152.000000	100.174572
2151.000000	100.174551
2150.000000	100.174533
2149.000000	100.174635
2148.000000	100.174928
2147.000000	100.175373
2146.000000	100.175806
2145.000000	100.176007
2144.000000	100.175851
2143.000000	100.175407
2142.000000	100.174930
2141.000000	100.174688
2140.000000	100.174773
2139.000000	100.175101
2138.000000	100.175536
2137.000000	100.175980
2136.000000	100.176378
2135.000000	100.176676
2134.000000	100.176854
2133.000000	100.176969
2132.000000	100.177128
2131.000000	100.177397
2130.000000	100.177734
2129.000000	100.178024
2128.000000	100.178186
2127.000000	100.178259
2126.000000	100.178411
2125.000000	100.178809
2124.000000	100.179432
2123.000000	100.180036
2122.000000	100.180379
2121.000000	100.180534
2120.000000	100.180890
2119.000000	100.181722
2118.000000	100.182837
2117.000000	100.183780
2116.000000	100.184423
2115.000000	100.185142
2114.000000	100.186243
2113.000000	100.187375
2112.000000	100.187850
2111.000000	100.187472
2110.000000	100.186791
2109.000000	100.186555
2108.000000	100.186946
2107.000000	100.187590
2106.000000	100.188095
2105.000000	100.188427
2104.000000	100.188781
2103.000000	100.189303
2102.000000	100.190019
2101.000000	100.190893
2100.000000	100.191763
2099.000000	100.192314
2098.000000	100.192277
2097.000000	100.191720
2096.000000	100.191042
2095.000000	100.190625
2094.000000	100.190625
2093.000000	100.191114
2092.000000	100.192240
2091.000000	100.194024
2090.000000	100.196048
2089.000000	100.197681
2088.000000	100.198711
2087.000000	100.199505
2086.000000	100.200444
2085.000000	100.201483
2084.000000	100.202490
2083.000000	100.203654
2082.000000	100.205084
2081.000000	100.206211
2080.000000	100.206201
2079.000000	100.205024
2078.000000	100.203645
2077.000000	100.202939
2076.000000	100.202865
2075.000000	100.202987
2074.000000	100.203328
2073.000000	100.204179
2072.000000	100.205328
2071.000000	100.206061
2070.000000	100.206019
2069.000000	100.205581
2068.000000	100.205297
2067.000000	100.205378
2066.000000	100.205949
2065.000000	100.207338
2064.000000	100.209608
2063.000000	100.211976
2062.000000	100.213150
2061.000000	100.212357
2060.000000	100.209961
2059.000000	100.207263
2058.000000	100.205753
2057.000000	100.206228
2056.000000	100.208221
2055.000000	100.210305
2054.000000	100.211310
2053.000000	100.211276
2052.000000	100.211003
2051.000000	100.210847
2050.000000	100.210396
2049.000000	100.209287
2048.000000	100.207706
2047.000000	100.205879
2046.000000	100.203566
2045.000000	100.200412
2044.000000	100.196499
2043.000000	100.192345
2042.000000	100.188693
2041.000000	100.186371
2040.000000	100.185872
2039.000000	100.186721
2038.000000	100.187502
2037.000000	100.186931
2036.000000	100.184853
2035.000000	100.182088
2034.000000	100.179549
2033.000000	100.177648
2032.000000	100.176242
2031.000000	100.174897
2030.000000	100.173427
2029.000000	100.172347
2028.000000	100.172419
2027.000000	100.173467
2026.000000	100.174099
2025.000000	100.173098
2024.000000	100.170795
2023.000000	100.168485
2022.000000	100.166812
2021.000000	100.165374
2020.000000	100.163867
2019.000000	100.162753
2018.000000	100.162485
2017.000000	100.162629
2016.000000	100.162191
2015.000000	100.160650
2014.000000	100.158319
2013.000000	100.155951
2012.000000	100.154215
2011.000000	100.153296
2010.000000	100.152868
2009.000000	100.152402
2008.000000	100.151638
2007.000000	100.150754
2006.000000	100.150025
2005.000000	100.149498
2004.000000	100.149066
2003.000000	100.148687
2002.000000	100.148397
2001.000000	100.148178
2000.000000	100.147935
1999.000000	100.147595
1998.000000	100.147145
1997.000000	100.146607
1996.000000	100.146049
1995.000000	100.145569
1994.000000	100.145221
1993.000000	100.144959
1992.000000	100.144696
1991.000000	100.144399
1990.000000	100.144078
1989.000000	100.143743
1988.000000	100.143413
1987.000000	100.143148
1986.000000	100.142994
1985.000000	100.142911
1984.000000	100.142792
1983.000000	100.142573
1982.000000	100.142288
1981.000000	100.142023
1980.000000	100.141815
1979.000000	100.141650
1978.000000	100.141509
1977.000000	100.141399
1976.000000	100.141325
1975.000000	100.141262
1974.000000	100.141161
1973.000000	100.140992
1972.000000	100.140777
1971.000000	100.140609
1970.000000	100.140580
1969.000000	100.140726
1968.000000	100.140980
1967.000000	100.141179
1966.000000	100.141209
1965.000000	100.141097
1964.000000	100.140964
1963.000000	100.140821
1962.000000	100.140553
1961.000000	100.140141
1960.000000	100.139792
1959.000000	100.139771
1958.000000	100.140168
1957.000000	100.140889
1956.000000	100.141714
1955.000000	100.142266
1954.000000	100.142100
1953.000000	100.141070
1952.000000	100.139614
1951.000000	100.138424
1950.000000	100.137772
1949.000000	100.137375
1948.000000	100.136864
1947.000000	100.136198
1946.000000	100.135560
1945.000000	100.135022
1944.000000	100.134521
1943.000000	100.134052
1942.000000	100.133732
1941.000000	100.133680
1940.000000	100.133921
1939.000000	100.134310
1938.000000	100.134490
1937.000000	100.134026
1936.000000	100.132728
1935.000000	100.130836
1934.000000	100.128932
1933.000000	100.127694
1932.000000	100.127554
1931.000000	100.128282
1930.000000	100.129028
1929.000000	100.128990
1928.000000	100.128018
1927.000000	100.126515
1926.000000	100.124799
1925.000000	100.122794
1924.000000	100.120253
1923.000000	100.117202
1922.000000	100.114085
1921.000000	100.111583
1920.000000	100.110249
1919.000000	100.109946
1918.000000	100.109443
1917.000000	100.107330
1916.000000	100.103710
1915.000000	100.100218
1914.000000	100.098113
1913.000000	100.096957
1912.000000	100.095267
1911.000000	100.092330
1910.000000	100.089066
1909.000000	100.086751
1908.000000	100.085324
1907.000000	100.083647
1906.000000	100.081240
1905.000000	100.079245
1904.000000	100.079105
1903.000000	100.080587
1902.000000	100.081669
1901.000000	100.080563
1900.000000	100.077491
1899.000000	100.074062
1898.000000	100.071070
1897.000000	100.067814
1896.000000	100.063399
1895.000000	100.057879
1894.000000	100.051957
1893.000000	100.046326
1892.000000	100.041878
1891.000000	100.039770
1890.000000	100.040154
1889.000000	100.041056
1888.000000	100.040199
1887.000000	100.037721
1886.000000	100.035327
1885.000000	100.033663
1884.000000	100.031917
1883.000000	100.029776
1882.000000	100.028409
1881.000000	100.028866
1880.000000	100.030739
1879.000000	100.033037
1878.000000	100.035194
1877.000000	100.036651
1876.000000	100.036399
1875.000000	100.033882
1874.000000	100.030119
1873.000000	100.027146
1872.000000	100.026303
1871.000000	100.027526
1870.000000	100.029791
1869.000000	100.031600
1868.000000	100.031692
1867.000000	100.030335
1866.000000	100.029268
1865.000000	100.029933
1864.000000	100.032498
1863.000000	100.036356
1862.000000	100.040817
1861.000000	100.045168
1860.000000	100.048596
1859.000000	100.050669
1858.000000	100.051756
1857.000000	100.052691
1856.000000	100.054184
1855.000000	100.056647
1854.000000	100.060155
1853.000000	100.064357
1852.000000	100.068797
1851.000000	100.073671
1850.000000	100.079259
1849.000000	100.084927
1848.000000	100.089443
1847.000000	100.092400
1846.000000	100.094580
1845.000000	100.096841
1844.000000	100.099089
1843.000000	100.100625
1842.000000	100.101258
1841.000000	100.101127
1840.000000	100.100668
1839.000000	100.100911
1838.000000	100.102302
1837.000000	100.103644
1836.000000	100.103538
1835.000000	100.102854
1834.000000	100.104091
1833.000000	100.108135
1832.000000	100.113206
1831.000000	100.117052
1830.000000	100.118928
1829.000000	100.119417
1828.000000	100.119151
1827.000000	100.118270
1826.000000	100.116719
1825.000000	100.114609
1824.000000	100.112215
1823.000000	100.110007
1822.000000	100.108582
1821.000000	100.108022
1820.000000	100.107694
1819.000000	100.107123
1818.000000	100.106939
1817.000000	100.108249
1816.000000	100.110685
1815.000000	100.112412
1814.000000	100.112413
1813.000000	100.111556
1812.000000	100.111268
1811.000000	100.111503
1810.000000	100.111082
1809.000000	100.109568
1808.000000	100.107460
1807.000000	100.105445
1806.000000	100.104252
1805.000000	100.104332
1804.000000	100.104962
1803.000000	100.104502
1802.000000	100.102369
1801.000000	100.100127
1800.000000	100.099750
1799.000000	100.101046
1798.000000	100.102543
1797.000000	100.103732
1796.000000	100.105124
1795.000000	100.106983
1794.000000	100.109058
1793.000000	100.111343
1792.000000	100.114285
1791.000000	100.117558
1790.000000	100.120183
1789.000000	100.121692
1788.000000	100.122261
1787.000000	100.122186
1786.000000	100.121477
1785.000000	100.120136
1784.000000	100.118749
1783.000000	100.118322
1782.000000	100.119261
1781.000000	100.120761
1780.000000	100.122060
1779.000000	100.123518
1778.000000	100.126099
1777.000000	100.129883
1776.000000	100.134012
1775.000000	100.138102
1774.000000	100.142606
1773.000000	100.147449
1772.000000	100.151019
1771.000000	100.152245
1770.000000	100.152661
1769.000000	100.154597
1768.000000	100.158710
1767.000000	100.163347
1766.000000	100.166260
1765.000000	100.166801
1764.000000	100.166124
1763.000000	100.166159
1762.000000	100.167956
1761.000000	100.170552
1760.000000	100.172720
1759.000000	100.174474
1758.000000	100.176319
1757.000000	100.177905
1756.000000	100.178378
1755.000000	100.177902
1754.000000	100.177462
1753.000000	100.177557
1752.000000	100.178046
1751.000000	100.178867
1750.000000	100.180388
1749.000000	100.183061
1748.000000	100.186520
1747.000000	100.189586
1746.000000	100.191059
1745.000000	100.190499
1744.000000	100.188751
1743.000000	100.187458
1742.000000	100.187737
1741.000000	100.189399
1740.000000	100.191390
1739.000000	100.192682
1738.000000	100.193125
1737.000000	100.193250
1736.000000	100.193800
1735.000000	100.195733
1734.000000	100.198516
1733.000000	100.198912
1732.000000	100.195883
1731.000000	100.191598
1730.000000	100.188406
1729.000000	100.187100
1728.000000	100.186479
1727.000000	100.185167
1726.000000	100.183238
1725.000000	100.181535
1724.000000	100.180171
1723.000000	100.178451
1722.000000	100.176467
1721.000000	100.175186
1720.000000	100.174664
1719.000000	100.173212
1718.000000	100.169295
1717.000000	100.164926
1716.000000	100.163552
1715.000000	100.164851
1714.000000	100.166024
1713.000000	100.165324
1712.000000	100.162759
1711.000000	100.159167
1710.000000	100.155747
1709.000000	100.153738
1708.000000	100.153239
1707.000000	100.152249
1706.000000	100.148180
1705.000000	100.141300
1704.000000	100.134754
1703.000000	100.130135
1702.000000	100.126084
1701.000000	100.120965
1700.000000	100.115802
1699.000000	100.112906
1698.000000	100.112396
1697.000000	100.112448
1696.000000	100.110883
1695.000000	100.106747
1694.000000	100.101499
1693.000000	100.096789
1692.000000	100.092536
1691.000000	100.087996
1690.000000	100.082761
1689.000000	100.077027
1688.000000	100.071344
1687.000000	100.066037
1686.000000	100.060995
1685.000000	100.056789
1684.000000	100.054699
1683.000000	100.054168
1682.000000	100.053672
1681.000000	100.052569
1680.000000	100.050988
1679.000000	100.049304
1678.000000	100.047246
1677.000000	100.043996
1676.000000	100.039354
1675.000000	100.034542
1674.000000	100.030859
1673.000000	100.028055
1672.000000	100.025336
1671.000000	100.022667
1670.000000	100.020758
1669.000000	100.019511
1668.000000	100.017756
1667.000000	100.014883
1666.000000	100.011025
1665.000000	100.006638
1664.000000	100.002749
1663.000000	100.000738
1662.000000	100.000747
1661.000000	100.000898
1660.000000	99.999615
1659.000000	99.997123
1658.000000	99.994452
1657.000000	99.991842
1656.000000	99.988424
1655.000000	99.983451
1654.000000	99.978107
1653.000000	99.974948
1652.000000	99.973192
1651.000000	99.972401
1650.000000	99.972889
1649.000000	99.973305
1648.000000	99.971726
1647.000000	99.966886
1646.000000	99.960516
1645.000000	99.956653
1644.000000	99.956995
1643.000000	99.960016
1642.000000	99.963319
1641.000000	99.965064
1640.000000	99.964343
1639.000000	99.961001
1638.000000	99.955170
1637.000000	99.947547
1636.000000	99.940198
1635.000000	99.935614
1634.000000	99.934037
1633.000000	99.934557
1632.000000	99.936374
1631.000000	99.939318
1630.000000	99.943405
1629.000000	99.947628
1628.000000	99.950139
1627.000000	99.950326
1626.000000	99.949639
1625.000000	99.949720
1624.000000	99.951105
1623.000000	99.953364
1622.000000	99.955905
1621.000000	99.958381
1620.000000	99.960361
1619.000000	99.961049
1618.000000	99.960037
1617.000000	99.958540
1616.000000	99.958999
1615.000000	99.962860
1614.000000	99.968969
1613.000000	99.974749
1612.000000	99.978841
1611.000000	99.982382
1610.000000	99.987572
1609.000000	99.994632
1608.000000	100.001369
1607.000000	100.005778
1606.000000	100.007979
1605.000000	100.009548
1604.000000	100.012304
1603.000000	100.017302
1602.000000	100.024003
1601.000000	100.030653
1600.000000	100.036046
1599.000000	100.040394
1598.000000	100.044276
1597.000000	100.047899
1596.000000	100.051950
1595.000000	100.057846
1594.000000	100.065718
1593.000000	100.072936
1592.000000	100.076748
1591.000000	100.077887
1590.000000	100.079986
1589.000000	100.084980
1588.000000	100.090856
1587.000000	100.094802
1586.000000	100.096809
1585.000000	100.098960
1584.000000	100.102343
1583.000000	100.106336
1582.000000	100.110032
1581.000000	100.113203
1580.000000	100.116022
1579.000000	100.118898
1578.000000	100.122536
1577.000000	100.127351
1576.000000	100.131782
1575.000000	100.133779
1574.000000	100.134527
1573.000000	100.136037
1572.000000	100.138732
1571.000000	100.142018
1570.000000	100.144864
1569.000000	100.146430
1568.000000	100.147508
1567.000000	100.150076
1566.000000	100.154763
1565.000000	100.160361
1564.000000	100.164916
1563.000000	100.167611
1562.000000	100.169057
1561.000000	100.170255
1560.000000	100.171521
1559.000000	100.172321
1558.000000	100.170705
1557.000000	100.168123
1556.000000	100.166930
1555.000000	100.166261
1554.000000	100.165850
1553.000000	100.166848
1552.000000	100.170277
1551.000000	100.175440
1550.000000	100.180220
1549.000000	100.182760
1548.000000	100.182637
1547.000000	100.180412
1546.000000	100.176582
1545.000000	100.172040
1544.000000	100.168098
1543.000000	100.165402
1542.000000	100.163724
1541.000000	100.163344
1540.000000	100.164340
1539.000000	100.165097
1538.000000	100.165270
1537.000000	100.165814
1536.000000	100.166319
1535.000000	100.165987
1534.000000	100.165119
1533.000000	100.165025
1532.000000	100.166227
1531.000000	100.167628
1530.000000	100.167939
1529.000000	100.166907
1528.000000	100.165430
1527.000000	100.164744
1526.000000	100.165200
1525.000000	100.166077
1524.000000	100.166592
1523.000000	100.166547
1522.000000	100.166195
1521.000000	100.165720
1520.000000	100.165019
1519.000000	100.164170
1518.000000	100.163461
1517.000000	100.163256
1516.000000	100.163555
1515.000000	100.163811
1514.000000	100.163628
1513.000000	100.163134
1512.000000	100.162766
1511.000000	100.162733
1510.000000	100.162830
1509.000000	100.162820
1508.000000	100.162876
1507.000000	100.163258
1506.000000	100.163384
1505.000000	100.162814
1504.000000	100.162136
1503.000000	100.161827
1502.000000	100.162018
1501.000000	100.162760
1500.000000	100.164078
1499.000000	100.165849
1498.000000	100.167536
1497.000000	100.168380
1496.000000	100.168110
1495.000000	100.167235
1494.000000	100.166302
1493.000000	100.165244
1492.000000	100.163917
1491.000000	100.162831
1490.000000	100.162828
1489.000000	100.163706
1488.000000	100.164208
1487.000000	100.163630
1486.000000	100.162547
1485.000000	100.161772
1484.000000	100.161380
1483.000000	100.161144
1482.000000	100.161116
1481.000000	100.161611
1480.000000	100.162419
1479.000000	100.162685
1478.000000	100.161817
1477.000000	100.160371
1476.000000	100.159796
1475.000000	100.160892
1474.000000	100.163085
1473.000000	100.164958
1472.000000	100.165633
1471.000000	100.165482
1470.000000	100.165184
1469.000000	100.164544
1468.000000	100.162996
1467.000000	100.160619
1466.000000	100.158512
1465.000000	100.157858
1464.000000	100.158237
1463.000000	100.158049
1462.000000	100.156499
1461.000000	100.154056
1460.000000	100.151781
1459.000000	100.151095
1458.000000	100.152975
1457.000000	100.155801
1456.000000	100.155976
1455.000000	100.153708
1454.000000	100.151449
1453.000000	100.149816
1452.000000	100.147755
1451.000000	100.143440
1450.000000	100.136119
1449.000000	100.127973
1448.000000	100.123074
1447.000000	100.122815
1446.000000	100.124129
1445.000000	100.123287
1444.000000	100.119526
1443.000000	100.114601
1442.000000	100.110734
1441.000000	100.109058
1440.000000	100.109161
1439.000000	100.109306
1438.000000	100.107059
1437.000000	100.101656
1436.000000	100.096054
1435.000000	100.093673
1434.000000	100.094099
1433.000000	100.095043
1432.000000	100.095140
1431.000000	100.094477
1430.000000	100.093550
1429.000000	100.092827
1428.000000	100.092937
1427.000000	100.094190
1426.000000	100.096176
1425.000000	100.098015
1424.000000	100.099365
1423.000000	100.100348
1422.000000	100.100764
1421.000000	100.100405
1420.000000	100.099915
1419.000000	100.100395
1418.000000	100.101236
1417.000000	100.101184
1416.000000	100.100283
1415.000000	100.099337
1414.000000	100.099624
1413.000000	100.102665
1412.000000	100.109089
1411.000000	100.117117
1410.000000	100.123236
1409.000000	100.125934
1408.000000	100.127288
1407.000000	100.129913
1406.000000	100.133733
1405.000000	100.136529
1404.000000	100.137875
1403.000000	100.140194
1402.000000	100.145311
1401.000000	100.152401
1400.000000	100.158933
1399.000000	100.162744
1398.000000	100.163678
1397.000000	100.163487
1396.000000	100.164151
1395.000000	100.166539
1394.000000	100.169932
1393.000000	100.173078
1392.000000	100.175895
1391.000000	100.178807
1390.000000	100.181749
1389.000000	100.184459
1388.000000	100.187224
1387.000000	100.190685
1386.000000	100.194658
1385.000000	100.197908
1384.000000	100.199493
1383.000000	100.199886
1382.000000	100.200675
1381.000000	100.202913
1380.000000	100.205679
1379.000000	100.207117
1378.000000	100.206821
1377.000000	100.206335
1376.000000	100.207052
1375.000000	100.208422
1374.000000	100.208860
1373.000000	100.208218
1372.000000	100.208008
1371.000000	100.209002
1370.000000	100.210315
1369.000000	100.210788
1368.000000	100.210502
1367.000000	100.210283
1366.000000	100.210248
1365.000000	100.209741
1364.000000	100.208409
1363.000000	100.206909
1362.000000	100.206587
1361.000000	100.208377
1360.000000	100.211810
1359.000000	100.214824
1358.000000	100.215012
1357.000000	100.211797
1356.000000	100.207517
1355.000000	100.205505
1354.000000	100.206702
1353.000000	100.209224
1352.000000	100.210968
1351.000000	100.211456
1350.000000	100.211311
1349.000000	100.211019
1348.000000	100.210964
1347.000000	100.211550
1346.000000	100.212545
1345.000000	100.212891
1344.000000	100.211729
1343.000000	100.209045
1342.000000	100.205137
1341.000000	100.200508
1340.000000	100.196812
1339.000000	100.196325
1338.000000	100.199101
1337.000000	100.202248
1336.000000	100.203418
1335.000000	100.203478
1334.000000	100.204595
1333.000000	100.206728
1332.000000	100.207547
1331.000000	100.205649
1330.000000	100.202406
1329.000000	100.200358
1328.000000	100.200950
1327.000000	100.203984
1326.000000	100.208013
1325.000000	100.210970
1324.000000	100.211831
1323.000000	100.211916
1322.000000	100.213481
1321.000000	100.216632
1320.000000	100.218756
1319.000000	100.217534
1318.000000	100.213484
1317.000000	100.208823
1316.000000	100.204802
1315.000000	100.201397
1314.000000	100.198879
1313.000000	100.198267
1312.000000	100.200172
1311.000000	100.204018
1310.000000	100.208641
1309.000000	100.213112
1308.000000	100.216632
1307.000000	100.218065
1306.000000	100.216462
1305.000000	100.212255
1304.000000	100.207667
1303.000000	100.205221
1302.000000	100.205649
1301.000000	100.207713
1300.000000	100.209946
1299.000000	100.211744
1298.000000	100.212811
1297.000000	100.212726
1296.000000	100.211577
1295.000000	100.210228
1294.000000	100.209189
1293.000000	100.207813
1292.000000	100.205146
1291.000000	100.200865
1290.000000	100.194972
1289.000000	100.187578
1288.000000	100.179986
1287.000000	100.174969
1286.000000	100.174390
1285.000000	100.176728
1284.000000	100.178085
1283.000000	100.175762
1282.000000	100.170330
1281.000000	100.164436
1280.000000	100.160234
1279.000000	100.157987
1278.000000	100.156608
1277.000000	100.155501
1276.000000	100.155810
1275.000000	100.159255
1274.000000	100.165584
1273.000000	100.172045
1272.000000	100.175878
1271.000000	100.176624
1270.000000	100.175488
1269.000000	100.173299
1268.000000	100.170067
1267.000000	100.166104
1266.000000	100.162846
1265.000000	100.162558
1264.000000	100.166708
1263.000000	100.173502
1262.000000	100.177521
1261.000000	100.174104
1260.000000	100.164724
1259.000000	100.156040
1258.000000	100.152464
1257.000000	100.151798
1256.000000	100.149379
1255.000000	100.143809
1254.000000	100.136474
1253.000000	100.127587
1252.000000	100.115992
1251.000000	100.102505
1250.000000	100.090559
1249.000000	100.082831
1248.000000	100.078613
1247.000000	100.074491
1246.000000	100.066424
1245.000000	100.051844
1244.000000	100.031584
1243.000000	100.010102
1242.000000	99.992486
1241.000000	99.980623
1240.000000	99.972540
1239.000000	99.964824
1238.000000	99.955065
1237.000000	99.942766
1236.000000	99.928993
1235.000000	99.915032
1234.000000	99.901007
1233.000000	99.885981
1232.000000	99.868887
1231.000000	99.848059
1230.000000	99.820474
1229.000000	99.784308
1228.000000	99.743123
1227.000000	99.704717
1226.000000	99.673332
1225.000000	99.644430
1224.000000	99.609329
1223.000000	99.563538
1222.000000	99.508922
1221.000000	99.449695
1220.000000	99.388968
1219.000000	99.328163
1218.000000	99.266800
1217.000000	99.202546
1216.000000	99.133019
1215.000000	99.057789
1214.000000	98.978370
1213.000000	98.897364
1212.000000	98.818135
1211.000000	98.743170
1210.000000	98.671411
1209.000000	98.599093
1208.000000	98.524425
1207.000000	98.449501
1206.000000	98.376636
1205.000000	98.305075
1204.000000	98.232519
1203.000000	98.157745
1202.000000	98.081141
1201.000000	98.005050
1200.000000	97.933651
1199.000000	97.869087
1198.000000	97.807086
1197.000000	97.740077
1196.000000	97.665280
1195.000000	97.586137
1194.000000	97.505772
1193.000000	97.423850
1192.000000	97.340979
1191.000000	97.260721
1190.000000	97.184484
1189.000000	97.108777
1188.000000	97.030219
1187.000000	96.949595
1186.000000	96.868887
1185.000000	96.788148
1184.000000	96.707263
1183.000000	96.626536
1182.000000	96.543442
1181.000000	96.453270
1180.000000	96.355363
1179.000000	96.254645
1178.000000	96.154940
1177.000000	96.055240
1176.000000	95.954234
1175.000000	95.852808
1174.000000	95.749571
1173.000000	95.640070
1172.000000	95.524166
1171.000000	95.408758
1170.000000	95.299362
1169.000000	95.194125
1168.000000	95.089855
1167.000000	94.988856
1166.000000	94.896622
1165.000000	94.818849
1164.000000	94.764554
1163.000000	94.745087
1162.000000	94.763836
1161.000000	94.810337
1160.000000	94.867682
1159.000000	94.921242
1158.000000	94.958122
1157.000000	94.965984
1156.000000	94.939412
1155.000000	94.884626
1154.000000	94.813301
1153.000000	94.733455
1152.000000	94.648992
1151.000000	94.563610
1150.000000	94.479779
1149.000000	94.396427
1148.000000	94.312071
1147.000000	94.228252
1146.000000	94.146824
1145.000000	94.066409
1144.000000	93.984198
1143.000000	93.898721
1142.000000	93.809331
1141.000000	93.716648
1140.000000	93.624962
1139.000000	93.539608
1138.000000	93.459902
1137.000000	93.379100
1136.000000	93.292864
1135.000000	93.202739
1134.000000	93.110100
1133.000000	93.012858
1132.000000	92.910457
1131.000000	92.806183
1130.000000	92.702065
1129.000000	92.597173
1128.000000	92.492909
1127.000000	92.393288
1126.000000	92.297481
1125.000000	92.198994
1124.000000	92.095197
1123.000000	91.991083
1122.000000	91.890964
1121.000000	91.793444
1120.000000	91.697238
1119.000000	91.604088
1118.000000	91.512472
1117.000000	91.416395
1116.000000	91.314371
1115.000000	91.212431
1114.000000	91.114825
1113.000000	91.019134
1112.000000	90.923641
1111.000000	90.831269
1110.000000	90.742998
1109.000000	90.655749
1108.000000	90.569705
1107.000000	90.488906
1106.000000	90.411683
1105.000000	90.329440
1104.000000	90.238351
1103.000000	90.143864
1102.000000	90.051166
1101.000000	89.960124
1100.000000	89.871776
1099.000000	89.789810
1098.000000	89.713024
1097.000000	89.635297
1096.000000	89.555247
1095.000000	89.476888
1094.000000	89.400335
1093.000000	89.322759
1092.000000	89.248880
1091.000000	89.187669
1090.000000	89.136869
1089.000000	89.083700
1088.000000	89.023214
1087.000000	88.962928
1086.000000	88.907365
1085.000000	88.852282
1084.000000	88.797176
1083.000000	88.748466
1082.000000	88.705572
1081.000000	88.658261
1080.000000	88.603560
1079.000000	88.551863
1078.000000	88.510227
1077.000000	88.471878
1076.000000	88.427999
1075.000000	88.377318
1074.000000	88.318139
1073.000000	88.242871
1072.000000	88.146916
1071.000000	88.033265
1070.000000	87.903739
1069.000000	87.755273
1068.000000	87.588248
1067.000000	87.408385
1066.000000	87.218124
1065.000000	87.017822
1064.000000	86.817907
1063.000000	86.635978
1062.000000	86.477183
1061.000000	86.330133
1060.000000	86.185191
1059.000000	86.042905
1058.000000	85.902446
1057.000000	85.758107
1056.000000	85.611491
1055.000000	85.471084
1054.000000	85.334349
1053.000000	85.185917
1052.000000	85.019757
1051.000000	84.846883
1050.000000	84.674009
1049.000000	84.492910
1048.000000	84.299133
1047.000000	84.101332
1046.000000	83.903828
1045.000000	83.698631
1044.000000	83.481965
1043.000000	83.262111
1042.000000	83.044685
1041.000000	82.826030
1040.000000	82.607259
1039.000000	82.398729
1038.000000	82.204290
1037.000000	82.017371
1036.000000	81.838374
1035.000000	81.678393
1034.000000	81.539259
1033.000000	81.407653
1032.000000	81.275786
1031.000000	81.150934
1030.000000	81.038588
1029.000000	80.934664
1028.000000	80.840730
1027.000000	80.767130
1026.000000	80.712215
1025.000000	80.656575
1024.000000	80.587318
1023.000000	80.512184
1022.000000	80.442017
1021.000000	80.376154
1020.000000	80.312523
1019.000000	80.254846
1018.000000	80.201301
1017.000000	80.141898
1016.000000	80.075134
1015.000000	80.012292
1014.000000	79.958300
1013.000000	79.903497
1012.000000	79.840986
1011.000000	79.777424
1010.000000	79.720680
1009.000000	79.671281
1008.000000	79.630699
1007.000000	79.602635
1006.000000	79.581369
1005.000000	79.554601
1004.000000	79.522299
1003.000000	79.496850
1002.000000	79.480964
1001.000000	79.462937
1000.000000	79.438500
999.000000	79.419532
998.000000	79.414810
997.000000	79.418978
996.000000	79.426807
995.000000	79.442202
994.000000	79.466451
993.000000	79.492478
992.000000	79.516867
991.000000	79.544135
990.000000	79.575311
989.000000	79.606771
988.000000	79.643429
987.000000	79.697316
986.000000	79.769545
985.000000	79.849313
984.000000	79.933640
983.000000	80.031818
982.000000	80.147306
981.000000	80.272370
980.000000	80.404345
979.000000	80.550238
978.000000	80.710966
977.000000	80.878118
976.000000	81.051089
975.000000	81.240920
974.000000	81.451844
973.000000	81.674275
972.000000	81.900478
971.000000	82.131685
970.000000	82.365082
969.000000	82.590078
968.000000	82.804338
967.000000	83.019644
966.000000	83.244973
965.000000	83.475479
964.000000	83.703519
963.000000	83.928805
962.000000	84.151969
961.000000	84.368716
960.000000	84.576207
959.000000	84.777088
958.000000	84.973445
957.000000	85.164074
956.000000	85.349155
955.000000	85.529429
954.000000	85.700458
953.000000	85.856730
952.000000	86.001359
951.000000	86.142262
950.000000	86.279763
949.000000	86.408884
948.000000	86.532456
947.000000	86.658494
946.000000	86.783679
945.000000	86.893276
944.000000	86.980739
943.000000	87.056058
942.000000	87.131916
941.000000	87.211913
940.000000	87.295061
939.000000	87.380544
938.000000	87.464092
937.000000	87.539461
936.000000	87.607329
935.000000	87.675023
934.000000	87.746222
933.000000	87.819725
932.000000	87.898576
931.000000	87.989438
930.000000	88.091053
929.000000	88.193349
928.000000	88.289688
927.000000	88.380751
926.000000	88.466272
925.000000	88.543813
924.000000	88.616914
923.000000	88.693554
922.000000	88.774458
921.000000	88.852528
920.000000	88.924892
919.000000	88.995543
918.000000	89.065646
917.000000	89.132324
916.000000	89.198071
915.000000	89.269902
914.000000	89.347386
913.000000	89.423236
912.000000	89.498729
911.000000	89.587224
910.000000	89.698315
909.000000	89.828177
908.000000	89.968884
907.000000	90.118560
906.000000	90.279634
905.000000	90.455090
904.000000	90.648071
903.000000	90.857611
902.000000	91.074590
901.000000	91.289794
900.000000	91.504526
899.000000	91.724428
898.000000	91.945389
897.000000	92.156357
896.000000	92.354643
895.000000	92.547101
894.000000	92.736658
893.000000	92.919084
892.000000	93.093970
891.000000	93.267783
890.000000	93.443179
889.000000	93.613689
888.000000	93.771524
887.000000	93.914540
886.000000	94.045830
885.000000	94.173065
884.000000	94.306648
883.000000	94.450225
882.000000	94.594253
881.000000	94.727587
880.000000	94.853218
879.000000	94.982722
878.000000	95.117467
877.000000	95.247819
876.000000	95.370941
875.000000	95.496353
874.000000	95.631459
873.000000	95.772189
872.000000	95.910372
871.000000	96.041659
870.000000	96.165516
869.000000	96.285769
868.000000	96.410900
867.000000	96.545497
866.000000	96.682490
865.000000	96.812415
864.000000	96.937891
863.000000	97.068187
862.000000	97.200730
861.000000	97.320729
860.000000	97.421391
859.000000	97.513497
858.000000	97.611243
857.000000	97.717253
856.000000	97.824947
855.000000	97.926710
854.000000	98.015555
853.000000	98.086742
852.000000	98.142908
851.000000	98.192868
850.000000	98.242576
849.000000	98.291814
848.000000	98.339858
847.000000	98.386464
846.000000	98.425942
845.000000	98.449869
844.000000	98.459498
843.000000	98.466393
842.000000	98.474695
841.000000	98.470312
840.000000	98.435198
839.000000	98.367338
838.000000	98.280319
837.000000	98.187444
836.000000	98.094002
835.000000	98.003445
834.000000	97.923338
833.000000	97.862768
832.000000	97.826347
831.000000	97.811243
830.000000	97.809495
829.000000	97.814253
828.000000	97.823127
827.000000	97.834156
826.000000	97.842734
825.000000	97.848068
824.000000	97.858703
823.000000	97.883222
822.000000	97.918210
821.000000	97.953608
820.000000	97.984252
819.000000	98.005223
818.000000	98.001976
817.000000	97.959637
816.000000	97.881386
815.000000	97.784401
814.000000	97.674155
813.000000	97.534092
812.000000	97.345620
811.000000	97.106043
810.000000	96.818170
809.000000	96.472712
808.000000	96.054756
807.000000	95.565262
806.000000	95.026843
805.000000	94.470230
804.000000	93.922874
803.000000	93.407349
802.000000	92.941098
801.000000	92.537942
800.000000	92.213562
799.000000	91.984550
798.000000	91.857805
797.000000	91.825992
796.000000	91.874775
795.000000	91.986453
794.000000	92.135989
793.000000	92.294716
792.000000	92.442791
791.000000	92.572357
790.000000	92.677836
789.000000	92.749348
788.000000	92.775542
787.000000	92.747250
786.000000	92.660154
785.000000	92.520560
784.000000	92.346639
783.000000	92.157310
782.000000	91.963081
781.000000	91.776073
780.000000	91.623615
779.000000	91.537516
778.000000	91.529965
777.000000	91.591922
776.000000	91.712734
775.000000	91.885892
774.000000	92.096455
773.000000	92.320640
772.000000	92.541715
771.000000	92.753153
770.000000	92.945040
769.000000	93.102341
768.000000	93.220371
767.000000	93.309423
766.000000	93.380299
765.000000	93.435945
764.000000	93.479395
763.000000	93.517652
762.000000	93.554425
761.000000	93.590887
760.000000	93.636525
759.000000	93.705832
758.000000	93.798929
757.000000	93.897447
756.000000	93.985060
755.000000	94.061792
754.000000	94.134494
753.000000	94.205345
752.000000	94.275488
751.000000	94.348835
750.000000	94.425523
749.000000	94.500898
748.000000	94.577055
747.000000	94.666500
746.000000	94.778094
745.000000	94.906756
744.000000	95.041347
743.000000	95.174168
742.000000	95.299474
741.000000	95.414568
740.000000	95.529169
739.000000	95.662605
738.000000	95.821628
737.000000	95.987741
736.000000	96.135203
735.000000	96.255749
734.000000	96.358127
733.000000	96.449766
732.000000	96.529017
731.000000	96.593280
730.000000	96.645230
729.000000	96.688968
728.000000	96.725206
727.000000	96.753409
726.000000	96.778196
725.000000	96.812018
724.000000	96.868175
723.000000	96.947783
722.000000	97.035616
721.000000	97.114049
720.000000	97.181130
719.000000	97.250290
718.000000	97.333072
717.000000	97.428697
716.000000	97.528970
715.000000	97.624085
714.000000	97.703322
713.000000	97.759319
712.000000	97.795014
711.000000	97.820786
710.000000	97.842761
709.000000	97.859063
708.000000	97.867592
707.000000	97.869623
706.000000	97.863705
705.000000	97.843374
704.000000	97.803275
703.000000	97.739815
702.000000	97.641856
701.000000	97.488142
700.000000	97.261414
699.000000	96.966393
698.000000	96.636700
697.000000	96.327495
696.000000	96.095159
695.000000	95.971496
694.000000	95.952811
693.000000	96.015459
692.000000	96.137586
691.000000	96.300891
690.000000	96.481137
689.000000	96.653485
688.000000	96.807703
687.000000	96.945271
686.000000	97.062270
685.000000	97.151001
684.000000	97.217822
683.000000	97.280662
682.000000	97.345728
681.000000	97.403333
680.000000	97.451481
679.000000	97.506434
678.000000	97.580424
677.000000	97.663625
676.000000	97.738929
675.000000	97.802968
674.000000	97.863320
673.000000	97.923250
672.000000	97.979856
671.000000	98.033338
670.000000	98.091478
669.000000	98.164649
668.000000	98.247989
667.000000	98.321342
666.000000	98.379674
665.000000	98.425570
664.000000	98.461746
663.000000	98.492889
662.000000	98.518940
661.000000	98.533591
660.000000	98.535238
659.000000	98.532653
658.000000	98.534872
657.000000	98.541781
656.000000	98.549567
655.000000	98.555716
654.000000	98.554229
653.000000	98.535960
652.000000	98.502182
651.000000	98.471682
650.000000	98.467152
649.000000	98.498888
648.000000	98.564140
647.000000	98.649701
646.000000	98.731960
645.000000	98.790757
644.000000	98.829435
643.000000	98.870333
642.000000	98.927674
641.000000	98.996467
640.000000	99.068736
639.000000	99.143636
638.000000	99.217475
637.000000	99.281580
636.000000	99.335465
635.000000	99.385955
634.000000	99.430780
633.000000	99.462033
632.000000	99.489008
631.000000	99.534741
630.000000	99.601126
629.000000	99.659146
628.000000	99.688144
627.000000	99.707682
626.000000	99.757396
625.000000	99.854220
624.000000	99.980866
623.000000	100.102856
622.000000	100.187054
621.000000	100.220139
620.000000	100.219338
619.000000	100.217073
618.000000	100.229165
617.000000	100.248364
616.000000	100.269505
615.000000	100.293662
614.000000	100.303644
613.000000	100.270472
612.000000	100.194640
611.000000	100.115946
610.000000	100.069912
609.000000	100.055604
608.000000	100.059997
607.000000	100.080306
606.000000	100.108753
605.000000	100.133890
604.000000	100.170265
603.000000	100.243186
602.000000	100.327357
601.000000	100.349953
600.000000	100.280768
599.000000	100.179097
598.000000	100.115572
597.000000	100.077117
596.000000	100.004999
595.000000	99.897048
594.000000	99.813258
593.000000	99.786250
592.000000	99.787121
591.000000	99.781313
590.000000	99.769771
589.000000	99.770752
588.000000	99.800310
587.000000	99.871785
586.000000	99.975859
585.000000	100.063977
584.000000	100.088965
583.000000	100.061167
582.000000	100.036785
581.000000	100.050749
580.000000	100.095019
579.000000	100.156497
578.000000	100.229748
577.000000	100.292272
576.000000	100.313378
575.000000	100.301000
574.000000	100.305302
573.000000	100.356380
572.000000	100.433550
571.000000	100.502970
570.000000	100.549562
569.000000	100.562065
568.000000	100.518583
567.000000	100.412331
566.000000	100.276612
565.000000	100.168029
564.000000	100.129551
563.000000	100.161334
562.000000	100.209765
561.000000	100.209242
560.000000	100.148539
559.000000	100.077065
558.000000	100.041808
557.000000	100.036773
556.000000	100.026855
555.000000	99.986853
554.000000	99.915008
553.000000	99.849499
552.000000	99.865005
551.000000	99.997849
550.000000	100.170371
