PE IR       SUBTECH     SPECTRUM    ASCII       PEDS        4.00        
   -1
BH1 8-2 5 5_1.asc
24/05/15
15:04:31.00
24/05/15
15:05:53.00
Administrator
?品 097 用? Administrator 日期 Wednesday, May 15 2024
550.000000
#HDR
-1
-1
#GR
cm-1
%T
1.0
0.0
4000.000000
-1.000000
3451
8
100.417481
88.835278
#DATA
4000.000000	100.297895
3999.000000	100.296943
3998.000000	100.293450
3997.000000	100.288422
3996.000000	100.283620
3995.000000	100.280261
3994.000000	100.278242
3993.000000	100.276493
3992.000000	100.274157
3991.000000	100.271715
3990.000000	100.270614
3989.000000	100.271608
3988.000000	100.273677
3987.000000	100.274742
3986.000000	100.273719
3985.000000	100.271757
3984.000000	100.271300
3983.000000	100.273861
3982.000000	100.278688
3981.000000	100.283257
3980.000000	100.285214
3979.000000	100.283898
3978.000000	100.280255
3977.000000	100.275868
3976.000000	100.272036
3975.000000	100.269478
3974.000000	100.268355
3973.000000	100.268255
3972.000000	100.268494
3971.000000	100.268667
3970.000000	100.268870
3969.000000	100.269322
3968.000000	100.269826
3967.000000	100.269962
3966.000000	100.269775
3965.000000	100.269962
3964.000000	100.271240
3963.000000	100.273678
3962.000000	100.276695
3961.000000	100.279590
3960.000000	100.281910
3959.000000	100.283305
3958.000000	100.283270
3957.000000	100.281421
3956.000000	100.278117
3955.000000	100.274743
3954.000000	100.272856
3953.000000	100.272938
3952.000000	100.274155
3951.000000	100.275152
3950.000000	100.275240
3949.000000	100.274785
3948.000000	100.274540
3947.000000	100.274771
3946.000000	100.275146
3945.000000	100.275340
3944.000000	100.275476
3943.000000	100.275891
3942.000000	100.276521
3941.000000	100.276796
3940.000000	100.276359
3939.000000	100.275617
3938.000000	100.275372
3937.000000	100.276052
3936.000000	100.277426
3935.000000	100.278989
3934.000000	100.280304
3933.000000	100.280967
3932.000000	100.280627
3931.000000	100.279296
3930.000000	100.277636
3929.000000	100.276564
3928.000000	100.276469
3927.000000	100.277045
3926.000000	100.277742
3925.000000	100.278368
3924.000000	100.279052
3923.000000	100.279778
3922.000000	100.280473
3921.000000	100.281280
3920.000000	100.282301
3919.000000	100.283215
3918.000000	100.283481
3917.000000	100.282940
3916.000000	100.281978
3915.000000	100.281156
3914.000000	100.280790
3913.000000	100.280834
3912.000000	100.280897
3911.000000	100.280603
3910.000000	100.280013
3909.000000	100.279717
3908.000000	100.280222
3907.000000	100.281529
3906.000000	100.283146
3905.000000	100.284628
3904.000000	100.285810
3903.000000	100.286477
3902.000000	100.286359
3901.000000	100.285695
3900.000000	100.285301
3899.000000	100.285739
3898.000000	100.286674
3897.000000	100.287368
3896.000000	100.287610
3895.000000	100.287720
3894.000000	100.287848
3893.000000	100.287858
3892.000000	100.287826
3891.000000	100.288185
3890.000000	100.288858
3889.000000	100.289229
3888.000000	100.288964
3887.000000	100.288296
3886.000000	100.287664
3885.000000	100.287161
3884.000000	100.286434
3883.000000	100.285394
3882.000000	100.284561
3881.000000	100.284477
3880.000000	100.285106
3879.000000	100.285898
3878.000000	100.286307
3877.000000	100.286279
3876.000000	100.286019
3875.000000	100.285768
3874.000000	100.285677
3873.000000	100.285720
3872.000000	100.285779
3871.000000	100.285837
3870.000000	100.285958
3869.000000	100.286029
3868.000000	100.285821
3867.000000	100.285344
3866.000000	100.284813
3865.000000	100.284391
3864.000000	100.284033
3863.000000	100.283652
3862.000000	100.283251
3861.000000	100.282870
3860.000000	100.282502
3859.000000	100.282118
3858.000000	100.281709
3857.000000	100.281284
3856.000000	100.280850
3855.000000	100.280418
3854.000000	100.280000
3853.000000	100.279608
3852.000000	100.279233
3851.000000	100.278853
3850.000000	100.278459
3849.000000	100.278062
3848.000000	100.277678
3847.000000	100.277322
3846.000000	100.277000
3845.000000	100.276710
3844.000000	100.276444
3843.000000	100.276187
3842.000000	100.275924
3841.000000	100.275641
3840.000000	100.275326
3839.000000	100.274984
3838.000000	100.274630
3837.000000	100.274282
3836.000000	100.273952
3835.000000	100.273649
3834.000000	100.273378
3833.000000	100.273142
3832.000000	100.272936
3831.000000	100.272747
3830.000000	100.272565
3829.000000	100.272387
3828.000000	100.272220
3827.000000	100.272076
3826.000000	100.271957
3825.000000	100.271856
3824.000000	100.271753
3823.000000	100.271630
3822.000000	100.271490
3821.000000	100.271349
3820.000000	100.271215
3819.000000	100.271076
3818.000000	100.270923
3817.000000	100.270762
3816.000000	100.270604
3815.000000	100.270453
3814.000000	100.270303
3813.000000	100.270153
3812.000000	100.270011
3811.000000	100.269878
3810.000000	100.269747
3809.000000	100.269612
3808.000000	100.269482
3807.000000	100.269365
3806.000000	100.269264
3805.000000	100.269166
3804.000000	100.269059
3803.000000	100.268946
3802.000000	100.268841
3801.000000	100.268762
3800.000000	100.268712
3799.000000	100.268692
3798.000000	100.268712
3797.000000	100.268778
3796.000000	100.268881
3795.000000	100.269000
3794.000000	100.269120
3793.000000	100.269234
3792.000000	100.269345
3791.000000	100.269453
3790.000000	100.269559
3789.000000	100.269666
3788.000000	100.269774
3787.000000	100.269881
3786.000000	100.269984
3785.000000	100.270086
3784.000000	100.270184
3783.000000	100.270279
3782.000000	100.270380
3781.000000	100.270508
3780.000000	100.270683
3779.000000	100.270906
3778.000000	100.271163
3777.000000	100.271431
3776.000000	100.271659
3775.000000	100.271855
3774.000000	100.272121
3773.000000	100.272535
3772.000000	100.273053
3771.000000	100.273598
3770.000000	100.274116
3769.000000	100.274509
3768.000000	100.274651
3767.000000	100.274614
3766.000000	100.274736
3765.000000	100.275274
3764.000000	100.276057
3763.000000	100.276620
3762.000000	100.276769
3761.000000	100.276773
3760.000000	100.276974
3759.000000	100.277379
3758.000000	100.277773
3757.000000	100.278078
3756.000000	100.278304
3755.000000	100.278461
3754.000000	100.278623
3753.000000	100.278847
3752.000000	100.278835
3751.000000	100.278194
3750.000000	100.277195
3749.000000	100.276389
3748.000000	100.275728
3747.000000	100.274790
3746.000000	100.273466
3745.000000	100.272512
3744.000000	100.272739
3743.000000	100.273283
3742.000000	100.272870
3741.000000	100.272125
3740.000000	100.272320
3739.000000	100.273563
3738.000000	100.274421
3737.000000	100.273582
3736.000000	100.271106
3735.000000	100.268058
3734.000000	100.265315
3733.000000	100.263148
3732.000000	100.261566
3731.000000	100.260166
3730.000000	100.258375
3729.000000	100.256193
3728.000000	100.254248
3727.000000	100.253039
3726.000000	100.252260
3725.000000	100.251056
3724.000000	100.249163
3723.000000	100.247170
3722.000000	100.245695
3721.000000	100.244599
3720.000000	100.243195
3719.000000	100.240985
3718.000000	100.237969
3717.000000	100.234595
3716.000000	100.231414
3715.000000	100.228911
3714.000000	100.227324
3713.000000	100.226173
3712.000000	100.224457
3711.000000	100.221720
3710.000000	100.218335
3709.000000	100.214866
3708.000000	100.211575
3707.000000	100.208631
3706.000000	100.206103
3705.000000	100.203680
3704.000000	100.200811
3703.000000	100.197347
3702.000000	100.194308
3701.000000	100.192920
3700.000000	100.192532
3699.000000	100.191032
3698.000000	100.187545
3697.000000	100.183463
3696.000000	100.180536
3695.000000	100.178652
3694.000000	100.176672
3693.000000	100.174258
3692.000000	100.171504
3691.000000	100.167864
3690.000000	100.163101
3689.000000	100.158956
3688.000000	100.156437
3687.000000	100.153054
3686.000000	100.146590
3685.000000	100.138750
3684.000000	100.133193
3683.000000	100.131283
3682.000000	100.130945
3681.000000	100.129984
3680.000000	100.128739
3679.000000	100.127691
3678.000000	100.124718
3677.000000	100.116937
3676.000000	100.106857
3675.000000	100.100863
3674.000000	100.097082
3673.000000	100.088579
3672.000000	100.075577
3671.000000	100.062736
3670.000000	100.053466
3669.000000	100.047290
3668.000000	100.040960
3667.000000	100.033780
3666.000000	100.027338
3665.000000	100.021344
3664.000000	100.013611
3663.000000	100.003213
3662.000000	99.992006
3661.000000	99.983012
3660.000000	99.977541
3659.000000	99.974620
3658.000000	99.972837
3657.000000	99.971857
3656.000000	99.971737
3655.000000	99.969813
3654.000000	99.963488
3653.000000	99.955278
3652.000000	99.950862
3651.000000	99.950423
3650.000000	99.945807
3649.000000	99.930802
3648.000000	99.910975
3647.000000	99.896021
3646.000000	99.887020
3645.000000	99.878515
3644.000000	99.867158
3643.000000	99.855206
3642.000000	99.846114
3641.000000	99.839998
3640.000000	99.833902
3639.000000	99.826667
3638.000000	99.820312
3637.000000	99.816235
3636.000000	99.813209
3635.000000	99.809576
3634.000000	99.805378
3633.000000	99.800490
3632.000000	99.794012
3631.000000	99.786661
3630.000000	99.781845
3629.000000	99.783293
3628.000000	99.788012
3627.000000	99.786624
3626.000000	99.778485
3625.000000	99.772649
3624.000000	99.774387
3623.000000	99.780084
3622.000000	99.783068
3621.000000	99.780874
3620.000000	99.776711
3619.000000	99.774826
3618.000000	99.775249
3617.000000	99.774857
3616.000000	99.773513
3615.000000	99.774938
3614.000000	99.782576
3613.000000	99.795402
3612.000000	99.808110
3611.000000	99.816047
3610.000000	99.819323
3609.000000	99.821158
3608.000000	99.823954
3607.000000	99.827723
3606.000000	99.831357
3605.000000	99.834232
3604.000000	99.835651
3603.000000	99.834530
3602.000000	99.831624
3601.000000	99.830276
3600.000000	99.833444
3599.000000	99.840076
3598.000000	99.846481
3597.000000	99.850001
3596.000000	99.850926
3595.000000	99.851528
3594.000000	99.854317
3593.000000	99.859179
3592.000000	99.863662
3591.000000	99.865706
3590.000000	99.865370
3589.000000	99.864433
3588.000000	99.864649
3587.000000	99.866039
3586.000000	99.866481
3585.000000	99.864540
3584.000000	99.861098
3583.000000	99.857285
3582.000000	99.852724
3581.000000	99.847077
3580.000000	99.841721
3579.000000	99.838211
3578.000000	99.836063
3577.000000	99.833025
3576.000000	99.828099
3575.000000	99.823299
3574.000000	99.821962
3573.000000	99.825505
3572.000000	99.832238
3571.000000	99.838986
3570.000000	99.843239
3569.000000	99.844082
3568.000000	99.841836
3567.000000	99.837990
3566.000000	99.834537
3565.000000	99.832480
3564.000000	99.831607
3563.000000	99.830900
3562.000000	99.829301
3561.000000	99.826885
3560.000000	99.825033
3559.000000	99.824971
3558.000000	99.826312
3557.000000	99.827398
3556.000000	99.826831
3555.000000	99.824495
3554.000000	99.821291
3553.000000	99.818316
3552.000000	99.816024
3551.000000	99.814218
3550.000000	99.812761
3549.000000	99.812029
3548.000000	99.812325
3547.000000	99.813207
3546.000000	99.813687
3545.000000	99.813237
3544.000000	99.812186
3543.000000	99.811185
3542.000000	99.810543
3541.000000	99.810147
3540.000000	99.809798
3539.000000	99.809507
3538.000000	99.809458
3537.000000	99.809754
3536.000000	99.810267
3535.000000	99.810744
3534.000000	99.811070
3533.000000	99.811224
3532.000000	99.811064
3531.000000	99.810304
3530.000000	99.808953
3529.000000	99.807656
3528.000000	99.807316
3527.000000	99.808245
3526.000000	99.809791
3525.000000	99.810785
3524.000000	99.810454
3523.000000	99.808778
3522.000000	99.806333
3521.000000	99.803941
3520.000000	99.802303
3519.000000	99.801789
3518.000000	99.802291
3517.000000	99.803260
3516.000000	99.804109
3515.000000	99.804638
3514.000000	99.805136
3513.000000	99.805981
3512.000000	99.807214
3511.000000	99.808407
3510.000000	99.809025
3509.000000	99.808867
3508.000000	99.808176
3507.000000	99.807381
3506.000000	99.806766
3505.000000	99.806319
3504.000000	99.805805
3503.000000	99.805131
3502.000000	99.804709
3501.000000	99.805281
3500.000000	99.807246
3499.000000	99.810134
3498.000000	99.812722
3497.000000	99.813868
3496.000000	99.813249
3495.000000	99.811476
3494.000000	99.809722
3493.000000	99.808955
3492.000000	99.809358
3491.000000	99.810331
3490.000000	99.811028
3489.000000	99.811059
3488.000000	99.810607
3487.000000	99.809974
3486.000000	99.809228
3485.000000	99.808349
3484.000000	99.807450
3483.000000	99.806583
3482.000000	99.805547
3481.000000	99.804153
3480.000000	99.802525
3479.000000	99.800968
3478.000000	99.799714
3477.000000	99.798944
3476.000000	99.798839
3475.000000	99.799347
3474.000000	99.799941
3473.000000	99.799861
3472.000000	99.798768
3471.000000	99.797072
3470.000000	99.795523
3469.000000	99.794498
3468.000000	99.793754
3467.000000	99.792852
3466.000000	99.791649
3465.000000	99.790382
3464.000000	99.789376
3463.000000	99.788729
3462.000000	99.788201
3461.000000	99.787354
3460.000000	99.785894
3459.000000	99.783976
3458.000000	99.782205
3457.000000	99.781237
3456.000000	99.781256
3455.000000	99.781791
3454.000000	99.782045
3453.000000	99.781521
3452.000000	99.780250
3451.000000	99.778437
3450.000000	99.776197
3449.000000	99.773737
3448.000000	99.771503
3447.000000	99.769814
3446.000000	99.768435
3445.000000	99.766850
3444.000000	99.765090
3443.000000	99.763904
3442.000000	99.763932
3441.000000	99.764963
3440.000000	99.766078
3439.000000	99.766411
3438.000000	99.765673
3437.000000	99.764058
3436.000000	99.761995
3435.000000	99.759949
3434.000000	99.758298
3433.000000	99.757215
3432.000000	99.756681
3431.000000	99.756610
3430.000000	99.756984
3429.000000	99.757713
3428.000000	99.758315
3427.000000	99.758015
3426.000000	99.756493
3425.000000	99.754482
3424.000000	99.753281
3423.000000	99.753486
3422.000000	99.754479
3421.000000	99.755228
3420.000000	99.755404
3419.000000	99.755447
3418.000000	99.755742
3417.000000	99.756145
3416.000000	99.756335
3415.000000	99.756220
3414.000000	99.755857
3413.000000	99.755229
3412.000000	99.754268
3411.000000	99.753003
3410.000000	99.751626
3409.000000	99.750386
3408.000000	99.749448
3407.000000	99.748868
3406.000000	99.748604
3405.000000	99.748539
3404.000000	99.748538
3403.000000	99.748517
3402.000000	99.748451
3401.000000	99.748297
3400.000000	99.747989
3399.000000	99.747558
3398.000000	99.747232
3397.000000	99.747271
3396.000000	99.747680
3395.000000	99.748135
3394.000000	99.748273
3393.000000	99.748022
3392.000000	99.747581
3391.000000	99.747152
3390.000000	99.746830
3389.000000	99.746684
3388.000000	99.746788
3387.000000	99.747134
3386.000000	99.747548
3385.000000	99.747809
3384.000000	99.747858
3383.000000	99.747856
3382.000000	99.748017
3381.000000	99.748424
3380.000000	99.749012
3379.000000	99.749631
3378.000000	99.750147
3377.000000	99.750498
3376.000000	99.750730
3375.000000	99.750991
3374.000000	99.751422
3373.000000	99.752023
3372.000000	99.752644
3371.000000	99.753109
3370.000000	99.753371
3369.000000	99.753565
3368.000000	99.753916
3367.000000	99.754561
3366.000000	99.755480
3365.000000	99.756530
3364.000000	99.757550
3363.000000	99.758445
3362.000000	99.759223
3361.000000	99.759981
3360.000000	99.760831
3359.000000	99.761821
3358.000000	99.762907
3357.000000	99.763988
3356.000000	99.764936
3355.000000	99.765603
3354.000000	99.765900
3353.000000	99.765963
3352.000000	99.766210
3351.000000	99.767064
3350.000000	99.768634
3349.000000	99.770557
3348.000000	99.772246
3347.000000	99.773371
3346.000000	99.773938
3345.000000	99.774034
3344.000000	99.773728
3343.000000	99.773243
3342.000000	99.773020
3341.000000	99.773409
3340.000000	99.774367
3339.000000	99.775564
3338.000000	99.776727
3337.000000	99.777811
3336.000000	99.778828
3335.000000	99.779669
3334.000000	99.780201
3333.000000	99.780470
3332.000000	99.780689
3331.000000	99.781000
3330.000000	99.781296
3329.000000	99.781371
3328.000000	99.781293
3327.000000	99.781559
3326.000000	99.782718
3325.000000	99.784770
3324.000000	99.786893
3323.000000	99.787992
3322.000000	99.787626
3321.000000	99.786321
3320.000000	99.785033
3319.000000	99.784180
3318.000000	99.783511
3317.000000	99.782918
3316.000000	99.782996
3315.000000	99.784469
3314.000000	99.787346
3313.000000	99.790854
3312.000000	99.794120
3311.000000	99.796673
3310.000000	99.798373
3309.000000	99.799190
3308.000000	99.799209
3307.000000	99.798724
3306.000000	99.798140
3305.000000	99.797855
3304.000000	99.798180
3303.000000	99.799098
3302.000000	99.800135
3301.000000	99.800729
3300.000000	99.800810
3299.000000	99.800815
3298.000000	99.801079
3297.000000	99.801434
3296.000000	99.801587
3295.000000	99.801688
3294.000000	99.802286
3293.000000	99.803777
3292.000000	99.806003
3291.000000	99.808285
3290.000000	99.809780
3289.000000	99.809988
3288.000000	99.809124
3287.000000	99.808069
3286.000000	99.807706
3285.000000	99.808190
3284.000000	99.808879
3283.000000	99.808931
3282.000000	99.807989
3281.000000	99.806423
3280.000000	99.805122
3279.000000	99.804942
3278.000000	99.806150
3277.000000	99.808329
3276.000000	99.810697
3275.000000	99.812629
3274.000000	99.813956
3273.000000	99.814915
3272.000000	99.815951
3271.000000	99.817377
3270.000000	99.818941
3269.000000	99.819776
3268.000000	99.819095
3267.000000	99.816981
3266.000000	99.814516
3265.000000	99.812987
3264.000000	99.812906
3263.000000	99.813862
3262.000000	99.815079
3261.000000	99.816116
3260.000000	99.817063
3259.000000	99.818153
3258.000000	99.819264
3257.000000	99.819904
3256.000000	99.819744
3255.000000	99.819089
3254.000000	99.818683
3253.000000	99.819013
3252.000000	99.819982
3251.000000	99.821249
3250.000000	99.822721
3249.000000	99.824536
3248.000000	99.826632
3247.000000	99.828501
3246.000000	99.829431
3245.000000	99.829027
3244.000000	99.827583
3243.000000	99.826007
3242.000000	99.825129
3241.000000	99.824963
3240.000000	99.824789
3239.000000	99.824069
3238.000000	99.823175
3237.000000	99.823055
3236.000000	99.824300
3235.000000	99.826756
3234.000000	99.829839
3233.000000	99.832976
3232.000000	99.835601
3231.000000	99.837081
3230.000000	99.837134
3229.000000	99.836261
3228.000000	99.835642
3227.000000	99.836264
3226.000000	99.838119
3225.000000	99.840326
3224.000000	99.842047
3223.000000	99.843263
3222.000000	99.844452
3221.000000	99.845727
3220.000000	99.846650
3219.000000	99.846967
3218.000000	99.847166
3217.000000	99.848054
3216.000000	99.849881
3215.000000	99.852138
3214.000000	99.854161
3213.000000	99.855760
3212.000000	99.857175
3211.000000	99.858571
3210.000000	99.859758
3209.000000	99.860466
3208.000000	99.860737
3207.000000	99.860924
3206.000000	99.861332
3205.000000	99.861979
3204.000000	99.862728
3203.000000	99.863534
3202.000000	99.864478
3201.000000	99.865599
3200.000000	99.866796
3199.000000	99.867926
3198.000000	99.868965
3197.000000	99.870017
3196.000000	99.871188
3195.000000	99.872451
3194.000000	99.873617
3193.000000	99.874460
3192.000000	99.874890
3191.000000	99.875010
3190.000000	99.875136
3189.000000	99.875606
3188.000000	99.876556
3187.000000	99.877821
3186.000000	99.879028
3185.000000	99.879919
3184.000000	99.880533
3183.000000	99.881149
3182.000000	99.882002
3181.000000	99.883015
3180.000000	99.883856
3179.000000	99.884368
3178.000000	99.884890
3177.000000	99.885936
3176.000000	99.887543
3175.000000	99.889075
3174.000000	99.889820
3173.000000	99.889666
3172.000000	99.889184
3171.000000	99.889143
3170.000000	99.890003
3169.000000	99.891725
3168.000000	99.893759
3167.000000	99.895270
3166.000000	99.895652
3165.000000	99.894978
3164.000000	99.893936
3163.000000	99.893259
3162.000000	99.893290
3161.000000	99.894046
3160.000000	99.895413
3159.000000	99.897197
3158.000000	99.899282
3157.000000	99.901873
3156.000000	99.905254
3155.000000	99.909123
3154.000000	99.912578
3153.000000	99.915173
3152.000000	99.917563
3151.000000	99.920420
3150.000000	99.922953
3149.000000	99.923486
3148.000000	99.921505
3147.000000	99.918208
3146.000000	99.915081
3145.000000	99.912609
3144.000000	99.910647
3143.000000	99.909342
3142.000000	99.908948
3141.000000	99.909226
3140.000000	99.909786
3139.000000	99.910781
3138.000000	99.912589
3137.000000	99.914876
3136.000000	99.916576
3135.000000	99.916898
3134.000000	99.915987
3133.000000	99.914680
3132.000000	99.913984
3131.000000	99.914617
3130.000000	99.916485
3129.000000	99.918630
3128.000000	99.920107
3127.000000	99.920875
3126.000000	99.921515
3125.000000	99.922351
3124.000000	99.923389
3123.000000	99.924866
3122.000000	99.927107
3121.000000	99.929732
3120.000000	99.931672
3119.000000	99.932323
3118.000000	99.932248
3117.000000	99.932427
3116.000000	99.933116
3115.000000	99.933823
3114.000000	99.934240
3113.000000	99.934733
3112.000000	99.935819
3111.000000	99.937446
3110.000000	99.939061
3109.000000	99.940247
3108.000000	99.941092
3107.000000	99.941928
3106.000000	99.942953
3105.000000	99.944148
3104.000000	99.945397
3103.000000	99.946610
3102.000000	99.947755
3101.000000	99.948831
3100.000000	99.949850
3099.000000	99.950853
3098.000000	99.951900
3097.000000	99.953011
3096.000000	99.954139
3095.000000	99.955204
3094.000000	99.956166
3093.000000	99.957062
3092.000000	99.957973
3091.000000	99.958938
3090.000000	99.959932
3089.000000	99.960886
3088.000000	99.961745
3087.000000	99.962515
3086.000000	99.963244
3085.000000	99.963991
3084.000000	99.964772
3083.000000	99.965575
3082.000000	99.966377
3081.000000	99.967156
3080.000000	99.967895
3079.000000	99.968581
3078.000000	99.969207
3077.000000	99.969784
3076.000000	99.970347
3075.000000	99.970930
3074.000000	99.971533
3073.000000	99.972115
3072.000000	99.972655
3071.000000	99.973192
3070.000000	99.973802
3069.000000	99.974506
3068.000000	99.975229
3067.000000	99.975884
3066.000000	99.976471
3065.000000	99.977059
3064.000000	99.977688
3063.000000	99.978360
3062.000000	99.979107
3061.000000	99.979975
3060.000000	99.980875
3059.000000	99.981533
3058.000000	99.981692
3057.000000	99.981400
3056.000000	99.981138
3055.000000	99.981538
3054.000000	99.982907
3053.000000	99.984918
3052.000000	99.986722
3051.000000	99.987684
3050.000000	99.987918
3049.000000	99.988097
3048.000000	99.988638
3047.000000	99.989326
3046.000000	99.989864
3045.000000	99.990430
3044.000000	99.991304
3043.000000	99.992235
3042.000000	99.992669
3041.000000	99.992558
3040.000000	99.992487
3039.000000	99.993010
3038.000000	99.994277
3037.000000	99.996276
3036.000000	99.998957
3035.000000	100.002023
3034.000000	100.005036
3033.000000	100.007921
3032.000000	100.010941
3031.000000	100.013952
3030.000000	100.016195
3029.000000	100.017230
3028.000000	100.017687
3027.000000	100.018559
3026.000000	100.019800
3025.000000	100.020305
3024.000000	100.019453
3023.000000	100.018167
3022.000000	100.018114
3021.000000	100.020107
3020.000000	100.023639
3019.000000	100.027592
3018.000000	100.031071
3017.000000	100.033696
3016.000000	100.035598
3015.000000	100.037326
3014.000000	100.039462
3013.000000	100.042106
3012.000000	100.044815
3011.000000	100.047122
3010.000000	100.049028
3009.000000	100.050897
3008.000000	100.053046
3007.000000	100.055595
3006.000000	100.058570
3005.000000	100.061919
3004.000000	100.065415
3003.000000	100.068683
3002.000000	100.071442
3001.000000	100.073680
3000.000000	100.075601
2999.000000	100.077463
2998.000000	100.079468
2997.000000	100.081694
2996.000000	100.084071
2995.000000	100.086486
2994.000000	100.088986
2993.000000	100.091858
2992.000000	100.095412
2991.000000	100.099618
2990.000000	100.103878
2989.000000	100.107289
2988.000000	100.109285
2987.000000	100.110076
2986.000000	100.110485
2985.000000	100.111227
2984.000000	100.112576
2983.000000	100.114668
2982.000000	100.117699
2981.000000	100.121533
2980.000000	100.125236
2979.000000	100.127514
2978.000000	100.127914
2977.000000	100.127492
2976.000000	100.128065
2975.000000	100.130630
2974.000000	100.134624
2973.000000	100.138647
2972.000000	100.141803
2971.000000	100.144247
2970.000000	100.146689
2969.000000	100.149811
2968.000000	100.154215
2967.000000	100.160224
2966.000000	100.167034
2965.000000	100.172318
2964.000000	100.173707
2963.000000	100.171067
2962.000000	100.166973
2961.000000	100.164442
2960.000000	100.164527
2959.000000	100.166422
2958.000000	100.169156
2957.000000	100.172282
2956.000000	100.175248
2955.000000	100.177102
2954.000000	100.177064
2953.000000	100.174834
2952.000000	100.170290
2951.000000	100.163741
2950.000000	100.156939
2949.000000	100.153149
2948.000000	100.155182
2947.000000	100.163000
2946.000000	100.173349
2945.000000	100.182126
2944.000000	100.187464
2943.000000	100.190484
2942.000000	100.193250
2941.000000	100.196541
2940.000000	100.199951
2939.000000	100.203734
2938.000000	100.209544
2937.000000	100.218840
2936.000000	100.231067
2935.000000	100.243840
2934.000000	100.254738
2933.000000	100.262686
2932.000000	100.268347
2931.000000	100.273723
2930.000000	100.280667
2929.000000	100.288797
2928.000000	100.295235
2927.000000	100.297551
2926.000000	100.296746
2925.000000	100.296249
2924.000000	100.297775
2923.000000	100.299445
2922.000000	100.298512
2921.000000	100.294765
2920.000000	100.290309
2919.000000	100.286630
2918.000000	100.282706
2917.000000	100.275926
2916.000000	100.264392
2915.000000	100.248750
2914.000000	100.232304
2913.000000	100.219124
2912.000000	100.211524
2911.000000	100.209284
2910.000000	100.210794
2909.000000	100.214116
2908.000000	100.217134
2907.000000	100.218052
2906.000000	100.216746
2905.000000	100.214948
2904.000000	100.214190
2903.000000	100.213851
2902.000000	100.212027
2901.000000	100.207717
2900.000000	100.201955
2899.000000	100.196427
2898.000000	100.192427
2897.000000	100.190585
2896.000000	100.190493
2895.000000	100.190546
2894.000000	100.189247
2893.000000	100.187010
2892.000000	100.185666
2891.000000	100.185918
2890.000000	100.186374
2889.000000	100.185648
2888.000000	100.184283
2887.000000	100.183448
2886.000000	100.182608
2885.000000	100.180069
2884.000000	100.175824
2883.000000	100.172462
2882.000000	100.172740
2881.000000	100.177022
2880.000000	100.183358
2879.000000	100.189162
2878.000000	100.192264
2877.000000	100.191273
2876.000000	100.186237
2875.000000	100.179139
2874.000000	100.173015
2873.000000	100.170103
2872.000000	100.171006
2871.000000	100.175304
2870.000000	100.182254
2869.000000	100.190719
2868.000000	100.199116
2867.000000	100.205933
2866.000000	100.210300
2865.000000	100.212165
2864.000000	100.212424
2863.000000	100.212862
2862.000000	100.215160
2861.000000	100.219385
2860.000000	100.223816
2859.000000	100.226718
2858.000000	100.228115
2857.000000	100.229438
2856.000000	100.231623
2855.000000	100.233799
2854.000000	100.233796
2853.000000	100.230100
2852.000000	100.223770
2851.000000	100.218387
2850.000000	100.216925
2849.000000	100.218055
2848.000000	100.216767
2847.000000	100.209609
2846.000000	100.198497
2845.000000	100.188258
2844.000000	100.180884
2843.000000	100.174101
2842.000000	100.165611
2841.000000	100.156720
2840.000000	100.150821
2839.000000	100.149559
2838.000000	100.151672
2837.000000	100.154733
2836.000000	100.156945
2835.000000	100.157648
2834.000000	100.157196
2833.000000	100.156403
2832.000000	100.155453
2831.000000	100.153547
2830.000000	100.150177
2829.000000	100.146350
2828.000000	100.143716
2827.000000	100.142615
2826.000000	100.141901
2825.000000	100.140641
2824.000000	100.139067
2823.000000	100.137714
2822.000000	100.136533
2821.000000	100.135357
2820.000000	100.134595
2819.000000	100.134820
2818.000000	100.135956
2817.000000	100.137375
2816.000000	100.138632
2815.000000	100.139689
2814.000000	100.140548
2813.000000	100.141075
2812.000000	100.141346
2811.000000	100.141801
2810.000000	100.142680
2809.000000	100.143330
2808.000000	100.142463
2807.000000	100.139506
2806.000000	100.135689
2805.000000	100.133446
2804.000000	100.134390
2803.000000	100.138000
2802.000000	100.142300
2801.000000	100.145564
2800.000000	100.147345
2799.000000	100.148159
2798.000000	100.148730
2797.000000	100.149591
2796.000000	100.150900
2795.000000	100.152321
2794.000000	100.153236
2793.000000	100.153313
2792.000000	100.152832
2791.000000	100.152338
2790.000000	100.152045
2789.000000	100.151775
2788.000000	100.151451
2787.000000	100.151420
2786.000000	100.152125
2785.000000	100.153575
2784.000000	100.155298
2783.000000	100.156767
2782.000000	100.157807
2781.000000	100.158559
2780.000000	100.159195
2779.000000	100.159803
2778.000000	100.160433
2777.000000	100.161130
2776.000000	100.161889
2775.000000	100.162646
2774.000000	100.163352
2773.000000	100.164019
2772.000000	100.164698
2771.000000	100.165412
2770.000000	100.166143
2769.000000	100.166871
2768.000000	100.167591
2767.000000	100.168310
2766.000000	100.169034
2765.000000	100.169762
2764.000000	100.170491
2763.000000	100.171206
2762.000000	100.171894
2761.000000	100.172544
2760.000000	100.173162
2759.000000	100.173757
2758.000000	100.174345
2757.000000	100.174932
2756.000000	100.175519
2755.000000	100.176103
2754.000000	100.176686
2753.000000	100.177271
2752.000000	100.177864
2751.000000	100.178470
2750.000000	100.179090
2749.000000	100.179719
2748.000000	100.180352
2747.000000	100.180980
2746.000000	100.181597
2745.000000	100.182203
2744.000000	100.182799
2743.000000	100.183389
2742.000000	100.183975
2741.000000	100.184561
2740.000000	100.185147
2739.000000	100.185740
2738.000000	100.186343
2737.000000	100.186958
2736.000000	100.187585
2735.000000	100.188218
2734.000000	100.188853
2733.000000	100.189489
2732.000000	100.190126
2731.000000	100.190763
2730.000000	100.191401
2729.000000	100.192049
2728.000000	100.192725
2727.000000	100.193398
2726.000000	100.193994
2725.000000	100.194458
2724.000000	100.194829
2723.000000	100.195244
2722.000000	100.195866
2721.000000	100.196732
2720.000000	100.197619
2719.000000	100.198186
2718.000000	100.198360
2717.000000	100.198543
2716.000000	100.199167
2715.000000	100.200085
2714.000000	100.200719
2713.000000	100.200881
2712.000000	100.200977
2711.000000	100.201295
2710.000000	100.201554
2709.000000	100.201466
2708.000000	100.201337
2707.000000	100.201691
2706.000000	100.202608
2705.000000	100.203840
2704.000000	100.205352
2703.000000	100.207277
2702.000000	100.209443
2701.000000	100.211342
2700.000000	100.212542
2699.000000	100.212873
2698.000000	100.212355
2697.000000	100.211319
2696.000000	100.210461
2695.000000	100.210355
2694.000000	100.210880
2693.000000	100.211404
2692.000000	100.211500
2691.000000	100.211236
2690.000000	100.210803
2689.000000	100.210274
2688.000000	100.209873
2687.000000	100.210113
2686.000000	100.211230
2685.000000	100.212554
2684.000000	100.212880
2683.000000	100.211612
2682.000000	100.209408
2681.000000	100.207580
2680.000000	100.206876
2679.000000	100.206941
2678.000000	100.206847
2677.000000	100.206085
2676.000000	100.205074
2675.000000	100.204753
2674.000000	100.205690
2673.000000	100.207447
2672.000000	100.208854
2671.000000	100.209189
2670.000000	100.208840
2669.000000	100.208672
2668.000000	100.208962
2667.000000	100.209352
2666.000000	100.209698
2665.000000	100.210365
2664.000000	100.211473
2663.000000	100.212386
2662.000000	100.212375
2661.000000	100.211471
2660.000000	100.210261
2659.000000	100.209151
2658.000000	100.208321
2657.000000	100.208233
2656.000000	100.209518
2655.000000	100.212226
2654.000000	100.215515
2653.000000	100.218291
2652.000000	100.220033
2651.000000	100.220901
2650.000000	100.221311
2649.000000	100.221549
2648.000000	100.221597
2647.000000	100.221207
2646.000000	100.220236
2645.000000	100.218941
2644.000000	100.217764
2643.000000	100.216873
2642.000000	100.216152
2641.000000	100.215632
2640.000000	100.215572
2639.000000	100.215928
2638.000000	100.216054
2637.000000	100.215269
2636.000000	100.213708
2635.000000	100.212419
2634.000000	100.212468
2633.000000	100.213981
2632.000000	100.215976
2631.000000	100.217120
2630.000000	100.216855
2629.000000	100.215712
2628.000000	100.214665
2627.000000	100.214220
2626.000000	100.214276
2625.000000	100.214703
2624.000000	100.215637
2623.000000	100.217096
2622.000000	100.218590
2621.000000	100.219425
2620.000000	100.219378
2619.000000	100.218889
2618.000000	100.218610
2617.000000	100.218806
2616.000000	100.219226
2615.000000	100.219484
2614.000000	100.219472
2613.000000	100.219373
2612.000000	100.219303
2611.000000	100.219068
2610.000000	100.218440
2609.000000	100.217501
2608.000000	100.216536
2607.000000	100.215765
2606.000000	100.215258
2605.000000	100.215082
2604.000000	100.215292
2603.000000	100.215770
2602.000000	100.216292
2601.000000	100.216751
2600.000000	100.217195
2599.000000	100.217604
2598.000000	100.217816
2597.000000	100.217738
2596.000000	100.217519
2595.000000	100.217431
2594.000000	100.217594
2593.000000	100.217897
2592.000000	100.218160
2591.000000	100.218281
2590.000000	100.218289
2589.000000	100.218260
2588.000000	100.218255
2587.000000	100.218297
2586.000000	100.218373
2585.000000	100.218459
2584.000000	100.218530
2583.000000	100.218575
2582.000000	100.218603
2581.000000	100.218626
2580.000000	100.218650
2579.000000	100.218672
2578.000000	100.218689
2577.000000	100.218706
2576.000000	100.218736
2575.000000	100.218788
2574.000000	100.218871
2573.000000	100.218985
2572.000000	100.219129
2571.000000	100.219295
2570.000000	100.219475
2569.000000	100.219655
2568.000000	100.219826
2567.000000	100.219991
2566.000000	100.220158
2565.000000	100.220337
2564.000000	100.220529
2563.000000	100.220727
2562.000000	100.220922
2561.000000	100.221111
2560.000000	100.221298
2559.000000	100.221491
2558.000000	100.221694
2557.000000	100.221906
2556.000000	100.222127
2555.000000	100.222354
2554.000000	100.222588
2553.000000	100.222831
2552.000000	100.223094
2551.000000	100.223385
2550.000000	100.223684
2549.000000	100.223950
2548.000000	100.224153
2547.000000	100.224305
2546.000000	100.224455
2545.000000	100.224653
2544.000000	100.224924
2543.000000	100.225251
2542.000000	100.225584
2541.000000	100.225893
2540.000000	100.226199
2539.000000	100.226544
2538.000000	100.226929
2537.000000	100.227320
2536.000000	100.227702
2535.000000	100.228106
2534.000000	100.228570
2533.000000	100.229103
2532.000000	100.229690
2531.000000	100.230279
2530.000000	100.230777
2529.000000	100.231105
2528.000000	100.231302
2527.000000	100.231544
2526.000000	100.231968
2525.000000	100.232549
2524.000000	100.233176
2523.000000	100.233811
2522.000000	100.234452
2521.000000	100.235029
2520.000000	100.235476
2519.000000	100.235882
2518.000000	100.236457
2517.000000	100.237275
2516.000000	100.238162
2515.000000	100.238872
2514.000000	100.239355
2513.000000	100.239799
2512.000000	100.240454
2511.000000	100.241396
2510.000000	100.242372
2509.000000	100.242912
2508.000000	100.242729
2507.000000	100.242025
2506.000000	100.241453
2505.000000	100.241568
2504.000000	100.242360
2503.000000	100.243380
2502.000000	100.244242
2501.000000	100.244956
2500.000000	100.245681
2499.000000	100.246321
2498.000000	100.246558
2497.000000	100.246302
2496.000000	100.245928
2495.000000	100.245945
2494.000000	100.246474
2493.000000	100.247225
2492.000000	100.247957
2491.000000	100.248714
2490.000000	100.249526
2489.000000	100.250174
2488.000000	100.250546
2487.000000	100.251010
2486.000000	100.252041
2485.000000	100.253552
2484.000000	100.254992
2483.000000	100.256101
2482.000000	100.257169
2481.000000	100.258413
2480.000000	100.259550
2479.000000	100.260266
2478.000000	100.260793
2477.000000	100.261582
2476.000000	100.262492
2475.000000	100.262757
2474.000000	100.261867
2473.000000	100.260191
2472.000000	100.258679
2471.000000	100.258027
2470.000000	100.258195
2469.000000	100.258630
2468.000000	100.258765
2467.000000	100.258353
2466.000000	100.257450
2465.000000	100.256333
2464.000000	100.255473
2463.000000	100.255474
2462.000000	100.256703
2461.000000	100.258884
2460.000000	100.261236
2459.000000	100.263070
2458.000000	100.264166
2457.000000	100.264622
2456.000000	100.264623
2455.000000	100.264448
2454.000000	100.264416
2453.000000	100.264606
2452.000000	100.264795
2451.000000	100.264857
2450.000000	100.265017
2449.000000	100.265487
2448.000000	100.266020
2447.000000	100.266188
2446.000000	100.266043
2445.000000	100.266153
2444.000000	100.266897
2443.000000	100.268063
2442.000000	100.269154
2441.000000	100.269875
2440.000000	100.270210
2439.000000	100.270229
2438.000000	100.270055
2437.000000	100.269863
2436.000000	100.269794
2435.000000	100.269888
2434.000000	100.270151
2433.000000	100.270608
2432.000000	100.271217
2431.000000	100.271812
2430.000000	100.272242
2429.000000	100.272545
2428.000000	100.272862
2427.000000	100.273168
2426.000000	100.273267
2425.000000	100.273091
2424.000000	100.272838
2423.000000	100.272790
2422.000000	100.273042
2421.000000	100.273515
2420.000000	100.274052
2419.000000	100.274468
2418.000000	100.274608
2417.000000	100.274517
2416.000000	100.274477
2415.000000	100.274707
2414.000000	100.275041
2413.000000	100.275101
2412.000000	100.274751
2411.000000	100.274210
2410.000000	100.273768
2409.000000	100.273512
2408.000000	100.273336
2407.000000	100.273054
2406.000000	100.272495
2405.000000	100.271690
2404.000000	100.271019
2403.000000	100.270941
2402.000000	100.271487
2401.000000	100.272108
2400.000000	100.272163
2399.000000	100.271582
2398.000000	100.270905
2397.000000	100.270698
2396.000000	100.270989
2395.000000	100.271350
2394.000000	100.271456
2393.000000	100.271346
2392.000000	100.271154
2391.000000	100.270751
2390.000000	100.269867
2389.000000	100.268546
2388.000000	100.267055
2387.000000	100.265563
2386.000000	100.264208
2385.000000	100.263190
2384.000000	100.262648
2383.000000	100.262429
2382.000000	100.262204
2381.000000	100.261788
2380.000000	100.261238
2379.000000	100.260654
2378.000000	100.260029
2377.000000	100.259330
2376.000000	100.258577
2375.000000	100.257804
2374.000000	100.257027
2373.000000	100.256246
2372.000000	100.255455
2371.000000	100.254658
2370.000000	100.253863
2369.000000	100.253074
2368.000000	100.252287
2367.000000	100.251496
2366.000000	100.250688
2365.000000	100.249858
2364.000000	100.249003
2363.000000	100.248125
2362.000000	100.247230
2361.000000	100.246325
2360.000000	100.245412
2359.000000	100.244494
2358.000000	100.243573
2357.000000	100.242655
2356.000000	100.241745
2355.000000	100.240842
2354.000000	100.239946
2353.000000	100.239057
2352.000000	100.238174
2351.000000	100.237294
2350.000000	100.236422
2349.000000	100.235573
2348.000000	100.234764
2347.000000	100.234007
2346.000000	100.233297
2345.000000	100.232619
2344.000000	100.231960
2343.000000	100.231324
2342.000000	100.230722
2341.000000	100.230158
2340.000000	100.229631
2339.000000	100.229144
2338.000000	100.228702
2337.000000	100.228305
2336.000000	100.227928
2335.000000	100.227528
2334.000000	100.227075
2333.000000	100.226620
2332.000000	100.226236
2331.000000	100.226003
2330.000000	100.225950
2329.000000	100.226084
2328.000000	100.226243
2327.000000	100.226299
2326.000000	100.226213
2325.000000	100.226086
2324.000000	100.225979
2323.000000	100.225879
2322.000000	100.225802
2321.000000	100.225811
2320.000000	100.225877
2319.000000	100.225969
2318.000000	100.226083
2317.000000	100.226464
2316.000000	100.227158
2315.000000	100.228088
2314.000000	100.228772
2313.000000	100.229045
2312.000000	100.228975
2311.000000	100.229264
2310.000000	100.230383
2309.000000	100.232505
2308.000000	100.235046
2307.000000	100.237342
2306.000000	100.238763
2305.000000	100.239262
2304.000000	100.239092
2303.000000	100.238881
2302.000000	100.238771
2301.000000	100.238760
2300.000000	100.238818
2299.000000	100.239444
2298.000000	100.240712
2297.000000	100.242303
2296.000000	100.243502
2295.000000	100.244200
2294.000000	100.244452
2293.000000	100.244370
2292.000000	100.244030
2291.000000	100.243980
2290.000000	100.244755
2289.000000	100.246229
2288.000000	100.247717
2287.000000	100.248740
2286.000000	100.249375
2285.000000	100.249725
2284.000000	100.249895
2283.000000	100.250237
2282.000000	100.251248
2281.000000	100.252754
2280.000000	100.253933
2279.000000	100.254229
2278.000000	100.254005
2277.000000	100.253928
2276.000000	100.254012
2275.000000	100.253701
2274.000000	100.252567
2273.000000	100.250659
2272.000000	100.248295
2271.000000	100.246105
2270.000000	100.244944
2269.000000	100.245209
2268.000000	100.246188
2267.000000	100.246614
2266.000000	100.246018
2265.000000	100.245108
2264.000000	100.244639
2263.000000	100.244489
2262.000000	100.244156
2261.000000	100.243564
2260.000000	100.242893
2259.000000	100.241915
2258.000000	100.240255
2257.000000	100.238183
2256.000000	100.236635
2255.000000	100.236227
2254.000000	100.236728
2253.000000	100.237445
2252.000000	100.237810
2251.000000	100.237563
2250.000000	100.236629
2249.000000	100.235223
2248.000000	100.233844
2247.000000	100.232887
2246.000000	100.232386
2245.000000	100.232171
2244.000000	100.232124
2243.000000	100.232162
2242.000000	100.232142
2241.000000	100.231952
2240.000000	100.231631
2239.000000	100.231260
2238.000000	100.230818
2237.000000	100.230262
2236.000000	100.229709
2235.000000	100.229378
2234.000000	100.229373
2233.000000	100.229614
2232.000000	100.229958
2231.000000	100.230273
2230.000000	100.230415
2229.000000	100.230252
2228.000000	100.229774
2227.000000	100.229117
2226.000000	100.228443
2225.000000	100.227880
2224.000000	100.227572
2223.000000	100.227624
2222.000000	100.227954
2221.000000	100.228278
2220.000000	100.228407
2219.000000	100.228443
2218.000000	100.228611
2217.000000	100.228946
2216.000000	100.229240
2215.000000	100.229268
2214.000000	100.228997
2213.000000	100.228596
2212.000000	100.228339
2211.000000	100.228415
2210.000000	100.228824
2209.000000	100.229375
2208.000000	100.229816
2207.000000	100.230053
2206.000000	100.230188
2205.000000	100.230348
2204.000000	100.230510
2203.000000	100.230541
2202.000000	100.230377
2201.000000	100.230096
2200.000000	100.229839
2199.000000	100.229700
2198.000000	100.229684
2197.000000	100.229731
2196.000000	100.229787
2195.000000	100.229874
2194.000000	100.230059
2193.000000	100.230349
2192.000000	100.230650
2191.000000	100.230858
2190.000000	100.230977
2189.000000	100.231111
2188.000000	100.231333
2187.000000	100.231609
2186.000000	100.231843
2185.000000	100.231986
2184.000000	100.232079
2183.000000	100.232203
2182.000000	100.232401
2181.000000	100.232649
2180.000000	100.232885
2179.000000	100.233056
2178.000000	100.233161
2177.000000	100.233256
2176.000000	100.233416
2175.000000	100.233678
2174.000000	100.234019
2173.000000	100.234375
2172.000000	100.234684
2171.000000	100.234907
2170.000000	100.235032
2169.000000	100.235071
2168.000000	100.235092
2167.000000	100.235199
2166.000000	100.235455
2165.000000	100.235830
2164.000000	100.236218
2163.000000	100.236556
2162.000000	100.236885
2161.000000	100.237279
2160.000000	100.237762
2159.000000	100.238283
2158.000000	100.238780
2157.000000	100.239227
2156.000000	100.239633
2155.000000	100.240012
2154.000000	100.240377
2153.000000	100.240742
2152.000000	100.241113
2151.000000	100.241475
2150.000000	100.241827
2149.000000	100.242191
2148.000000	100.242584
2147.000000	100.242995
2146.000000	100.243400
2145.000000	100.243796
2144.000000	100.244194
2143.000000	100.244587
2142.000000	100.244958
2141.000000	100.245308
2140.000000	100.245641
2139.000000	100.245959
2138.000000	100.246271
2137.000000	100.246600
2136.000000	100.246965
2135.000000	100.247356
2134.000000	100.247755
2133.000000	100.248150
2132.000000	100.248544
2131.000000	100.248941
2130.000000	100.249346
2129.000000	100.249761
2128.000000	100.250185
2127.000000	100.250617
2126.000000	100.251048
2125.000000	100.251469
2124.000000	100.251868
2123.000000	100.252244
2122.000000	100.252600
2121.000000	100.252945
2120.000000	100.253288
2119.000000	100.253629
2118.000000	100.253966
2117.000000	100.254298
2116.000000	100.254629
2115.000000	100.254966
2114.000000	100.255309
2113.000000	100.255655
2112.000000	100.255993
2111.000000	100.256321
2110.000000	100.256637
2109.000000	100.256949
2108.000000	100.257265
2107.000000	100.257590
2106.000000	100.257924
2105.000000	100.258270
2104.000000	100.258617
2103.000000	100.258950
2102.000000	100.259252
2101.000000	100.259537
2100.000000	100.259856
2099.000000	100.260238
2098.000000	100.260653
2097.000000	100.261082
2096.000000	100.261595
2095.000000	100.262278
2094.000000	100.263077
2093.000000	100.263803
2092.000000	100.264327
2091.000000	100.264663
2090.000000	100.264849
2089.000000	100.264893
2088.000000	100.264884
2087.000000	100.264970
2086.000000	100.265139
2085.000000	100.265216
2084.000000	100.265193
2083.000000	100.265364
2082.000000	100.265962
2081.000000	100.266856
2080.000000	100.267758
2079.000000	100.268556
2078.000000	100.269253
2077.000000	100.269763
2076.000000	100.269980
2075.000000	100.269865
2074.000000	100.269365
2073.000000	100.268451
2072.000000	100.267343
2071.000000	100.266564
2070.000000	100.266607
2069.000000	100.267651
2068.000000	100.269504
2067.000000	100.271587
2066.000000	100.273106
2065.000000	100.273621
2064.000000	100.273529
2063.000000	100.273677
2062.000000	100.274308
2061.000000	100.274826
2060.000000	100.274680
2059.000000	100.273999
2058.000000	100.273196
2057.000000	100.272381
2056.000000	100.271474
2055.000000	100.270664
2054.000000	100.270417
2053.000000	100.271012
2052.000000	100.272157
2051.000000	100.273127
2050.000000	100.273273
2049.000000	100.272400
2048.000000	100.270742
2047.000000	100.268680
2046.000000	100.266542
2045.000000	100.264650
2044.000000	100.263352
2043.000000	100.262759
2042.000000	100.262559
2041.000000	100.262360
2040.000000	100.262204
2039.000000	100.262343
2038.000000	100.262553
2037.000000	100.262126
2036.000000	100.260755
2035.000000	100.259031
2034.000000	100.257865
2033.000000	100.257596
2032.000000	100.257829
2031.000000	100.257904
2030.000000	100.257403
2029.000000	100.256374
2028.000000	100.255272
2027.000000	100.254538
2026.000000	100.254081
2025.000000	100.253375
2024.000000	100.252179
2023.000000	100.250989
2022.000000	100.250478
2021.000000	100.250601
2020.000000	100.250567
2019.000000	100.249721
2018.000000	100.248166
2017.000000	100.246532
2016.000000	100.245305
2015.000000	100.244400
2014.000000	100.243348
2013.000000	100.241841
2012.000000	100.240071
2011.000000	100.238454
2010.000000	100.237035
2009.000000	100.235419
2008.000000	100.233435
2007.000000	100.231560
2006.000000	100.230403
2005.000000	100.230042
2004.000000	100.230061
2003.000000	100.230067
2002.000000	100.229880
2001.000000	100.229492
2000.000000	100.229158
1999.000000	100.229277
1998.000000	100.229981
1997.000000	100.230749
1996.000000	100.230666
1995.000000	100.229215
1994.000000	100.226641
1993.000000	100.223596
1992.000000	100.220705
1991.000000	100.218593
1990.000000	100.217862
1989.000000	100.218595
1988.000000	100.219992
1987.000000	100.220902
1986.000000	100.220839
1985.000000	100.220117
1984.000000	100.219134
1983.000000	100.218013
1982.000000	100.216914
1981.000000	100.216193
1980.000000	100.215942
1979.000000	100.215640
1978.000000	100.214795
1977.000000	100.213623
1976.000000	100.212792
1975.000000	100.212797
1974.000000	100.213756
1973.000000	100.215342
1972.000000	100.216772
1971.000000	100.217391
1970.000000	100.217426
1969.000000	100.217616
1968.000000	100.218027
1967.000000	100.217943
1966.000000	100.217150
1965.000000	100.216358
1964.000000	100.216092
1963.000000	100.216113
1962.000000	100.216151
1961.000000	100.216376
1960.000000	100.216690
1959.000000	100.216445
1958.000000	100.215396
1957.000000	100.214157
1956.000000	100.213109
1955.000000	100.211717
1954.000000	100.209611
1953.000000	100.207398
1952.000000	100.205835
1951.000000	100.204912
1950.000000	100.204060
1949.000000	100.203050
1948.000000	100.202096
1947.000000	100.201156
1946.000000	100.199954
1945.000000	100.198691
1944.000000	100.197997
1943.000000	100.198022
1942.000000	100.198099
1941.000000	100.197618
1940.000000	100.196638
1939.000000	100.195490
1938.000000	100.194298
1937.000000	100.193127
1936.000000	100.192125
1935.000000	100.191271
1934.000000	100.190270
1933.000000	100.188933
1932.000000	100.187558
1931.000000	100.186627
1930.000000	100.185981
1929.000000	100.185160
1928.000000	100.184360
1927.000000	100.184207
1926.000000	100.184621
1925.000000	100.184436
1924.000000	100.182753
1923.000000	100.180033
1922.000000	100.177598
1921.000000	100.176214
1920.000000	100.175556
1919.000000	100.174691
1918.000000	100.172925
1917.000000	100.170651
1916.000000	100.169256
1915.000000	100.169559
1914.000000	100.170762
1913.000000	100.171050
1912.000000	100.169346
1911.000000	100.166163
1910.000000	100.162750
1909.000000	100.159921
1908.000000	100.157715
1907.000000	100.155747
1906.000000	100.153700
1905.000000	100.151328
1904.000000	100.148662
1903.000000	100.145818
1902.000000	100.142799
1901.000000	100.139997
1900.000000	100.137991
1899.000000	100.136640
1898.000000	100.135302
1897.000000	100.133941
1896.000000	100.133481
1895.000000	100.134207
1894.000000	100.134628
1893.000000	100.133371
1892.000000	100.131207
1891.000000	100.129861
1890.000000	100.129666
1889.000000	100.129542
1888.000000	100.128937
1887.000000	100.128149
1886.000000	100.127044
1885.000000	100.124950
1884.000000	100.121872
1883.000000	100.118701
1882.000000	100.116112
1881.000000	100.114407
1880.000000	100.113847
1879.000000	100.114414
1878.000000	100.115749
1877.000000	100.117610
1876.000000	100.120075
1875.000000	100.122782
1874.000000	100.124290
1873.000000	100.123336
1872.000000	100.120541
1871.000000	100.117787
1870.000000	100.115952
1869.000000	100.114476
1868.000000	100.113525
1867.000000	100.114274
1866.000000	100.116662
1865.000000	100.119364
1864.000000	100.121376
1863.000000	100.122468
1862.000000	100.122438
1861.000000	100.121140
1860.000000	100.119552
1859.000000	100.119427
1858.000000	100.121238
1857.000000	100.123507
1856.000000	100.124631
1855.000000	100.124615
1854.000000	100.124712
1853.000000	100.126158
1852.000000	100.129221
1851.000000	100.132779
1850.000000	100.135281
1849.000000	100.135982
1848.000000	100.135487
1847.000000	100.135129
1846.000000	100.135990
1845.000000	100.138492
1844.000000	100.142155
1843.000000	100.145643
1842.000000	100.147741
1841.000000	100.148586
1840.000000	100.148983
1839.000000	100.149302
1838.000000	100.149551
1837.000000	100.149972
1836.000000	100.151194
1835.000000	100.153107
1834.000000	100.154485
1833.000000	100.154370
1832.000000	100.152903
1831.000000	100.151028
1830.000000	100.150038
1829.000000	100.150465
1828.000000	100.151598
1827.000000	100.152611
1826.000000	100.153074
1825.000000	100.152632
1824.000000	100.151568
1823.000000	100.150959
1822.000000	100.151420
1821.000000	100.152460
1820.000000	100.153183
1819.000000	100.153384
1818.000000	100.153335
1817.000000	100.153083
1816.000000	100.152946
1815.000000	100.153450
1814.000000	100.154209
1813.000000	100.153948
1812.000000	100.152179
1811.000000	100.150473
1810.000000	100.150287
1809.000000	100.150846
1808.000000	100.151009
1807.000000	100.151168
1806.000000	100.151936
1805.000000	100.152807
1804.000000	100.153167
1803.000000	100.153409
1802.000000	100.154144
1801.000000	100.155076
1800.000000	100.155550
1799.000000	100.155807
1798.000000	100.156265
1797.000000	100.156789
1796.000000	100.157229
1795.000000	100.157838
1794.000000	100.158914
1793.000000	100.160218
1792.000000	100.161172
1791.000000	100.161836
1790.000000	100.162609
1789.000000	100.163650
1788.000000	100.164951
1787.000000	100.166390
1786.000000	100.167657
1785.000000	100.168475
1784.000000	100.169022
1783.000000	100.169811
1782.000000	100.171128
1781.000000	100.172830
1780.000000	100.174432
1779.000000	100.175679
1778.000000	100.176707
1777.000000	100.177801
1776.000000	100.179102
1775.000000	100.180526
1774.000000	100.181950
1773.000000	100.183269
1772.000000	100.184328
1771.000000	100.185361
1770.000000	100.186864
1769.000000	100.188885
1768.000000	100.190958
1767.000000	100.192691
1766.000000	100.194171
1765.000000	100.195676
1764.000000	100.197296
1763.000000	100.198977
1762.000000	100.200714
1761.000000	100.202482
1760.000000	100.204117
1759.000000	100.205737
1758.000000	100.207629
1757.000000	100.209820
1756.000000	100.211865
1755.000000	100.213582
1754.000000	100.215587
1753.000000	100.218360
1752.000000	100.220983
1751.000000	100.221849
1750.000000	100.220959
1749.000000	100.220148
1748.000000	100.220601
1747.000000	100.221774
1746.000000	100.222997
1745.000000	100.224331
1744.000000	100.225792
1743.000000	100.227024
1742.000000	100.227858
1741.000000	100.228492
1740.000000	100.229006
1739.000000	100.229370
1738.000000	100.229765
1737.000000	100.230451
1736.000000	100.231432
1735.000000	100.232068
1734.000000	100.231348
1733.000000	100.229951
1732.000000	100.229303
1731.000000	100.229600
1730.000000	100.230291
1729.000000	100.230847
1728.000000	100.230893
1727.000000	100.230290
1726.000000	100.229382
1725.000000	100.228718
1724.000000	100.228464
1723.000000	100.228444
1722.000000	100.228287
1721.000000	100.227684
1720.000000	100.226623
1719.000000	100.225494
1718.000000	100.224671
1717.000000	100.223418
1716.000000	100.221538
1715.000000	100.220129
1714.000000	100.219493
1713.000000	100.218951
1712.000000	100.218147
1711.000000	100.217153
1710.000000	100.216009
1709.000000	100.214618
1708.000000	100.213026
1707.000000	100.211623
1706.000000	100.210516
1705.000000	100.209021
1704.000000	100.206777
1703.000000	100.204456
1702.000000	100.202960
1701.000000	100.202427
1700.000000	100.201770
1699.000000	100.200865
1698.000000	100.199911
1697.000000	100.198877
1696.000000	100.197895
1695.000000	100.197199
1694.000000	100.196462
1693.000000	100.195280
1692.000000	100.193753
1691.000000	100.192153
1690.000000	100.190609
1689.000000	100.189123
1688.000000	100.187716
1687.000000	100.186571
1686.000000	100.185980
1685.000000	100.185494
1684.000000	100.184083
1683.000000	100.182461
1682.000000	100.180978
1681.000000	100.179714
1680.000000	100.178415
1679.000000	100.176716
1678.000000	100.174847
1677.000000	100.173957
1676.000000	100.174633
1675.000000	100.175165
1674.000000	100.173775
1673.000000	100.171022
1672.000000	100.168254
1671.000000	100.165987
1670.000000	100.163579
1669.000000	100.161373
1668.000000	100.160382
1667.000000	100.159884
1666.000000	100.159064
1665.000000	100.157973
1664.000000	100.157184
1663.000000	100.157026
1662.000000	100.156869
1661.000000	100.156426
1660.000000	100.155648
1659.000000	100.153763
1658.000000	100.150304
1657.000000	100.145793
1656.000000	100.141610
1655.000000	100.138114
1654.000000	100.134783
1653.000000	100.129843
1652.000000	100.128100
1651.000000	100.127471
1650.000000	100.127021
1649.000000	100.126728
1648.000000	100.128432
1647.000000	100.131878
1646.000000	100.135009
1645.000000	100.136073
1644.000000	100.135878
1643.000000	100.136041
1642.000000	100.136332
1641.000000	100.136250
1640.000000	100.136148
1639.000000	100.136645
1638.000000	100.137665
1637.000000	100.138251
1636.000000	100.137749
1635.000000	100.136525
1634.000000	100.136495
1633.000000	100.137659
1632.000000	100.139186
1631.000000	100.139184
1630.000000	100.136194
1629.000000	100.131612
1628.000000	100.129180
1627.000000	100.129814
1626.000000	100.130782
1625.000000	100.130681
1624.000000	100.131097
1623.000000	100.133319
1622.000000	100.136121
1621.000000	100.138521
1620.000000	100.140628
1619.000000	100.142080
1618.000000	100.141768
1617.000000	100.140165
1616.000000	100.140802
1615.000000	100.144366
1614.000000	100.148196
1613.000000	100.151800
1612.000000	100.156381
1611.000000	100.161556
1610.000000	100.165039
1609.000000	100.166321
1608.000000	100.167198
1607.000000	100.168582
1606.000000	100.169871
1605.000000	100.171197
1604.000000	100.173211
1603.000000	100.175630
1602.000000	100.177563
1601.000000	100.178697
1600.000000	100.179385
1599.000000	100.179970
1598.000000	100.180842
1597.000000	100.182408
1596.000000	100.184581
1595.000000	100.186772
1594.000000	100.188525
1593.000000	100.189962
1592.000000	100.191346
1591.000000	100.192692
1590.000000	100.193975
1589.000000	100.195322
1588.000000	100.196811
1587.000000	100.198370
1586.000000	100.199913
1585.000000	100.201421
1584.000000	100.202901
1583.000000	100.204352
1582.000000	100.205775
1581.000000	100.207169
1580.000000	100.208538
1579.000000	100.209881
1578.000000	100.211189
1577.000000	100.212451
1576.000000	100.213658
1575.000000	100.214801
1574.000000	100.215874
1573.000000	100.216880
1572.000000	100.217828
1571.000000	100.218729
1570.000000	100.219589
1569.000000	100.220408
1568.000000	100.221185
1567.000000	100.221912
1566.000000	100.222576
1565.000000	100.223173
1564.000000	100.223708
1563.000000	100.224188
1562.000000	100.224622
1561.000000	100.225054
1560.000000	100.225578
1559.000000	100.226235
1558.000000	100.226753
1557.000000	100.227022
1556.000000	100.227215
1555.000000	100.227459
1554.000000	100.227692
1553.000000	100.227875
1552.000000	100.228118
1551.000000	100.228576
1550.000000	100.229146
1549.000000	100.229518
1548.000000	100.229685
1547.000000	100.229962
1546.000000	100.230452
1545.000000	100.230620
1544.000000	100.230004
1543.000000	100.229146
1542.000000	100.229039
1541.000000	100.229412
1540.000000	100.229361
1539.000000	100.229094
1538.000000	100.228500
1537.000000	100.227177
1536.000000	100.225393
1535.000000	100.223608
1534.000000	100.221808
1533.000000	100.219593
1532.000000	100.217283
1531.000000	100.215738
1530.000000	100.215049
1529.000000	100.214297
1528.000000	100.213067
1527.000000	100.212053
1526.000000	100.211624
1525.000000	100.210510
1524.000000	100.207875
1523.000000	100.205309
1522.000000	100.204710
1521.000000	100.204911
1520.000000	100.203878
1519.000000	100.201671
1518.000000	100.200119
1517.000000	100.200264
1516.000000	100.202115
1515.000000	100.205612
1514.000000	100.210353
1513.000000	100.214974
1512.000000	100.217054
1511.000000	100.216177
1510.000000	100.214094
1509.000000	100.211889
1508.000000	100.208239
1507.000000	100.203698
1506.000000	100.202542
1505.000000	100.204470
1504.000000	100.206195
1503.000000	100.207393
1502.000000	100.208563
1501.000000	100.209741
1500.000000	100.209907
1499.000000	100.208795
1498.000000	100.208345
1497.000000	100.209559
1496.000000	100.210739
1495.000000	100.211252
1494.000000	100.211945
1493.000000	100.213160
1492.000000	100.214545
1491.000000	100.215808
1490.000000	100.216932
1489.000000	100.217521
1488.000000	100.217793
1487.000000	100.219511
1486.000000	100.222337
1485.000000	100.224204
1484.000000	100.224231
1483.000000	100.222937
1482.000000	100.222007
1481.000000	100.222593
1480.000000	100.224868
1479.000000	100.228535
1478.000000	100.232899
1477.000000	100.236398
1476.000000	100.238066
1475.000000	100.239430
1474.000000	100.242108
1473.000000	100.245417
1472.000000	100.247249
1471.000000	100.247915
1470.000000	100.248043
1469.000000	100.247206
1468.000000	100.245316
1467.000000	100.243978
1466.000000	100.245001
1465.000000	100.248167
1464.000000	100.251465
1463.000000	100.253631
1462.000000	100.254545
1461.000000	100.253382
1460.000000	100.249767
1459.000000	100.245742
1458.000000	100.246055
1457.000000	100.250808
1456.000000	100.252721
1455.000000	100.249275
1454.000000	100.244944
1453.000000	100.242025
1452.000000	100.239242
1451.000000	100.236075
1450.000000	100.234628
1449.000000	100.235881
1448.000000	100.237065
1447.000000	100.235641
1446.000000	100.232611
1445.000000	100.230001
1444.000000	100.227596
1443.000000	100.224776
1442.000000	100.222571
1441.000000	100.222320
1440.000000	100.223269
1439.000000	100.223724
1438.000000	100.223797
1437.000000	100.223701
1436.000000	100.222176
1435.000000	100.219298
1434.000000	100.217241
1433.000000	100.216723
1432.000000	100.216427
1431.000000	100.214852
1430.000000	100.213271
1429.000000	100.213727
1428.000000	100.215136
1427.000000	100.215016
1426.000000	100.213043
1425.000000	100.211519
1424.000000	100.211039
1423.000000	100.210257
1422.000000	100.210284
1421.000000	100.214347
1420.000000	100.222926
1419.000000	100.231487
1418.000000	100.237778
1417.000000	100.242434
1416.000000	100.244741
1415.000000	100.244550
1414.000000	100.243677
1413.000000	100.244291
1412.000000	100.246140
1411.000000	100.247541
1410.000000	100.248854
1409.000000	100.251110
1408.000000	100.253338
1407.000000	100.254193
1406.000000	100.254153
1405.000000	100.255236
1404.000000	100.257070
1403.000000	100.257816
1402.000000	100.258493
1401.000000	100.261751
1400.000000	100.267976
1399.000000	100.274146
1398.000000	100.278480
1397.000000	100.282227
1396.000000	100.285922
1395.000000	100.287441
1394.000000	100.285935
1393.000000	100.284286
1392.000000	100.284090
1391.000000	100.284532
1390.000000	100.284768
1389.000000	100.285531
1388.000000	100.288420
1387.000000	100.293591
1386.000000	100.298710
1385.000000	100.301269
1384.000000	100.300597
1383.000000	100.297761
1382.000000	100.294784
1381.000000	100.293170
1380.000000	100.293144
1379.000000	100.293531
1378.000000	100.293000
1377.000000	100.291759
1376.000000	100.291290
1375.000000	100.292150
1374.000000	100.292880
1373.000000	100.291874
1372.000000	100.289261
1371.000000	100.286681
1370.000000	100.285513
1369.000000	100.286475
1368.000000	100.289134
1367.000000	100.292252
1366.000000	100.294746
1365.000000	100.295847
1364.000000	100.294954
1363.000000	100.292289
1362.000000	100.289336
1361.000000	100.287789
1360.000000	100.287980
1359.000000	100.288907
1358.000000	100.289365
1357.000000	100.289048
1356.000000	100.288524
1355.000000	100.288562
1354.000000	100.289614
1353.000000	100.291567
1352.000000	100.293897
1351.000000	100.295904
1350.000000	100.296714
1349.000000	100.296387
1348.000000	100.295746
1347.000000	100.295402
1346.000000	100.295137
1345.000000	100.294431
1344.000000	100.293107
1343.000000	100.291550
1342.000000	100.290533
1341.000000	100.290863
1340.000000	100.292675
1339.000000	100.294900
1338.000000	100.296222
1337.000000	100.296587
1336.000000	100.296808
1335.000000	100.297027
1334.000000	100.296425
1333.000000	100.294632
1332.000000	100.292679
1331.000000	100.291915
1330.000000	100.292377
1329.000000	100.293119
1328.000000	100.293756
1327.000000	100.294806
1326.000000	100.296447
1325.000000	100.298010
1324.000000	100.298421
1323.000000	100.297159
1322.000000	100.294754
1321.000000	100.292399
1320.000000	100.291097
1319.000000	100.291272
1318.000000	100.292845
1317.000000	100.295134
1316.000000	100.296918
1315.000000	100.297162
1314.000000	100.295948
1313.000000	100.294373
1312.000000	100.293299
1311.000000	100.292493
1310.000000	100.291321
1309.000000	100.289907
1308.000000	100.289156
1307.000000	100.289706
1306.000000	100.291050
1305.000000	100.292340
1304.000000	100.293372
1303.000000	100.294709
1302.000000	100.296725
1301.000000	100.298859
1300.000000	100.300089
1299.000000	100.300010
1298.000000	100.298922
1297.000000	100.296814
1296.000000	100.293152
1295.000000	100.288173
1294.000000	100.283793
1293.000000	100.282143
1292.000000	100.283392
1291.000000	100.285716
1290.000000	100.287233
1289.000000	100.287388
1288.000000	100.286658
1287.000000	100.285864
1286.000000	100.285796
1285.000000	100.286524
1284.000000	100.286717
1283.000000	100.284498
1282.000000	100.279514
1281.000000	100.273880
1280.000000	100.270657
1279.000000	100.271162
1278.000000	100.274008
1277.000000	100.276485
1276.000000	100.276913
1275.000000	100.275593
1274.000000	100.273838
1273.000000	100.272393
1272.000000	100.271125
1271.000000	100.270124
1270.000000	100.270485
1269.000000	100.273538
1268.000000	100.279413
1267.000000	100.286625
1266.000000	100.293050
1265.000000	100.297037
1264.000000	100.298177
1263.000000	100.297647
1262.000000	100.297387
1261.000000	100.298241
1260.000000	100.299120
1259.000000	100.298254
1258.000000	100.295146
1257.000000	100.290658
1256.000000	100.285857
1255.000000	100.281502
1254.000000	100.277980
1253.000000	100.274694
1252.000000	100.270051
1251.000000	100.263133
1250.000000	100.255290
1249.000000	100.248963
1248.000000	100.244762
1247.000000	100.240620
1246.000000	100.234243
1245.000000	100.225344
1244.000000	100.215187
1243.000000	100.204852
1242.000000	100.194665
1241.000000	100.185003
1240.000000	100.176880
1239.000000	100.171171
1238.000000	100.167199
1237.000000	100.162633
1236.000000	100.155327
1235.000000	100.145133
1234.000000	100.133682
1233.000000	100.122686
1232.000000	100.112712
1231.000000	100.102863
1230.000000	100.090942
1229.000000	100.074693
1228.000000	100.054139
1227.000000	100.032241
1226.000000	100.011708
1225.000000	99.991474
1224.000000	99.968063
1223.000000	99.940005
1222.000000	99.908734
1221.000000	99.875351
1220.000000	99.839118
1219.000000	99.799674
1218.000000	99.758202
1217.000000	99.715226
1216.000000	99.669653
1215.000000	99.621644
1214.000000	99.574585
1213.000000	99.532109
1212.000000	99.493844
1211.000000	99.455544
1210.000000	99.412985
1209.000000	99.365221
1208.000000	99.314854
1207.000000	99.265643
1206.000000	99.219005
1205.000000	99.172776
1204.000000	99.124275
1203.000000	99.074010
1202.000000	99.025027
1201.000000	98.979063
1200.000000	98.935176
1199.000000	98.892316
1198.000000	98.851498
1197.000000	98.814515
1196.000000	98.781201
1195.000000	98.748409
1194.000000	98.711653
1193.000000	98.668520
1192.000000	98.621035
1191.000000	98.573972
1190.000000	98.529950
1189.000000	98.486817
1188.000000	98.440495
1187.000000	98.389193
1186.000000	98.334017
1185.000000	98.277047
1184.000000	98.220434
1183.000000	98.165962
1182.000000	98.113361
1181.000000	98.059968
1180.000000	98.003822
1179.000000	97.946117
1178.000000	97.888990
1177.000000	97.832230
1176.000000	97.774153
1175.000000	97.714491
1174.000000	97.654207
1173.000000	97.593536
1172.000000	97.532217
1171.000000	97.470529
1170.000000	97.408053
1169.000000	97.342842
1168.000000	97.274643
1167.000000	97.208418
1166.000000	97.152399
1165.000000	97.113084
1164.000000	97.093416
1163.000000	97.093644
1162.000000	97.110918
1161.000000	97.138769
1160.000000	97.169326
1159.000000	97.195966
1158.000000	97.213076
1157.000000	97.214956
1156.000000	97.197679
1155.000000	97.162649
1154.000000	97.116883
1153.000000	97.068714
1152.000000	97.022927
1151.000000	96.978989
1150.000000	96.932735
1149.000000	96.880337
1148.000000	96.822143
1147.000000	96.762968
1146.000000	96.708097
1145.000000	96.659251
1144.000000	96.614556
1143.000000	96.570901
1142.000000	96.525553
1141.000000	96.476991
1140.000000	96.425450
1139.000000	96.372081
1138.000000	96.317265
1137.000000	96.260758
1136.000000	96.203425
1135.000000	96.147058
1134.000000	96.092143
1133.000000	96.037587
1132.000000	95.982760
1131.000000	95.927603
1130.000000	95.870810
1129.000000	95.810984
1128.000000	95.750149
1127.000000	95.692789
1126.000000	95.640178
1125.000000	95.588551
1124.000000	95.534032
1123.000000	95.476323
1122.000000	95.416796
1121.000000	95.356749
1120.000000	95.299035
1119.000000	95.247048
1118.000000	95.199333
1117.000000	95.148941
1116.000000	95.091617
1115.000000	95.031991
1114.000000	94.978006
1113.000000	94.930805
1112.000000	94.883398
1111.000000	94.828783
1110.000000	94.767705
1109.000000	94.708797
1108.000000	94.661081
1107.000000	94.625314
1106.000000	94.592424
1105.000000	94.552633
1104.000000	94.505582
1103.000000	94.458562
1102.000000	94.416224
1101.000000	94.376448
1100.000000	94.334811
1099.000000	94.289405
1098.000000	94.239740
1097.000000	94.187921
1096.000000	94.140775
1095.000000	94.104992
1094.000000	94.078811
1093.000000	94.053884
1092.000000	94.026361
1091.000000	94.000120
1090.000000	93.977976
1089.000000	93.956783
1088.000000	93.934016
1087.000000	93.912843
1086.000000	93.896795
1085.000000	93.884128
1084.000000	93.870786
1083.000000	93.855063
1082.000000	93.836935
1081.000000	93.816824
1080.000000	93.797080
1079.000000	93.780444
1078.000000	93.764939
1077.000000	93.744605
1076.000000	93.717127
1075.000000	93.685978
1074.000000	93.652811
1073.000000	93.612428
1072.000000	93.558307
1071.000000	93.489222
1070.000000	93.407716
1069.000000	93.315483
1068.000000	93.213577
1067.000000	93.105118
1066.000000	92.994770
1065.000000	92.885972
1064.000000	92.779124
1063.000000	92.671411
1062.000000	92.560150
1061.000000	92.449386
1060.000000	92.350480
1059.000000	92.270529
1058.000000	92.201975
1057.000000	92.130410
1056.000000	92.051124
1055.000000	91.969938
1054.000000	91.888609
1053.000000	91.799461
1052.000000	91.697541
1051.000000	91.589060
1050.000000	91.482104
1049.000000	91.375698
1048.000000	91.263449
1047.000000	91.142258
1046.000000	91.014034
1045.000000	90.884315
1044.000000	90.760781
1043.000000	90.647078
1042.000000	90.536824
1041.000000	90.419704
1040.000000	90.294132
1039.000000	90.167547
1038.000000	90.045151
1037.000000	89.927435
1036.000000	89.818989
1035.000000	89.728706
1034.000000	89.657732
1033.000000	89.596266
1032.000000	89.536221
1031.000000	89.479852
1030.000000	89.432826
1029.000000	89.396124
1028.000000	89.367571
1027.000000	89.344389
1026.000000	89.321737
1025.000000	89.294911
1024.000000	89.264538
1023.000000	89.233944
1022.000000	89.201987
1021.000000	89.165795
1020.000000	89.129711
1019.000000	89.102376
1018.000000	89.084451
1017.000000	89.067963
1016.000000	89.048231
1015.000000	89.027308
1014.000000	89.005136
1013.000000	88.977496
1012.000000	88.945058
1011.000000	88.915408
1010.000000	88.893295
1009.000000	88.876514
1008.000000	88.863110
1007.000000	88.854685
1006.000000	88.850652
1005.000000	88.846796
1004.000000	88.841522
1003.000000	88.837259
1002.000000	88.835278
1001.000000	88.835700
1000.000000	88.841854
999.000000	88.856837
998.000000	88.876282
997.000000	88.892634
996.000000	88.906086
995.000000	88.922831
994.000000	88.943466
993.000000	88.962686
992.000000	88.980358
991.000000	89.003315
990.000000	89.035522
989.000000	89.075078
988.000000	89.120900
987.000000	89.173807
986.000000	89.231377
985.000000	89.290745
984.000000	89.355966
983.000000	89.433246
982.000000	89.519747
981.000000	89.607070
980.000000	89.695386
979.000000	89.793266
978.000000	89.903289
977.000000	90.018791
976.000000	90.136055
975.000000	90.259277
974.000000	90.391393
973.000000	90.529398
972.000000	90.670749
971.000000	90.815727
970.000000	90.961598
969.000000	91.102655
968.000000	91.237858
967.000000	91.371111
966.000000	91.503070
965.000000	91.630258
964.000000	91.753164
963.000000	91.877300
962.000000	92.004563
961.000000	92.130304
960.000000	92.250155
959.000000	92.363637
958.000000	92.471048
957.000000	92.573592
956.000000	92.676502
955.000000	92.784609
954.000000	92.894244
953.000000	92.996659
952.000000	93.089457
951.000000	93.177088
950.000000	93.260212
949.000000	93.333484
948.000000	93.395724
947.000000	93.453959
946.000000	93.514144
945.000000	93.574252
944.000000	93.629337
943.000000	93.677584
942.000000	93.719559
941.000000	93.757811
940.000000	93.799136
939.000000	93.850696
938.000000	93.911083
937.000000	93.970740
936.000000	94.022988
935.000000	94.069143
934.000000	94.112264
933.000000	94.153205
932.000000	94.194870
931.000000	94.242426
930.000000	94.295364
929.000000	94.346126
928.000000	94.390831
927.000000	94.435226
926.000000	94.485651
925.000000	94.539854
924.000000	94.591863
923.000000	94.640800
922.000000	94.688802
921.000000	94.733848
920.000000	94.771216
919.000000	94.801134
918.000000	94.830114
917.000000	94.864525
916.000000	94.905740
915.000000	94.950922
914.000000	94.996015
913.000000	95.038590
912.000000	95.080246
911.000000	95.126724
910.000000	95.184616
909.000000	95.257191
908.000000	95.342568
907.000000	95.435148
906.000000	95.530005
905.000000	95.627202
904.000000	95.730442
903.000000	95.840521
902.000000	95.952612
901.000000	96.061692
900.000000	96.167249
899.000000	96.270252
898.000000	96.369710
897.000000	96.466970
896.000000	96.569343
895.000000	96.683046
894.000000	96.803838
893.000000	96.920156
892.000000	97.024346
891.000000	97.115391
890.000000	97.192861
889.000000	97.256442
888.000000	97.312932
887.000000	97.376058
886.000000	97.454102
885.000000	97.541301
884.000000	97.625480
883.000000	97.701347
882.000000	97.772979
881.000000	97.845675
880.000000	97.919570
879.000000	97.991076
878.000000	98.057514
877.000000	98.119506
876.000000	98.180284
875.000000	98.243195
874.000000	98.309224
873.000000	98.376455
872.000000	98.441927
871.000000	98.504341
870.000000	98.565702
869.000000	98.630432
868.000000	98.701895
867.000000	98.778859
866.000000	98.855375
865.000000	98.924526
864.000000	98.982545
863.000000	99.030955
862.000000	99.076986
861.000000	99.130821
860.000000	99.198157
859.000000	99.273082
858.000000	99.340721
857.000000	99.389780
856.000000	99.421680
855.000000	99.446636
854.000000	99.472954
853.000000	99.502128
852.000000	99.532154
851.000000	99.561286
850.000000	99.588229
849.000000	99.612250
848.000000	99.634677
847.000000	99.658308
846.000000	99.683795
845.000000	99.707431
844.000000	99.723330
843.000000	99.727483
842.000000	99.719969
841.000000	99.704280
840.000000	99.684335
839.000000	99.660761
838.000000	99.630109
837.000000	99.589779
836.000000	99.544446
835.000000	99.505206
834.000000	99.479882
833.000000	99.465203
832.000000	99.451253
831.000000	99.433689
830.000000	99.419473
829.000000	99.419737
828.000000	99.438130
827.000000	99.466862
826.000000	99.493347
825.000000	99.509794
824.000000	99.516592
823.000000	99.518242
822.000000	99.517802
821.000000	99.515018
820.000000	99.507957
819.000000	99.494986
818.000000	99.475244
817.000000	99.447774
816.000000	99.410385
815.000000	99.359506
814.000000	99.291423
813.000000	99.203649
812.000000	99.094494
811.000000	98.960740
810.000000	98.795995
809.000000	98.593047
808.000000	98.349910
807.000000	98.073908
806.000000	97.778419
805.000000	97.475589
804.000000	97.173819
803.000000	96.881699
802.000000	96.611939
801.000000	96.381114
800.000000	96.206090
799.000000	96.097808
798.000000	96.054903
797.000000	96.063509
796.000000	96.104766
795.000000	96.163079
794.000000	96.229432
793.000000	96.300031
792.000000	96.372125
791.000000	96.439810
790.000000	96.494309
789.000000	96.528872
788.000000	96.541352
787.000000	96.530560
786.000000	96.492434
785.000000	96.423039
784.000000	96.325485
783.000000	96.212373
782.000000	96.101292
781.000000	96.008134
780.000000	95.943246
779.000000	95.911512
778.000000	95.915217
777.000000	95.956420
776.000000	96.034340
775.000000	96.140034
774.000000	96.258157
773.000000	96.377233
772.000000	96.494792
771.000000	96.609914
770.000000	96.715819
769.000000	96.804491
768.000000	96.874832
767.000000	96.931033
766.000000	96.975473
765.000000	97.008464
764.000000	97.033091
763.000000	97.054418
762.000000	97.073880
761.000000	97.089757
760.000000	97.104496
759.000000	97.127135
758.000000	97.165790
757.000000	97.219508
756.000000	97.278994
755.000000	97.334480
754.000000	97.382692
753.000000	97.427402
752.000000	97.474012
751.000000	97.523838
750.000000	97.573791
749.000000	97.620925
748.000000	97.665466
747.000000	97.709441
746.000000	97.755092
745.000000	97.805661
744.000000	97.865471
743.000000	97.937599
742.000000	98.022294
741.000000	98.117268
740.000000	98.217015
739.000000	98.312180
738.000000	98.394176
737.000000	98.462759
736.000000	98.526055
735.000000	98.591167
734.000000	98.656548
733.000000	98.714244
732.000000	98.757183
731.000000	98.783651
730.000000	98.797374
729.000000	98.804421
728.000000	98.810713
727.000000	98.821558
726.000000	98.841225
725.000000	98.872026
724.000000	98.911868
723.000000	98.953280
722.000000	98.988118
721.000000	99.014701
720.000000	99.039504
719.000000	99.071691
718.000000	99.116602
717.000000	99.172699
716.000000	99.230013
715.000000	99.272857
714.000000	99.291900
713.000000	99.295915
712.000000	99.306199
711.000000	99.335255
710.000000	99.374441
709.000000	99.405314
708.000000	99.419371
707.000000	99.423359
706.000000	99.426203
705.000000	99.427263
704.000000	99.417810
703.000000	99.386538
702.000000	99.323592
701.000000	99.223261
700.000000	99.085129
699.000000	98.916930
698.000000	98.736376
697.000000	98.571042
696.000000	98.452271
695.000000	98.400240
694.000000	98.415036
693.000000	98.479336
692.000000	98.566791
691.000000	98.654342
690.000000	98.731166
689.000000	98.800792
688.000000	98.872958
687.000000	98.949767
686.000000	99.023228
685.000000	99.082928
684.000000	99.121844
683.000000	99.139933
682.000000	99.146341
681.000000	99.156007
680.000000	99.178684
679.000000	99.212795
678.000000	99.251831
677.000000	99.288667
676.000000	99.318819
675.000000	99.347339
674.000000	99.385080
673.000000	99.434747
672.000000	99.485830
671.000000	99.526981
670.000000	99.563564
669.000000	99.614183
668.000000	99.669893
667.000000	99.699690
666.000000	99.703700
665.000000	99.680317
664.000000	99.644849
663.000000	99.630967
662.000000	99.657657
661.000000	99.708665
660.000000	99.755236
659.000000	99.782701
658.000000	99.787664
657.000000	99.765663
656.000000	99.719049
655.000000	99.666001
654.000000	99.620790
653.000000	99.579837
652.000000	99.541675
651.000000	99.520560
650.000000	99.528975
649.000000	99.561638
648.000000	99.606635
647.000000	99.653779
646.000000	99.687290
645.000000	99.694947
644.000000	99.687999
643.000000	99.693023
642.000000	99.721371
641.000000	99.761878
640.000000	99.805832
639.000000	99.856599
638.000000	99.908565
637.000000	99.944262
636.000000	99.961790
635.000000	99.978215
634.000000	99.999568
633.000000	100.012216
632.000000	100.010607
631.000000	100.008859
630.000000	100.016588
629.000000	100.026034
628.000000	100.034767
627.000000	100.056658
626.000000	100.093899
625.000000	100.123257
624.000000	100.129939
623.000000	100.135405
622.000000	100.170510
621.000000	100.231526
620.000000	100.282759
619.000000	100.296566
618.000000	100.279779
617.000000	100.265582
616.000000	100.284304
615.000000	100.333884
614.000000	100.378022
613.000000	100.386198
612.000000	100.366685
611.000000	100.348253
610.000000	100.336667
609.000000	100.310342
608.000000	100.260537
607.000000	100.209356
606.000000	100.179328
605.000000	100.167758
604.000000	100.164221
603.000000	100.172912
602.000000	100.202233
601.000000	100.245400
600.000000	100.283480
599.000000	100.300767
598.000000	100.295065
597.000000	100.276900
596.000000	100.257230
595.000000	100.231904
594.000000	100.184112
593.000000	100.113821
592.000000	100.056135
591.000000	100.049199
590.000000	100.084739
589.000000	100.115354
588.000000	100.111864
587.000000	100.086950
586.000000	100.066721
585.000000	100.065988
584.000000	100.096682
583.000000	100.169401
582.000000	100.270001
581.000000	100.359368
580.000000	100.409332
579.000000	100.417481
578.000000	100.389066
577.000000	100.329514
576.000000	100.264439
575.000000	100.238703
574.000000	100.270226
573.000000	100.328681
572.000000	100.374250
571.000000	100.392026
570.000000	100.386580
569.000000	100.367765
568.000000	100.347537
567.000000	100.332311
566.000000	100.312821
565.000000	100.282626
564.000000	100.262270
563.000000	100.273489
562.000000	100.291902
561.000000	100.265866
560.000000	100.184777
559.000000	100.094096
558.000000	100.038214
557.000000	100.018823
556.000000	100.024886
555.000000	100.057472
554.000000	100.107844
553.000000	100.153779
552.000000	100.191740
551.000000	100.229264
550.000000	100.241330
