PE IR       SUBTECH     SPECTRUM    ASCII       PEDS        4.00        
   -1
BH1 8-1 3 50_1.asc
24/05/15
16:57:33.00
24/05/15
16:57:53.00
Administrator
?品 127 用? Administrator 日期 Wednesday, May 15 2024
550.000000
#HDR
-1
-1
#GR
cm-1
%T
1.0
0.0
4000.000000
-1.000000
3451
8
100.057211
75.119587
#DATA
4000.000000	99.504259
3999.000000	99.504046
3998.000000	99.503743
3997.000000	99.503345
3996.000000	99.502885
3995.000000	99.502417
3994.000000	99.502035
3993.000000	99.501829
3992.000000	99.501802
3991.000000	99.501851
3990.000000	99.501835
3989.000000	99.501686
3988.000000	99.501433
3987.000000	99.501164
3986.000000	99.500981
3985.000000	99.500963
3984.000000	99.501126
3983.000000	99.501366
3982.000000	99.501477
3981.000000	99.501293
3980.000000	99.500814
3979.000000	99.500192
3978.000000	99.499594
3977.000000	99.499096
3976.000000	99.498716
3975.000000	99.498471
3974.000000	99.498390
3973.000000	99.498451
3972.000000	99.498546
3971.000000	99.498525
3970.000000	99.498277
3969.000000	99.497799
3968.000000	99.497199
3967.000000	99.496654
3966.000000	99.496283
3965.000000	99.496084
3964.000000	99.495935
3963.000000	99.495695
3962.000000	99.495329
3961.000000	99.494924
3960.000000	99.494595
3959.000000	99.494364
3958.000000	99.494162
3957.000000	99.493941
3956.000000	99.493788
3955.000000	99.493894
3954.000000	99.494376
3953.000000	99.495089
3952.000000	99.495585
3951.000000	99.495421
3950.000000	99.494482
3949.000000	99.493115
3948.000000	99.491942
3947.000000	99.491371
3946.000000	99.491422
3945.000000	99.491788
3944.000000	99.492036
3943.000000	99.491919
3942.000000	99.491525
3941.000000	99.491151
3940.000000	99.491014
3939.000000	99.491046
3938.000000	99.490937
3937.000000	99.490391
3936.000000	99.489392
3935.000000	99.488255
3934.000000	99.487385
3933.000000	99.486994
3932.000000	99.486985
3931.000000	99.487141
3930.000000	99.487319
3929.000000	99.487387
3928.000000	99.487250
3927.000000	99.486994
3926.000000	99.486884
3925.000000	99.487148
3924.000000	99.487751
3923.000000	99.488518
3922.000000	99.489354
3921.000000	99.490176
3920.000000	99.490790
3919.000000	99.490942
3918.000000	99.490579
3917.000000	99.489987
3916.000000	99.489612
3915.000000	99.489758
3914.000000	99.490428
3913.000000	99.491334
3912.000000	99.492043
3911.000000	99.492217
3910.000000	99.491803
3909.000000	99.491011
3908.000000	99.490190
3907.000000	99.489654
3906.000000	99.489542
3905.000000	99.489756
3904.000000	99.489984
3903.000000	99.489901
3902.000000	99.489423
3901.000000	99.488720
3900.000000	99.488067
3899.000000	99.487640
3898.000000	99.487412
3897.000000	99.487228
3896.000000	99.486965
3895.000000	99.486641
3894.000000	99.486416
3893.000000	99.486423
3892.000000	99.486555
3891.000000	99.486419
3890.000000	99.485703
3889.000000	99.484473
3888.000000	99.483167
3887.000000	99.482221
3886.000000	99.481706
3885.000000	99.481325
3884.000000	99.480930
3883.000000	99.480834
3882.000000	99.481396
3881.000000	99.482458
3880.000000	99.483179
3879.000000	99.482767
3878.000000	99.481295
3877.000000	99.479694
3876.000000	99.478862
3875.000000	99.478798
3874.000000	99.478502
3873.000000	99.476960
3872.000000	99.474280
3871.000000	99.471800
3870.000000	99.470726
3869.000000	99.470886
3868.000000	99.471284
3867.000000	99.471438
3866.000000	99.471557
3865.000000	99.472066
3864.000000	99.473165
3863.000000	99.474554
3862.000000	99.475598
3861.000000	99.475700
3860.000000	99.474648
3859.000000	99.472663
3858.000000	99.470111
3857.000000	99.467323
3856.000000	99.464798
3855.000000	99.463021
3854.000000	99.461477
3853.000000	99.458756
3852.000000	99.455178
3851.000000	99.453031
3850.000000	99.453270
3849.000000	99.454901
3848.000000	99.457194
3847.000000	99.460313
3846.000000	99.464120
3845.000000	99.467372
3844.000000	99.468459
3843.000000	99.466949
3842.000000	99.464238
3841.000000	99.462455
3840.000000	99.462740
3839.000000	99.464573
3838.000000	99.466540
3837.000000	99.467665
3836.000000	99.467797
3835.000000	99.467144
3834.000000	99.466300
3833.000000	99.466517
3832.000000	99.468846
3831.000000	99.472778
3830.000000	99.476464
3829.000000	99.478482
3828.000000	99.478972
3827.000000	99.479016
3826.000000	99.479337
3825.000000	99.479725
3824.000000	99.479551
3823.000000	99.478366
3822.000000	99.476333
3821.000000	99.474121
3820.000000	99.472470
3819.000000	99.472326
3818.000000	99.474106
3817.000000	99.476921
3816.000000	99.479365
3815.000000	99.481043
3814.000000	99.482977
3813.000000	99.485794
3812.000000	99.488422
3811.000000	99.489409
3810.000000	99.488444
3809.000000	99.486160
3808.000000	99.483052
3807.000000	99.479074
3806.000000	99.474680
3805.000000	99.471460
3804.000000	99.470688
3803.000000	99.471865
3802.000000	99.473185
3801.000000	99.473499
3800.000000	99.474131
3799.000000	99.477374
3798.000000	99.483228
3797.000000	99.489290
3796.000000	99.493452
3795.000000	99.495614
3794.000000	99.496797
3793.000000	99.497318
3792.000000	99.496443
3791.000000	99.493750
3790.000000	99.490034
3789.000000	99.486675
3788.000000	99.484527
3787.000000	99.483612
3786.000000	99.483691
3785.000000	99.484749
3784.000000	99.486910
3783.000000	99.490025
3782.000000	99.493280
3781.000000	99.495167
3780.000000	99.494431
3779.000000	99.491386
3778.000000	99.488109
3777.000000	99.486659
3776.000000	99.487108
3775.000000	99.487539
3774.000000	99.485961
3773.000000	99.482309
3772.000000	99.478632
3771.000000	99.477210
3770.000000	99.478329
3769.000000	99.480254
3768.000000	99.481689
3767.000000	99.483289
3766.000000	99.486227
3765.000000	99.490141
3764.000000	99.493080
3763.000000	99.493401
3762.000000	99.491148
3761.000000	99.487811
3760.000000	99.485149
3759.000000	99.483668
3758.000000	99.482344
3757.000000	99.480071
3756.000000	99.476872
3755.000000	99.473469
3754.000000	99.470256
3753.000000	99.467035
3752.000000	99.463812
3751.000000	99.461408
3750.000000	99.460215
3749.000000	99.459360
3748.000000	99.458319
3747.000000	99.457991
3746.000000	99.459973
3745.000000	99.464470
3744.000000	99.468210
3743.000000	99.468950
3742.000000	99.469321
3741.000000	99.471123
3740.000000	99.472208
3739.000000	99.470076
3738.000000	99.464652
3737.000000	99.458037
3736.000000	99.452457
3735.000000	99.448918
3734.000000	99.447594
3733.000000	99.448360
3732.000000	99.450191
3731.000000	99.451208
3730.000000	99.450198
3729.000000	99.447495
3728.000000	99.444711
3727.000000	99.443726
3726.000000	99.445251
3725.000000	99.448664
3724.000000	99.453129
3723.000000	99.458020
3722.000000	99.462140
3721.000000	99.463366
3720.000000	99.459927
3719.000000	99.451968
3718.000000	99.441795
3717.000000	99.432658
3716.000000	99.426980
3715.000000	99.425431
3714.000000	99.426790
3713.000000	99.428187
3712.000000	99.426445
3711.000000	99.420554
3710.000000	99.412766
3709.000000	99.406160
3708.000000	99.401887
3707.000000	99.399071
3706.000000	99.396018
3705.000000	99.391314
3704.000000	99.384465
3703.000000	99.376258
3702.000000	99.368406
3701.000000	99.362297
3700.000000	99.358202
3699.000000	99.355920
3698.000000	99.354864
3697.000000	99.353568
3696.000000	99.350289
3695.000000	99.344616
3694.000000	99.338091
3693.000000	99.332526
3692.000000	99.327821
3691.000000	99.321762
3690.000000	99.312967
3689.000000	99.303545
3688.000000	99.297297
3687.000000	99.295920
3686.000000	99.297454
3685.000000	99.297576
3684.000000	99.292783
3683.000000	99.282791
3682.000000	99.269913
3681.000000	99.256852
3680.000000	99.244930
3679.000000	99.234343
3678.000000	99.225449
3677.000000	99.218682
3676.000000	99.212832
3675.000000	99.204580
3674.000000	99.192404
3673.000000	99.178590
3672.000000	99.164785
3671.000000	99.150042
3670.000000	99.133509
3669.000000	99.115763
3668.000000	99.098202
3667.000000	99.081949
3666.000000	99.067045
3665.000000	99.052932
3664.000000	99.038984
3663.000000	99.024560
3662.000000	99.009533
3661.000000	98.994782
3660.000000	98.981463
3659.000000	98.969679
3658.000000	98.957871
3657.000000	98.943953
3656.000000	98.927125
3655.000000	98.908746
3654.000000	98.891202
3653.000000	98.875818
3652.000000	98.863171
3651.000000	98.855172
3650.000000	98.853220
3649.000000	98.853333
3648.000000	98.848382
3647.000000	98.836524
3646.000000	98.822323
3645.000000	98.810259
3644.000000	98.800667
3643.000000	98.790950
3642.000000	98.779316
3641.000000	98.766757
3640.000000	98.755355
3639.000000	98.745583
3638.000000	98.736133
3637.000000	98.725865
3636.000000	98.714457
3635.000000	98.701288
3634.000000	98.685448
3633.000000	98.667747
3632.000000	98.651717
3631.000000	98.641622
3630.000000	98.639246
3629.000000	98.641726
3628.000000	98.643808
3627.000000	98.643786
3626.000000	98.643062
3625.000000	98.640756
3624.000000	98.635007
3623.000000	98.627330
3622.000000	98.622402
3621.000000	98.624814
3620.000000	98.636197
3619.000000	98.654083
3618.000000	98.673078
3617.000000	98.688458
3616.000000	98.698193
3615.000000	98.702815
3614.000000	98.705010
3613.000000	98.708319
3612.000000	98.715044
3611.000000	98.725824
3610.000000	98.740396
3609.000000	98.757488
3608.000000	98.774486
3607.000000	98.788439
3606.000000	98.797990
3605.000000	98.804001
3604.000000	98.808636
3603.000000	98.814598
3602.000000	98.824141
3601.000000	98.837795
3600.000000	98.853470
3599.000000	98.867405
3598.000000	98.876229
3597.000000	98.878717
3596.000000	98.876361
3595.000000	98.872888
3594.000000	98.872092
3593.000000	98.875258
3592.000000	98.880866
3591.000000	98.886647
3590.000000	98.891858
3589.000000	98.897278
3588.000000	98.902590
3587.000000	98.904347
3586.000000	98.899619
3585.000000	98.891083
3584.000000	98.885191
3583.000000	98.885746
3582.000000	98.890714
3581.000000	98.895168
3580.000000	98.896299
3579.000000	98.895038
3578.000000	98.893197
3577.000000	98.890643
3576.000000	98.886045
3575.000000	98.879013
3574.000000	98.870622
3573.000000	98.862194
3572.000000	98.854740
3571.000000	98.849340
3570.000000	98.847063
3569.000000	98.847929
3568.000000	98.850393
3567.000000	98.852503
3566.000000	98.853714
3565.000000	98.855209
3564.000000	98.858340
3563.000000	98.862777
3562.000000	98.866394
3561.000000	98.866896
3560.000000	98.863850
3559.000000	98.859048
3558.000000	98.854776
3557.000000	98.851621
3556.000000	98.848473
3555.000000	98.844509
3554.000000	98.840577
3553.000000	98.838073
3552.000000	98.836860
3551.000000	98.835258
3550.000000	98.832222
3549.000000	98.828715
3548.000000	98.826852
3547.000000	98.828054
3546.000000	98.831949
3545.000000	98.836598
3544.000000	98.839882
3543.000000	98.840812
3542.000000	98.839672
3541.000000	98.837307
3540.000000	98.834678
3539.000000	98.832907
3538.000000	98.833143
3537.000000	98.835772
3536.000000	98.839618
3535.000000	98.842593
3534.000000	98.843487
3533.000000	98.842860
3532.000000	98.842115
3531.000000	98.842026
3530.000000	98.842279
3529.000000	98.842217
3528.000000	98.841587
3527.000000	98.840666
3526.000000	98.840111
3525.000000	98.840651
3524.000000	98.842508
3523.000000	98.845008
3522.000000	98.847182
3521.000000	98.848787
3520.000000	98.850198
3519.000000	98.851418
3518.000000	98.851864
3517.000000	98.851376
3516.000000	98.850797
3515.000000	98.851072
3514.000000	98.852172
3513.000000	98.853363
3512.000000	98.854116
3511.000000	98.854161
3510.000000	98.852946
3509.000000	98.849958
3508.000000	98.845813
3507.000000	98.842358
3506.000000	98.841183
3505.000000	98.842251
3504.000000	98.844072
3503.000000	98.845129
3502.000000	98.845128
3501.000000	98.845087
3500.000000	98.846538
3499.000000	98.850544
3498.000000	98.856959
3497.000000	98.864277
3496.000000	98.870422
3495.000000	98.874043
3494.000000	98.875144
3493.000000	98.874586
3492.000000	98.873127
3491.000000	98.871080
3490.000000	98.868818
3489.000000	98.867297
3488.000000	98.867743
3487.000000	98.870577
3486.000000	98.874543
3485.000000	98.877108
3484.000000	98.876053
3483.000000	98.871124
3482.000000	98.864582
3481.000000	98.859689
3480.000000	98.857930
3479.000000	98.857781
3478.000000	98.856352
3477.000000	98.852202
3476.000000	98.846468
3475.000000	98.841544
3474.000000	98.838984
3473.000000	98.838932
3472.000000	98.840832
3471.000000	98.843847
3470.000000	98.846781
3469.000000	98.848471
3468.000000	98.848681
3467.000000	98.848308
3466.000000	98.848306
3465.000000	98.848588
3464.000000	98.848247
3463.000000	98.846685
3462.000000	98.844261
3461.000000	98.841937
3460.000000	98.840529
3459.000000	98.840279
3458.000000	98.840868
3457.000000	98.841592
3456.000000	98.841592
3455.000000	98.840220
3454.000000	98.837436
3453.000000	98.833986
3452.000000	98.831063
3451.000000	98.829529
3450.000000	98.829298
3449.000000	98.829388
3448.000000	98.828587
3447.000000	98.826254
3446.000000	98.822644
3445.000000	98.818659
3444.000000	98.815251
3443.000000	98.812880
3442.000000	98.811423
3441.000000	98.810506
3440.000000	98.809912
3439.000000	98.809562
3438.000000	98.809135
3437.000000	98.808017
3436.000000	98.805882
3435.000000	98.803186
3434.000000	98.800872
3433.000000	98.799532
3432.000000	98.798914
3431.000000	98.798124
3430.000000	98.796149
3429.000000	98.792364
3428.000000	98.787059
3427.000000	98.781682
3426.000000	98.778058
3425.000000	98.776848
3424.000000	98.776726
3423.000000	98.775261
3422.000000	98.771032
3421.000000	98.765038
3420.000000	98.760052
3419.000000	98.758307
3418.000000	98.759864
3417.000000	98.762793
3416.000000	98.764789
3415.000000	98.764932
3414.000000	98.763891
3413.000000	98.762831
3412.000000	98.762352
3411.000000	98.762335
3410.000000	98.762432
3409.000000	98.762459
3408.000000	98.762476
3407.000000	98.762693
3406.000000	98.763226
3405.000000	98.763796
3404.000000	98.763682
3403.000000	98.762225
3402.000000	98.759494
3401.000000	98.756513
3400.000000	98.754684
3399.000000	98.754765
3398.000000	98.756293
3397.000000	98.757961
3396.000000	98.758794
3395.000000	98.759010
3394.000000	98.759529
3393.000000	98.760759
3392.000000	98.762077
3391.000000	98.762603
3390.000000	98.762143
3389.000000	98.761230
3388.000000	98.760533
3387.000000	98.760456
3386.000000	98.761108
3385.000000	98.762281
3384.000000	98.763530
3383.000000	98.764560
3382.000000	98.765503
3381.000000	98.766620
3380.000000	98.767790
3379.000000	98.768533
3378.000000	98.768611
3377.000000	98.768294
3376.000000	98.768109
3375.000000	98.768421
3374.000000	98.769221
3373.000000	98.770216
3372.000000	98.771039
3371.000000	98.771588
3370.000000	98.772124
3369.000000	98.772975
3368.000000	98.774176
3367.000000	98.775482
3366.000000	98.776657
3365.000000	98.777692
3364.000000	98.778706
3363.000000	98.779751
3362.000000	98.780791
3361.000000	98.781808
3360.000000	98.782861
3359.000000	98.784018
3358.000000	98.785278
3357.000000	98.786576
3356.000000	98.787855
3355.000000	98.789121
3354.000000	98.790426
3353.000000	98.791784
3352.000000	98.793113
3351.000000	98.794306
3350.000000	98.795364
3349.000000	98.796380
3348.000000	98.797457
3347.000000	98.798613
3346.000000	98.799814
3345.000000	98.801025
3344.000000	98.802229
3343.000000	98.803420
3342.000000	98.804599
3341.000000	98.805771
3340.000000	98.806941
3339.000000	98.808119
3338.000000	98.809310
3337.000000	98.810517
3336.000000	98.811742
3335.000000	98.812981
3334.000000	98.814228
3333.000000	98.815476
3332.000000	98.816723
3331.000000	98.817973
3330.000000	98.819225
3329.000000	98.820473
3328.000000	98.821698
3327.000000	98.822881
3326.000000	98.824018
3325.000000	98.825118
3324.000000	98.826197
3323.000000	98.827265
3322.000000	98.828325
3321.000000	98.829375
3320.000000	98.830414
3319.000000	98.831444
3318.000000	98.832470
3317.000000	98.833496
3316.000000	98.834520
3315.000000	98.835542
3314.000000	98.836561
3313.000000	98.837581
3312.000000	98.838606
3311.000000	98.839642
3310.000000	98.840689
3309.000000	98.841733
3308.000000	98.842758
3307.000000	98.843761
3306.000000	98.844775
3305.000000	98.845833
3304.000000	98.846918
3303.000000	98.847953
3302.000000	98.848868
3301.000000	98.849676
3300.000000	98.850498
3299.000000	98.851471
3298.000000	98.852628
3297.000000	98.853861
3296.000000	98.855025
3295.000000	98.856106
3294.000000	98.857259
3293.000000	98.858649
3292.000000	98.860237
3291.000000	98.861744
3290.000000	98.862866
3289.000000	98.863489
3288.000000	98.863681
3287.000000	98.863641
3286.000000	98.863657
3285.000000	98.864000
3284.000000	98.864824
3283.000000	98.866050
3282.000000	98.867465
3281.000000	98.868942
3280.000000	98.870401
3279.000000	98.871724
3278.000000	98.872778
3277.000000	98.873520
3276.000000	98.874090
3275.000000	98.874793
3274.000000	98.875932
3273.000000	98.877551
3272.000000	98.879336
3271.000000	98.880838
3270.000000	98.881909
3269.000000	98.882819
3268.000000	98.883874
3267.000000	98.885029
3266.000000	98.886044
3265.000000	98.886913
3264.000000	98.887869
3263.000000	98.888977
3262.000000	98.890034
3261.000000	98.890950
3260.000000	98.891974
3259.000000	98.893347
3258.000000	98.894959
3257.000000	98.896550
3256.000000	98.898077
3255.000000	98.899666
3254.000000	98.901278
3253.000000	98.902658
3252.000000	98.903659
3251.000000	98.904419
3250.000000	98.905197
3249.000000	98.906155
3248.000000	98.907332
3247.000000	98.908736
3246.000000	98.910393
3245.000000	98.912348
3244.000000	98.914586
3243.000000	98.916824
3242.000000	98.918497
3241.000000	98.919179
3240.000000	98.918992
3239.000000	98.918695
3238.000000	98.919101
3237.000000	98.920385
3236.000000	98.922094
3235.000000	98.923649
3234.000000	98.924877
3233.000000	98.925980
3232.000000	98.927203
3231.000000	98.928659
3230.000000	98.930326
3229.000000	98.932082
3228.000000	98.933791
3227.000000	98.935466
3226.000000	98.937318
3225.000000	98.939547
3224.000000	98.942055
3223.000000	98.944391
3222.000000	98.946039
3221.000000	98.946832
3220.000000	98.947086
3219.000000	98.947407
3218.000000	98.948204
3217.000000	98.949436
3216.000000	98.950810
3215.000000	98.952187
3214.000000	98.953739
3213.000000	98.955698
3212.000000	98.958015
3211.000000	98.960325
3210.000000	98.962225
3209.000000	98.963603
3208.000000	98.964745
3207.000000	98.966111
3206.000000	98.967898
3205.000000	98.969787
3204.000000	98.971189
3203.000000	98.971799
3202.000000	98.971899
3201.000000	98.972125
3200.000000	98.972961
3199.000000	98.974520
3198.000000	98.976606
3197.000000	98.978798
3196.000000	98.980708
3195.000000	98.982267
3194.000000	98.983760
3193.000000	98.985442
3192.000000	98.987152
3191.000000	98.988531
3190.000000	98.989601
3189.000000	98.990808
3188.000000	98.992375
3187.000000	98.993888
3186.000000	98.994798
3185.000000	98.995175
3184.000000	98.995682
3183.000000	98.996812
3182.000000	98.998448
3181.000000	99.000160
3180.000000	99.001716
3179.000000	99.003193
3178.000000	99.004810
3177.000000	99.006708
3176.000000	99.008821
3175.000000	99.010926
3174.000000	99.012916
3173.000000	99.014915
3172.000000	99.016970
3171.000000	99.018755
3170.000000	99.019856
3169.000000	99.020201
3168.000000	99.019919
3167.000000	99.019027
3166.000000	99.017657
3165.000000	99.016589
3164.000000	99.016948
3163.000000	99.019070
3162.000000	99.021990
3161.000000	99.024272
3160.000000	99.025485
3159.000000	99.026453
3158.000000	99.028094
3157.000000	99.030369
3156.000000	99.032437
3155.000000	99.033657
3154.000000	99.034216
3153.000000	99.034877
3152.000000	99.036234
3151.000000	99.038240
3150.000000	99.040421
3149.000000	99.042397
3148.000000	99.044162
3147.000000	99.045888
3146.000000	99.047611
3145.000000	99.049263
3144.000000	99.050925
3143.000000	99.052813
3142.000000	99.054957
3141.000000	99.057038
3140.000000	99.058715
3139.000000	99.060012
3138.000000	99.061251
3137.000000	99.062680
3136.000000	99.064298
3135.000000	99.066018
3134.000000	99.067817
3133.000000	99.069649
3132.000000	99.071367
3131.000000	99.072881
3130.000000	99.074289
3129.000000	99.075789
3128.000000	99.077469
3127.000000	99.079254
3126.000000	99.080990
3125.000000	99.082592
3124.000000	99.084096
3123.000000	99.085609
3122.000000	99.087194
3121.000000	99.088825
3120.000000	99.090429
3119.000000	99.091950
3118.000000	99.093375
3117.000000	99.094729
3116.000000	99.096047
3115.000000	99.097357
3114.000000	99.098696
3113.000000	99.100102
3112.000000	99.101556
3111.000000	99.102960
3110.000000	99.104213
3109.000000	99.105298
3108.000000	99.106319
3107.000000	99.107428
3106.000000	99.108676
3105.000000	99.109980
3104.000000	99.111244
3103.000000	99.112489
3102.000000	99.113798
3101.000000	99.115185
3100.000000	99.116576
3099.000000	99.117905
3098.000000	99.119193
3097.000000	99.120496
3096.000000	99.121809
3095.000000	99.123047
3094.000000	99.124159
3093.000000	99.125235
3092.000000	99.126445
3091.000000	99.127836
3090.000000	99.129242
3089.000000	99.130473
3088.000000	99.131569
3087.000000	99.132778
3086.000000	99.134225
3085.000000	99.135670
3084.000000	99.136761
3083.000000	99.137458
3082.000000	99.138111
3081.000000	99.139066
3080.000000	99.140218
3079.000000	99.141102
3078.000000	99.141425
3077.000000	99.141428
3076.000000	99.141735
3075.000000	99.142786
3074.000000	99.144536
3073.000000	99.146549
3072.000000	99.148367
3071.000000	99.149854
3070.000000	99.151165
3069.000000	99.152496
3068.000000	99.153846
3067.000000	99.155004
3066.000000	99.155782
3065.000000	99.156216
3064.000000	99.156561
3063.000000	99.157110
3062.000000	99.157954
3061.000000	99.158963
3060.000000	99.159963
3059.000000	99.160940
3058.000000	99.161992
3057.000000	99.163125
3056.000000	99.164189
3055.000000	99.165088
3054.000000	99.165942
3053.000000	99.166931
3052.000000	99.168015
3051.000000	99.168940
3050.000000	99.169530
3049.000000	99.169837
3048.000000	99.170034
3047.000000	99.170276
3046.000000	99.170699
3045.000000	99.171437
3044.000000	99.172542
3043.000000	99.173911
3042.000000	99.175328
3041.000000	99.176566
3040.000000	99.177448
3039.000000	99.177908
3038.000000	99.178056
3037.000000	99.178182
3036.000000	99.178559
3035.000000	99.179269
3034.000000	99.180240
3033.000000	99.181352
3032.000000	99.182444
3031.000000	99.183286
3030.000000	99.183716
3029.000000	99.183817
3028.000000	99.183932
3027.000000	99.184353
3026.000000	99.185042
3025.000000	99.185691
3024.000000	99.186083
3023.000000	99.186390
3022.000000	99.187096
3021.000000	99.188594
3020.000000	99.190796
3019.000000	99.193083
3018.000000	99.194790
3017.000000	99.195722
3016.000000	99.196116
3015.000000	99.196174
3014.000000	99.195974
3013.000000	99.195849
3012.000000	99.196360
3011.000000	99.197600
3010.000000	99.198927
3009.000000	99.199766
3008.000000	99.200330
3007.000000	99.201184
3006.000000	99.202369
3005.000000	99.203368
3004.000000	99.203796
3003.000000	99.203748
3002.000000	99.203584
3001.000000	99.203734
3000.000000	99.204669
2999.000000	99.206683
2998.000000	99.209487
2997.000000	99.212250
2996.000000	99.214314
2995.000000	99.215851
2994.000000	99.217592
2993.000000	99.219829
2992.000000	99.221995
2991.000000	99.223566
2990.000000	99.225167
2989.000000	99.228020
2988.000000	99.232064
2987.000000	99.235412
2986.000000	99.236440
2985.000000	99.235968
2984.000000	99.236502
2983.000000	99.239254
2982.000000	99.242798
2981.000000	99.245039
2980.000000	99.245825
2979.000000	99.246823
2978.000000	99.249050
2977.000000	99.251206
2976.000000	99.250888
2975.000000	99.247254
2974.000000	99.242120
2973.000000	99.238160
2972.000000	99.236160
2971.000000	99.234707
2970.000000	99.232518
2969.000000	99.230223
2968.000000	99.229289
2967.000000	99.229703
2966.000000	99.229649
2965.000000	99.227542
2964.000000	99.223704
2963.000000	99.219904
2962.000000	99.217769
2961.000000	99.217858
2960.000000	99.219798
2959.000000	99.222755
2958.000000	99.225766
2957.000000	99.227838
2956.000000	99.228061
2955.000000	99.226133
2954.000000	99.223146
2953.000000	99.221353
2952.000000	99.222327
2951.000000	99.225270
2950.000000	99.227601
2949.000000	99.227472
2948.000000	99.225287
2947.000000	99.222883
2946.000000	99.221675
2945.000000	99.221672
2944.000000	99.221801
2943.000000	99.220982
2942.000000	99.219166
2941.000000	99.217275
2940.000000	99.215816
2939.000000	99.213897
2938.000000	99.210459
2937.000000	99.206351
2936.000000	99.204044
2935.000000	99.204849
2934.000000	99.207303
2933.000000	99.208735
2932.000000	99.207930
2931.000000	99.205835
2930.000000	99.204307
2929.000000	99.204800
2928.000000	99.207678
2927.000000	99.212019
2926.000000	99.216234
2925.000000	99.219394
2924.000000	99.221653
2923.000000	99.223330
2922.000000	99.224403
2921.000000	99.225327
2920.000000	99.227422
2919.000000	99.231557
2918.000000	99.236903
2917.000000	99.241775
2916.000000	99.245333
2915.000000	99.247703
2914.000000	99.249016
2913.000000	99.249362
2912.000000	99.249564
2911.000000	99.250874
2910.000000	99.253515
2909.000000	99.256217
2908.000000	99.257615
2907.000000	99.257612
2906.000000	99.257176
2905.000000	99.257356
2904.000000	99.258815
2903.000000	99.261827
2902.000000	99.265992
2901.000000	99.270015
2900.000000	99.272406
2899.000000	99.272777
2898.000000	99.272198
2897.000000	99.272282
2896.000000	99.273810
2895.000000	99.276375
2894.000000	99.279062
2893.000000	99.281209
2892.000000	99.282611
2891.000000	99.283402
2890.000000	99.284032
2889.000000	99.285152
2888.000000	99.287173
2887.000000	99.289857
2886.000000	99.292512
2885.000000	99.294646
2884.000000	99.296318
2883.000000	99.297813
2882.000000	99.299168
2881.000000	99.300183
2880.000000	99.300718
2879.000000	99.300837
2878.000000	99.300894
2877.000000	99.301673
2876.000000	99.304040
2875.000000	99.307941
2874.000000	99.311793
2873.000000	99.313622
2872.000000	99.312842
2871.000000	99.310628
2870.000000	99.308659
2869.000000	99.307725
2868.000000	99.307712
2867.000000	99.308181
2866.000000	99.308502
2865.000000	99.307982
2864.000000	99.306570
2863.000000	99.305283
2862.000000	99.305298
2861.000000	99.306610
2860.000000	99.308022
2859.000000	99.308533
2858.000000	99.308362
2857.000000	99.308482
2856.000000	99.309511
2855.000000	99.311161
2854.000000	99.312468
2853.000000	99.312518
2852.000000	99.311356
2851.000000	99.310335
2850.000000	99.311094
2849.000000	99.314009
2848.000000	99.317827
2847.000000	99.320845
2846.000000	99.322275
2845.000000	99.322352
2844.000000	99.321802
2843.000000	99.321629
2842.000000	99.322893
2841.000000	99.325913
2840.000000	99.329692
2839.000000	99.332643
2838.000000	99.334098
2837.000000	99.334777
2836.000000	99.335750
2835.000000	99.337334
2834.000000	99.339148
2833.000000	99.340810
2832.000000	99.342271
2831.000000	99.343680
2830.000000	99.345214
2829.000000	99.346895
2828.000000	99.348400
2827.000000	99.349197
2826.000000	99.349096
2825.000000	99.348567
2824.000000	99.348373
2823.000000	99.348956
2822.000000	99.350353
2821.000000	99.352336
2820.000000	99.354463
2819.000000	99.356186
2818.000000	99.357203
2817.000000	99.357674
2816.000000	99.358000
2815.000000	99.358457
2814.000000	99.359060
2813.000000	99.359752
2812.000000	99.360529
2811.000000	99.361391
2810.000000	99.362310
2809.000000	99.363262
2808.000000	99.364233
2807.000000	99.365188
2806.000000	99.366117
2805.000000	99.367109
2804.000000	99.368315
2803.000000	99.369796
2802.000000	99.371423
2801.000000	99.372929
2800.000000	99.374049
2799.000000	99.374648
2798.000000	99.374825
2797.000000	99.374937
2796.000000	99.375408
2795.000000	99.376412
2794.000000	99.377738
2793.000000	99.378934
2792.000000	99.379681
2791.000000	99.380014
2790.000000	99.380242
2789.000000	99.380654
2788.000000	99.381324
2787.000000	99.382239
2786.000000	99.383480
2785.000000	99.385102
2784.000000	99.386818
2783.000000	99.388054
2782.000000	99.388540
2781.000000	99.388711
2780.000000	99.389361
2779.000000	99.390830
2778.000000	99.392817
2777.000000	99.394892
2776.000000	99.396871
2775.000000	99.398523
2774.000000	99.399356
2773.000000	99.399152
2772.000000	99.398455
2771.000000	99.398147
2770.000000	99.398525
2769.000000	99.399214
2768.000000	99.399807
2767.000000	99.400289
2766.000000	99.400828
2765.000000	99.401458
2764.000000	99.402137
2763.000000	99.402926
2762.000000	99.403902
2761.000000	99.404936
2760.000000	99.405724
2759.000000	99.406076
2758.000000	99.406122
2757.000000	99.406233
2756.000000	99.406736
2755.000000	99.407671
2754.000000	99.408783
2753.000000	99.409759
2752.000000	99.410507
2751.000000	99.411198
2750.000000	99.412018
2749.000000	99.412920
2748.000000	99.413686
2747.000000	99.414215
2746.000000	99.414676
2745.000000	99.415351
2744.000000	99.416340
2743.000000	99.417438
2742.000000	99.418265
2741.000000	99.418577
2740.000000	99.418431
2739.000000	99.418189
2738.000000	99.418249
2737.000000	99.418765
2736.000000	99.419590
2735.000000	99.420419
2734.000000	99.421079
2733.000000	99.421610
2732.000000	99.422126
2731.000000	99.422677
2730.000000	99.423242
2729.000000	99.423820
2728.000000	99.424468
2727.000000	99.425226
2726.000000	99.426017
2725.000000	99.426670
2724.000000	99.427055
2723.000000	99.427162
2722.000000	99.427079
2721.000000	99.426930
2720.000000	99.426832
2719.000000	99.426889
2718.000000	99.427174
2717.000000	99.427670
2716.000000	99.428241
2715.000000	99.428721
2714.000000	99.429071
2713.000000	99.429397
2712.000000	99.429762
2711.000000	99.430052
2710.000000	99.430139
2709.000000	99.430126
2708.000000	99.430285
2707.000000	99.430746
2706.000000	99.431357
2705.000000	99.431824
2704.000000	99.431977
2703.000000	99.431841
2702.000000	99.431544
2701.000000	99.431209
2700.000000	99.430952
2699.000000	99.430910
2698.000000	99.431201
2697.000000	99.431836
2696.000000	99.432662
2695.000000	99.433411
2694.000000	99.433881
2693.000000	99.434084
2692.000000	99.434204
2691.000000	99.434390
2690.000000	99.434630
2689.000000	99.434861
2688.000000	99.435069
2687.000000	99.435211
2686.000000	99.435181
2685.000000	99.434990
2684.000000	99.434888
2683.000000	99.435140
2682.000000	99.435737
2681.000000	99.436493
2680.000000	99.437338
2679.000000	99.438330
2678.000000	99.439340
2677.000000	99.439949
2676.000000	99.439787
2675.000000	99.438840
2674.000000	99.437472
2673.000000	99.436297
2672.000000	99.435956
2671.000000	99.436767
2670.000000	99.438386
2669.000000	99.439846
2668.000000	99.440265
2667.000000	99.439491
2666.000000	99.438142
2665.000000	99.437147
2664.000000	99.437138
2663.000000	99.438161
2662.000000	99.439743
2661.000000	99.441241
2660.000000	99.442264
2659.000000	99.442887
2658.000000	99.443592
2657.000000	99.444968
2656.000000	99.447195
2655.000000	99.449640
2654.000000	99.451248
2653.000000	99.451602
2652.000000	99.451353
2651.000000	99.451317
2650.000000	99.451424
2649.000000	99.451152
2648.000000	99.450644
2647.000000	99.450508
2646.000000	99.450536
2645.000000	99.449625
2644.000000	99.447333
2643.000000	99.444767
2642.000000	99.443390
2641.000000	99.443422
2640.000000	99.444035
2639.000000	99.444593
2638.000000	99.445043
2637.000000	99.445371
2636.000000	99.445593
2635.000000	99.446232
2634.000000	99.447891
2633.000000	99.450130
2632.000000	99.451539
2631.000000	99.451383
2630.000000	99.450486
2629.000000	99.450077
2628.000000	99.450194
2627.000000	99.449939
2626.000000	99.449085
2625.000000	99.448612
2624.000000	99.449518
2623.000000	99.451684
2622.000000	99.454080
2621.000000	99.455662
2620.000000	99.455936
2619.000000	99.454970
2618.000000	99.453219
2617.000000	99.451254
2616.000000	99.449418
2615.000000	99.447859
2614.000000	99.446894
2613.000000	99.446939
2612.000000	99.447862
2611.000000	99.448806
2610.000000	99.449152
2609.000000	99.449452
2608.000000	99.450779
2607.000000	99.453262
2606.000000	99.455856
2605.000000	99.457684
2604.000000	99.458995
2603.000000	99.460343
2602.000000	99.461373
2601.000000	99.461184
2600.000000	99.459673
2599.000000	99.457803
2598.000000	99.456492
2597.000000	99.455683
2596.000000	99.454814
2595.000000	99.453787
2594.000000	99.453148
2593.000000	99.453466
2592.000000	99.454729
2591.000000	99.456329
2590.000000	99.457594
2589.000000	99.458339
2588.000000	99.458850
2587.000000	99.459434
2586.000000	99.460116
2585.000000	99.460801
2584.000000	99.461468
2583.000000	99.461969
2582.000000	99.461862
2581.000000	99.460816
2580.000000	99.459160
2579.000000	99.457775
2578.000000	99.457327
2577.000000	99.457779
2576.000000	99.458612
2575.000000	99.459316
2574.000000	99.459691
2573.000000	99.459813
2572.000000	99.459855
2571.000000	99.459893
2570.000000	99.459830
2569.000000	99.459549
2568.000000	99.459116
2567.000000	99.458775
2566.000000	99.458704
2565.000000	99.458849
2564.000000	99.459037
2563.000000	99.459163
2562.000000	99.459231
2561.000000	99.459249
2560.000000	99.459172
2559.000000	99.458960
2558.000000	99.458653
2557.000000	99.458394
2556.000000	99.458345
2555.000000	99.458556
2554.000000	99.458941
2553.000000	99.459369
2552.000000	99.459763
2551.000000	99.460066
2550.000000	99.460167
2549.000000	99.459989
2548.000000	99.459607
2547.000000	99.459274
2546.000000	99.459201
2545.000000	99.459369
2544.000000	99.459606
2543.000000	99.459793
2542.000000	99.459942
2541.000000	99.460092
2540.000000	99.460273
2539.000000	99.460551
2538.000000	99.460988
2537.000000	99.461537
2536.000000	99.462051
2535.000000	99.462445
2534.000000	99.462772
2533.000000	99.463108
2532.000000	99.463455
2531.000000	99.463774
2530.000000	99.464080
2529.000000	99.464441
2528.000000	99.464897
2527.000000	99.465415
2526.000000	99.465932
2525.000000	99.466417
2524.000000	99.466880
2523.000000	99.467354
2522.000000	99.467858
2521.000000	99.468386
2520.000000	99.468920
2519.000000	99.469443
2518.000000	99.469952
2517.000000	99.470459
2516.000000	99.470984
2515.000000	99.471551
2514.000000	99.472158
2513.000000	99.472784
2512.000000	99.473403
2511.000000	99.474008
2510.000000	99.474606
2509.000000	99.475190
2508.000000	99.475736
2507.000000	99.476221
2506.000000	99.476659
2505.000000	99.477113
2504.000000	99.477651
2503.000000	99.478302
2502.000000	99.479034
2501.000000	99.479765
2500.000000	99.480407
2499.000000	99.480907
2498.000000	99.481265
2497.000000	99.481533
2496.000000	99.481789
2495.000000	99.482108
2494.000000	99.482535
2493.000000	99.483078
2492.000000	99.483705
2491.000000	99.484347
2490.000000	99.484905
2489.000000	99.485288
2488.000000	99.485515
2487.000000	99.485755
2486.000000	99.486189
2485.000000	99.486784
2484.000000	99.487284
2483.000000	99.487482
2482.000000	99.487436
2481.000000	99.487367
2480.000000	99.487385
2479.000000	99.487433
2478.000000	99.487479
2477.000000	99.487624
2476.000000	99.487985
2475.000000	99.488529
2474.000000	99.489051
2473.000000	99.489323
2472.000000	99.489266
2471.000000	99.489004
2470.000000	99.488763
2469.000000	99.488656
2468.000000	99.488588
2467.000000	99.488411
2466.000000	99.488155
2465.000000	99.488053
2464.000000	99.488283
2463.000000	99.488791
2462.000000	99.489380
2461.000000	99.489871
2460.000000	99.490156
2459.000000	99.490190
2458.000000	99.489997
2457.000000	99.489711
2456.000000	99.489545
2455.000000	99.489675
2454.000000	99.490143
2453.000000	99.490825
2452.000000	99.491466
2451.000000	99.491863
2450.000000	99.492020
2449.000000	99.492101
2448.000000	99.492248
2447.000000	99.492453
2446.000000	99.492638
2445.000000	99.492782
2444.000000	99.492916
2443.000000	99.493069
2442.000000	99.493264
2441.000000	99.493547
2440.000000	99.493945
2439.000000	99.494401
2438.000000	99.494807
2437.000000	99.495110
2436.000000	99.495364
2435.000000	99.495640
2434.000000	99.495934
2433.000000	99.496201
2432.000000	99.496450
2431.000000	99.496731
2430.000000	99.497061
2429.000000	99.497396
2428.000000	99.497691
2427.000000	99.497954
2426.000000	99.498231
2425.000000	99.498545
2424.000000	99.498880
2423.000000	99.499193
2422.000000	99.499462
2421.000000	99.499696
2420.000000	99.499930
2419.000000	99.500195
2418.000000	99.500493
2417.000000	99.500796
2416.000000	99.501088
2415.000000	99.501378
2414.000000	99.501682
2413.000000	99.501988
2412.000000	99.502270
2411.000000	99.502506
2410.000000	99.502700
2409.000000	99.502871
2408.000000	99.503036
2407.000000	99.503195
2406.000000	99.503344
2405.000000	99.503485
2404.000000	99.503625
2403.000000	99.503771
2402.000000	99.503922
2401.000000	99.504072
2400.000000	99.504215
2399.000000	99.504345
2398.000000	99.504465
2397.000000	99.504579
2396.000000	99.504694
2395.000000	99.504811
2394.000000	99.504925
2393.000000	99.505027
2392.000000	99.505113
2391.000000	99.505186
2390.000000	99.505255
2389.000000	99.505325
2388.000000	99.505398
2387.000000	99.505470
2386.000000	99.505535
2385.000000	99.505588
2384.000000	99.505629
2383.000000	99.505662
2382.000000	99.505698
2381.000000	99.505742
2380.000000	99.505796
2379.000000	99.505858
2378.000000	99.505923
2377.000000	99.505981
2376.000000	99.506027
2375.000000	99.506057
2374.000000	99.506067
2373.000000	99.506055
2372.000000	99.506018
2371.000000	99.505958
2370.000000	99.505886
2369.000000	99.505815
2368.000000	99.505755
2367.000000	99.505708
2366.000000	99.505668
2365.000000	99.505633
2364.000000	99.505607
2363.000000	99.505593
2362.000000	99.505587
2361.000000	99.505573
2360.000000	99.505532
2359.000000	99.505460
2358.000000	99.505366
2357.000000	99.505264
2356.000000	99.505163
2355.000000	99.505060
2354.000000	99.504946
2353.000000	99.504819
2352.000000	99.504683
2351.000000	99.504547
2350.000000	99.504413
2349.000000	99.504275
2348.000000	99.504123
2347.000000	99.503949
2346.000000	99.503754
2345.000000	99.503546
2344.000000	99.503333
2343.000000	99.503118
2342.000000	99.502903
2341.000000	99.502696
2340.000000	99.502510
2339.000000	99.502331
2338.000000	99.502107
2337.000000	99.501785
2336.000000	99.501350
2335.000000	99.500799
2334.000000	99.500135
2333.000000	99.499427
2332.000000	99.498841
2331.000000	99.498516
2330.000000	99.498425
2329.000000	99.498413
2328.000000	99.498334
2327.000000	99.498153
2326.000000	99.497860
2325.000000	99.497438
2324.000000	99.496907
2323.000000	99.496332
2322.000000	99.495809
2321.000000	99.495368
2320.000000	99.494949
2319.000000	99.494471
2318.000000	99.493922
2317.000000	99.493386
2316.000000	99.492923
2315.000000	99.492553
2314.000000	99.492278
2313.000000	99.492116
2312.000000	99.491967
2311.000000	99.491663
2310.000000	99.491076
2309.000000	99.490286
2308.000000	99.489477
2307.000000	99.488904
2306.000000	99.488825
2305.000000	99.489389
2304.000000	99.490289
2303.000000	99.490800
2302.000000	99.490431
2301.000000	99.489500
2300.000000	99.488853
2299.000000	99.488907
2298.000000	99.489159
2297.000000	99.488826
2296.000000	99.487723
2295.000000	99.486429
2294.000000	99.485694
2293.000000	99.485839
2292.000000	99.486607
2291.000000	99.487365
2290.000000	99.487556
2289.000000	99.487116
2288.000000	99.486496
2287.000000	99.486170
2286.000000	99.486208
2285.000000	99.486413
2284.000000	99.486732
2283.000000	99.487316
2282.000000	99.488274
2281.000000	99.489559
2280.000000	99.491048
2279.000000	99.492473
2278.000000	99.493335
2277.000000	99.493227
2276.000000	99.492370
2275.000000	99.491512
2274.000000	99.491098
2273.000000	99.490791
2272.000000	99.490105
2271.000000	99.489262
2270.000000	99.488958
2269.000000	99.489200
2268.000000	99.488890
2267.000000	99.486931
2266.000000	99.483509
2265.000000	99.480001
2264.000000	99.477668
2263.000000	99.476704
2262.000000	99.476583
2261.000000	99.476878
2260.000000	99.477505
2259.000000	99.478272
2258.000000	99.478691
2257.000000	99.478364
2256.000000	99.477399
2255.000000	99.476379
2254.000000	99.475880
2253.000000	99.475957
2252.000000	99.476090
2251.000000	99.475744
2250.000000	99.474939
2249.000000	99.474114
2248.000000	99.473431
2247.000000	99.472574
2246.000000	99.471347
2245.000000	99.470222
2244.000000	99.469916
2243.000000	99.470576
2242.000000	99.471673
2241.000000	99.472568
2240.000000	99.472951
2239.000000	99.472736
2238.000000	99.471924
2237.000000	99.470758
2236.000000	99.469749
2235.000000	99.469320
2234.000000	99.469435
2233.000000	99.469660
2232.000000	99.469558
2231.000000	99.469041
2230.000000	99.468408
2229.000000	99.468091
2228.000000	99.468295
2227.000000	99.468799
2226.000000	99.469106
2225.000000	99.468822
2224.000000	99.467905
2223.000000	99.466669
2222.000000	99.465672
2221.000000	99.465501
2220.000000	99.466426
2219.000000	99.468190
2218.000000	99.470230
2217.000000	99.472142
2216.000000	99.473744
2215.000000	99.474735
2214.000000	99.474721
2213.000000	99.473776
2212.000000	99.472672
2211.000000	99.472120
2210.000000	99.471985
2209.000000	99.471654
2208.000000	99.470996
2207.000000	99.470528
2206.000000	99.470625
2205.000000	99.471085
2204.000000	99.471609
2203.000000	99.472280
2202.000000	99.473282
2201.000000	99.474432
2200.000000	99.475308
2199.000000	99.475756
2198.000000	99.476001
2197.000000	99.476304
2196.000000	99.476662
2195.000000	99.476876
2194.000000	99.476816
2193.000000	99.476629
2192.000000	99.476688
2191.000000	99.477250
2190.000000	99.478153
2189.000000	99.478949
2188.000000	99.479387
2187.000000	99.479612
2186.000000	99.479843
2185.000000	99.480015
2184.000000	99.479914
2183.000000	99.479559
2182.000000	99.479272
2181.000000	99.479344
2180.000000	99.479729
2179.000000	99.480098
2178.000000	99.480135
2177.000000	99.479791
2176.000000	99.479305
2175.000000	99.478943
2174.000000	99.478739
2173.000000	99.478544
2172.000000	99.478293
2171.000000	99.478121
2170.000000	99.478184
2169.000000	99.478431
2168.000000	99.478609
2167.000000	99.478502
2166.000000	99.478132
2165.000000	99.477728
2164.000000	99.477519
2163.000000	99.477518
2162.000000	99.477513
2161.000000	99.477280
2160.000000	99.476842
2159.000000	99.476479
2158.000000	99.476419
2157.000000	99.476560
2156.000000	99.476571
2155.000000	99.476295
2154.000000	99.475920
2153.000000	99.475727
2152.000000	99.475739
2151.000000	99.475713
2150.000000	99.475466
2149.000000	99.475137
2148.000000	99.475070
2147.000000	99.475439
2146.000000	99.476053
2145.000000	99.476464
2144.000000	99.476371
2143.000000	99.475836
2142.000000	99.475188
2141.000000	99.474691
2140.000000	99.474356
2139.000000	99.474119
2138.000000	99.474094
2137.000000	99.474473
2136.000000	99.475244
2135.000000	99.476132
2134.000000	99.476836
2133.000000	99.477270
2132.000000	99.477567
2131.000000	99.477932
2130.000000	99.478466
2129.000000	99.479061
2128.000000	99.479472
2127.000000	99.479542
2126.000000	99.479410
2125.000000	99.479447
2124.000000	99.479899
2123.000000	99.480651
2122.000000	99.481346
2121.000000	99.481783
2120.000000	99.482123
2119.000000	99.482633
2118.000000	99.483270
2117.000000	99.483730
2116.000000	99.483906
2115.000000	99.484109
2114.000000	99.484696
2113.000000	99.485580
2112.000000	99.486315
2111.000000	99.486692
2110.000000	99.487009
2109.000000	99.487656
2108.000000	99.488544
2107.000000	99.489153
2106.000000	99.489109
2105.000000	99.488555
2104.000000	99.488026
2103.000000	99.488007
2102.000000	99.488630
2101.000000	99.489654
2100.000000	99.490640
2099.000000	99.491281
2098.000000	99.491583
2097.000000	99.491712
2096.000000	99.491715
2095.000000	99.491517
2094.000000	99.491230
2093.000000	99.491276
2092.000000	99.492029
2091.000000	99.493430
2090.000000	99.495032
2089.000000	99.496437
2088.000000	99.497581
2087.000000	99.498548
2086.000000	99.499332
2085.000000	99.500018
2084.000000	99.501078
2083.000000	99.503045
2082.000000	99.505660
2081.000000	99.507602
2080.000000	99.507545
2079.000000	99.505414
2078.000000	99.502541
2077.000000	99.500443
2076.000000	99.499539
2075.000000	99.499327
2074.000000	99.499419
2073.000000	99.499950
2072.000000	99.501020
2071.000000	99.502236
2070.000000	99.503051
2069.000000	99.503334
2068.000000	99.503366
2067.000000	99.503463
2066.000000	99.503817
2065.000000	99.504513
2064.000000	99.505381
2063.000000	99.505856
2062.000000	99.505274
2061.000000	99.503480
2060.000000	99.501154
2059.000000	99.499504
2058.000000	99.499407
2057.000000	99.500658
2056.000000	99.501984
2055.000000	99.502083
2054.000000	99.500884
2053.000000	99.499732
2052.000000	99.500178
2051.000000	99.502595
2050.000000	99.506008
2049.000000	99.508942
2048.000000	99.510150
2047.000000	99.508739
2046.000000	99.504373
2045.000000	99.497778
2044.000000	99.490733
2043.000000	99.484997
2042.000000	99.481160
2041.000000	99.478676
2040.000000	99.476842
2039.000000	99.475550
2038.000000	99.475060
2037.000000	99.475201
2036.000000	99.475082
2035.000000	99.473786
2034.000000	99.471373
2033.000000	99.469025
2032.000000	99.467984
2031.000000	99.468327
2030.000000	99.468937
2029.000000	99.468745
2028.000000	99.467804
2027.000000	99.466895
2026.000000	99.466276
2025.000000	99.465281
2024.000000	99.463281
2023.000000	99.460595
2022.000000	99.458182
2021.000000	99.456694
2020.000000	99.456177
2019.000000	99.456397
2018.000000	99.456823
2017.000000	99.456402
2016.000000	99.454196
2015.000000	99.450580
2014.000000	99.447194
2013.000000	99.445184
2012.000000	99.443985
2011.000000	99.442255
2010.000000	99.439577
2009.000000	99.436579
2008.000000	99.433700
2007.000000	99.430828
2006.000000	99.428174
2005.000000	99.426463
2004.000000	99.425947
2003.000000	99.425925
2002.000000	99.425639
2001.000000	99.425193
2000.000000	99.425143
1999.000000	99.425587
1998.000000	99.426158
1997.000000	99.426716
1996.000000	99.427580
1995.000000	99.428999
1994.000000	99.430570
1993.000000	99.431331
1992.000000	99.430559
1991.000000	99.428536
1990.000000	99.426389
1989.000000	99.425128
1988.000000	99.424942
1987.000000	99.425389
1986.000000	99.425930
1985.000000	99.426152
1984.000000	99.425763
1983.000000	99.424813
1982.000000	99.423870
1981.000000	99.423584
1980.000000	99.424014
1979.000000	99.424646
1978.000000	99.425098
1977.000000	99.425553
1976.000000	99.426398
1975.000000	99.427627
1974.000000	99.428749
1973.000000	99.429198
1972.000000	99.428816
1971.000000	99.428029
1970.000000	99.427637
1969.000000	99.428124
1968.000000	99.429116
1967.000000	99.429628
1966.000000	99.429114
1965.000000	99.428022
1964.000000	99.427249
1963.000000	99.427171
1962.000000	99.427504
1961.000000	99.427828
1960.000000	99.428030
1959.000000	99.428265
1958.000000	99.428744
1957.000000	99.429562
1956.000000	99.430493
1955.000000	99.430906
1954.000000	99.430275
1953.000000	99.428917
1952.000000	99.427877
1951.000000	99.427829
1950.000000	99.428407
1949.000000	99.428816
1948.000000	99.428826
1947.000000	99.428860
1946.000000	99.429245
1945.000000	99.429694
1944.000000	99.429635
1943.000000	99.429059
1942.000000	99.428900
1941.000000	99.430127
1940.000000	99.432497
1939.000000	99.434660
1938.000000	99.435397
1937.000000	99.434483
1936.000000	99.432504
1935.000000	99.430253
1934.000000	99.428526
1933.000000	99.427899
1932.000000	99.428010
1931.000000	99.427573
1930.000000	99.425792
1929.000000	99.423267
1928.000000	99.420916
1927.000000	99.418632
1926.000000	99.415877
1925.000000	99.413007
1924.000000	99.411030
1923.000000	99.410346
1922.000000	99.410664
1921.000000	99.411880
1920.000000	99.413899
1919.000000	99.415452
1918.000000	99.414377
1917.000000	99.409976
1916.000000	99.404001
1915.000000	99.398690
1914.000000	99.394811
1913.000000	99.391643
1912.000000	99.387871
1911.000000	99.382695
1910.000000	99.376829
1909.000000	99.372287
1908.000000	99.370320
1907.000000	99.369972
1906.000000	99.369531
1905.000000	99.368819
1904.000000	99.368835
1903.000000	99.369497
1902.000000	99.369357
1901.000000	99.367758
1900.000000	99.365711
1899.000000	99.363811
1898.000000	99.360712
1897.000000	99.354942
1896.000000	99.347373
1895.000000	99.340783
1894.000000	99.337183
1893.000000	99.336461
1892.000000	99.337243
1891.000000	99.337829
1890.000000	99.336605
1889.000000	99.333177
1888.000000	99.328993
1887.000000	99.325867
1886.000000	99.324275
1885.000000	99.323397
1884.000000	99.322229
1883.000000	99.320281
1882.000000	99.317370
1881.000000	99.313503
1880.000000	99.309325
1879.000000	99.306156
1878.000000	99.305066
1877.000000	99.305869
1876.000000	99.307124
1875.000000	99.307282
1874.000000	99.306087
1873.000000	99.304825
1872.000000	99.305039
1871.000000	99.307056
1870.000000	99.309902
1869.000000	99.312589
1868.000000	99.315120
1867.000000	99.317694
1866.000000	99.319883
1865.000000	99.321234
1864.000000	99.322162
1863.000000	99.323872
1862.000000	99.327368
1861.000000	99.332503
1860.000000	99.337935
1859.000000	99.342288
1858.000000	99.345634
1857.000000	99.349624
1856.000000	99.355747
1855.000000	99.363331
1854.000000	99.369594
1853.000000	99.372261
1852.000000	99.372044
1851.000000	99.371931
1850.000000	99.374134
1849.000000	99.378336
1848.000000	99.382913
1847.000000	99.386950
1846.000000	99.390477
1845.000000	99.393347
1844.000000	99.395079
1843.000000	99.395814
1842.000000	99.396320
1841.000000	99.397288
1840.000000	99.398932
1839.000000	99.400801
1838.000000	99.402281
1837.000000	99.403405
1836.000000	99.404722
1835.000000	99.406312
1834.000000	99.407512
1833.000000	99.407980
1832.000000	99.408435
1831.000000	99.409665
1830.000000	99.411192
1829.000000	99.411915
1828.000000	99.411674
1827.000000	99.411193
1826.000000	99.410835
1825.000000	99.410064
1824.000000	99.408247
1823.000000	99.405658
1822.000000	99.403597
1821.000000	99.403488
1820.000000	99.405567
1819.000000	99.408493
1818.000000	99.410738
1817.000000	99.412136
1816.000000	99.413295
1815.000000	99.413895
1814.000000	99.412788
1813.000000	99.409920
1812.000000	99.407174
1811.000000	99.406496
1810.000000	99.407714
1809.000000	99.408991
1808.000000	99.408883
1807.000000	99.407381
1806.000000	99.405468
1805.000000	99.404317
1804.000000	99.404658
1803.000000	99.406366
1802.000000	99.408486
1801.000000	99.409957
1800.000000	99.410395
1799.000000	99.410197
1798.000000	99.410135
1797.000000	99.410919
1796.000000	99.412927
1795.000000	99.416013
1794.000000	99.419395
1793.000000	99.421855
1792.000000	99.422659
1791.000000	99.422253
1790.000000	99.421600
1789.000000	99.421482
1788.000000	99.422426
1787.000000	99.424452
1786.000000	99.426777
1785.000000	99.428216
1784.000000	99.428157
1783.000000	99.426984
1782.000000	99.425545
1781.000000	99.424757
1780.000000	99.425543
1779.000000	99.428269
1778.000000	99.432219
1777.000000	99.436115
1776.000000	99.439215
1775.000000	99.441774
1774.000000	99.444382
1773.000000	99.447383
1772.000000	99.451259
1771.000000	99.456167
1770.000000	99.460960
1769.000000	99.464025
1768.000000	99.464714
1767.000000	99.463923
1766.000000	99.463238
1765.000000	99.463644
1764.000000	99.465445
1763.000000	99.468572
1762.000000	99.472622
1761.000000	99.477206
1760.000000	99.482301
1759.000000	99.487928
1758.000000	99.493064
1757.000000	99.495528
1756.000000	99.494333
1755.000000	99.491255
1754.000000	99.488899
1753.000000	99.488411
1752.000000	99.489415
1751.000000	99.490977
1750.000000	99.492198
1749.000000	99.492545
1748.000000	99.492270
1747.000000	99.491992
1746.000000	99.491812
1745.000000	99.491450
1744.000000	99.491124
1743.000000	99.491529
1742.000000	99.492751
1741.000000	99.493846
1740.000000	99.493765
1739.000000	99.492518
1738.000000	99.490930
1737.000000	99.489593
1736.000000	99.488886
1735.000000	99.489479
1734.000000	99.491844
1733.000000	99.494316
1732.000000	99.494339
1731.000000	99.491835
1730.000000	99.488395
1729.000000	99.485313
1728.000000	99.482869
1727.000000	99.480806
1726.000000	99.479035
1725.000000	99.477525
1724.000000	99.475933
1723.000000	99.473947
1722.000000	99.471943
1721.000000	99.470728
1720.000000	99.470431
1719.000000	99.469688
1718.000000	99.466572
1717.000000	99.461737
1716.000000	99.458134
1715.000000	99.456932
1714.000000	99.457258
1713.000000	99.457678
1712.000000	99.457146
1711.000000	99.455493
1710.000000	99.453320
1709.000000	99.451545
1708.000000	99.450491
1707.000000	99.449209
1706.000000	99.446171
1705.000000	99.441285
1704.000000	99.436282
1703.000000	99.432338
1702.000000	99.429258
1701.000000	99.426530
1700.000000	99.424528
1699.000000	99.423463
1698.000000	99.422517
1697.000000	99.421002
1696.000000	99.418664
1695.000000	99.415727
1694.000000	99.412396
1693.000000	99.408638
1692.000000	99.404558
1691.000000	99.400320
1690.000000	99.396115
1689.000000	99.392233
1688.000000	99.388822
1687.000000	99.385486
1686.000000	99.381476
1685.000000	99.376567
1684.000000	99.372908
1683.000000	99.372494
1682.000000	99.373344
1681.000000	99.373206
1680.000000	99.372153
1679.000000	99.371145
1678.000000	99.370561
1677.000000	99.369584
1676.000000	99.367046
1675.000000	99.363120
1674.000000	99.359362
1673.000000	99.356520
1672.000000	99.354365
1671.000000	99.352951
1670.000000	99.352776
1669.000000	99.353711
1668.000000	99.354310
1667.000000	99.353187
1666.000000	99.350078
1665.000000	99.345615
1664.000000	99.341115
1663.000000	99.338260
1662.000000	99.337678
1661.000000	99.337841
1660.000000	99.336954
1659.000000	99.335042
1658.000000	99.333278
1657.000000	99.332423
1656.000000	99.331887
1655.000000	99.330421
1654.000000	99.326641
1653.000000	99.322437
1652.000000	99.320746
1651.000000	99.319020
1650.000000	99.315352
1649.000000	99.310736
1648.000000	99.305766
1647.000000	99.301472
1646.000000	99.299811
1645.000000	99.300886
1644.000000	99.302755
1643.000000	99.304188
1642.000000	99.305027
1641.000000	99.305315
1640.000000	99.304749
1639.000000	99.302570
1638.000000	99.297804
1637.000000	99.290156
1636.000000	99.282002
1635.000000	99.278244
1634.000000	99.278966
1633.000000	99.280109
1632.000000	99.280017
1631.000000	99.279538
1630.000000	99.279841
1629.000000	99.281411
1628.000000	99.283861
1627.000000	99.286310
1626.000000	99.287692
1625.000000	99.287248
1624.000000	99.285337
1623.000000	99.283944
1622.000000	99.284877
1621.000000	99.287347
1620.000000	99.289597
1619.000000	99.290834
1618.000000	99.291092
1617.000000	99.291090
1616.000000	99.292192
1615.000000	99.294608
1614.000000	99.297356
1613.000000	99.300330
1612.000000	99.304654
1611.000000	99.311301
1610.000000	99.319439
1609.000000	99.326416
1608.000000	99.330373
1607.000000	99.332225
1606.000000	99.334262
1605.000000	99.337824
1604.000000	99.343008
1603.000000	99.349373
1602.000000	99.355844
1601.000000	99.360920
1600.000000	99.364084
1599.000000	99.366514
1598.000000	99.369751
1597.000000	99.374195
1596.000000	99.379494
1595.000000	99.385748
1594.000000	99.392998
1593.000000	99.399723
1592.000000	99.403597
1591.000000	99.404219
1590.000000	99.403917
1589.000000	99.405164
1588.000000	99.407846
1587.000000	99.410066
1586.000000	99.410954
1585.000000	99.411626
1584.000000	99.413518
1583.000000	99.416667
1582.000000	99.419916
1581.000000	99.422431
1580.000000	99.424702
1579.000000	99.427818
1578.000000	99.431988
1577.000000	99.435847
1576.000000	99.438251
1575.000000	99.440352
1574.000000	99.443223
1573.000000	99.446098
1572.000000	99.447554
1571.000000	99.446706
1570.000000	99.444839
1569.000000	99.445217
1568.000000	99.448865
1567.000000	99.453615
1566.000000	99.457137
1565.000000	99.458629
1564.000000	99.458644
1563.000000	99.458347
1562.000000	99.458665
1561.000000	99.459761
1560.000000	99.461111
1559.000000	99.461358
1558.000000	99.462396
1557.000000	99.464584
1556.000000	99.466742
1555.000000	99.468663
1554.000000	99.469784
1553.000000	99.470064
1552.000000	99.470080
1551.000000	99.470063
1550.000000	99.469827
1549.000000	99.469530
1548.000000	99.469539
1547.000000	99.469643
1546.000000	99.469284
1545.000000	99.468479
1544.000000	99.468174
1543.000000	99.468873
1542.000000	99.469737
1541.000000	99.469526
1540.000000	99.468288
1539.000000	99.467952
1538.000000	99.468573
1537.000000	99.469025
1536.000000	99.469264
1535.000000	99.469077
1534.000000	99.467802
1533.000000	99.466064
1532.000000	99.465189
1531.000000	99.464844
1530.000000	99.464014
1529.000000	99.462649
1528.000000	99.461637
1527.000000	99.461844
1526.000000	99.463274
1525.000000	99.465365
1524.000000	99.467698
1523.000000	99.469918
1522.000000	99.471078
1521.000000	99.470764
1520.000000	99.469882
1519.000000	99.469296
1518.000000	99.469274
1517.000000	99.469747
1516.000000	99.470508
1515.000000	99.471232
1514.000000	99.471710
1513.000000	99.472224
1512.000000	99.473161
1511.000000	99.474357
1510.000000	99.475283
1509.000000	99.475706
1508.000000	99.475942
1507.000000	99.476206
1506.000000	99.476697
1505.000000	99.477036
1504.000000	99.477246
1503.000000	99.478009
1502.000000	99.479577
1501.000000	99.481645
1500.000000	99.484055
1499.000000	99.486629
1498.000000	99.488205
1497.000000	99.487092
1496.000000	99.483328
1495.000000	99.479246
1494.000000	99.476752
1493.000000	99.475882
1492.000000	99.475844
1491.000000	99.476044
1490.000000	99.476669
1489.000000	99.478345
1488.000000	99.480768
1487.000000	99.482808
1486.000000	99.483810
1485.000000	99.483796
1484.000000	99.483165
1483.000000	99.482454
1482.000000	99.481970
1481.000000	99.481573
1480.000000	99.480615
1479.000000	99.478358
1478.000000	99.474798
1477.000000	99.471251
1476.000000	99.469662
1475.000000	99.470625
1474.000000	99.472980
1473.000000	99.475366
1472.000000	99.477596
1471.000000	99.479415
1470.000000	99.479885
1469.000000	99.478801
1468.000000	99.477181
1467.000000	99.476360
1466.000000	99.476751
1465.000000	99.477273
1464.000000	99.476682
1463.000000	99.474994
1462.000000	99.472898
1461.000000	99.470949
1460.000000	99.469456
1459.000000	99.468603
1458.000000	99.467958
1457.000000	99.467308
1456.000000	99.467171
1455.000000	99.466823
1454.000000	99.465659
1453.000000	99.463826
1452.000000	99.460644
1451.000000	99.455187
1450.000000	99.447874
1449.000000	99.440950
1448.000000	99.436778
1447.000000	99.435171
1446.000000	99.433678
1445.000000	99.430982
1444.000000	99.428111
1443.000000	99.426385
1442.000000	99.425657
1441.000000	99.425199
1440.000000	99.425340
1439.000000	99.426542
1438.000000	99.427004
1437.000000	99.423131
1436.000000	99.415068
1435.000000	99.407724
1434.000000	99.404345
1433.000000	99.404862
1432.000000	99.407496
1431.000000	99.409708
1430.000000	99.409732
1429.000000	99.408189
1428.000000	99.407080
1427.000000	99.406908
1426.000000	99.406057
1425.000000	99.402941
1424.000000	99.398637
1423.000000	99.396018
1422.000000	99.396061
1421.000000	99.397756
1420.000000	99.400345
1419.000000	99.403679
1418.000000	99.406730
1417.000000	99.408137
1416.000000	99.408158
1415.000000	99.407811
1414.000000	99.407681
1413.000000	99.408546
1412.000000	99.412038
1411.000000	99.419008
1410.000000	99.427646
1409.000000	99.435130
1408.000000	99.440408
1407.000000	99.443847
1406.000000	99.445365
1405.000000	99.444753
1404.000000	99.443802
1403.000000	99.445272
1402.000000	99.449758
1401.000000	99.455692
1400.000000	99.461238
1399.000000	99.465573
1398.000000	99.468546
1397.000000	99.470013
1396.000000	99.470453
1395.000000	99.471592
1394.000000	99.474901
1393.000000	99.479576
1392.000000	99.483713
1391.000000	99.486184
1390.000000	99.486983
1389.000000	99.487040
1388.000000	99.488119
1387.000000	99.491863
1386.000000	99.497805
1385.000000	99.503510
1384.000000	99.507015
1383.000000	99.508055
1382.000000	99.507688
1381.000000	99.507197
1380.000000	99.506816
1379.000000	99.505780
1378.000000	99.503545
1377.000000	99.500507
1376.000000	99.497524
1375.000000	99.495223
1374.000000	99.493989
1373.000000	99.494055
1372.000000	99.495288
1371.000000	99.497243
1370.000000	99.499478
1369.000000	99.501680
1368.000000	99.503832
1367.000000	99.505896
1366.000000	99.507542
1365.000000	99.508364
1364.000000	99.507856
1363.000000	99.505574
1362.000000	99.502277
1361.000000	99.500316
1360.000000	99.501612
1359.000000	99.505354
1358.000000	99.508194
1357.000000	99.507347
1356.000000	99.503517
1355.000000	99.500122
1354.000000	99.499559
1353.000000	99.501289
1352.000000	99.503477
1351.000000	99.505118
1350.000000	99.506287
1349.000000	99.507227
1348.000000	99.507998
1347.000000	99.508207
1346.000000	99.506962
1345.000000	99.503959
1344.000000	99.500643
1343.000000	99.498983
1342.000000	99.498902
1341.000000	99.498215
1340.000000	99.495772
1339.000000	99.493298
1338.000000	99.492608
1337.000000	99.493098
1336.000000	99.493790
1335.000000	99.495276
1334.000000	99.497833
1333.000000	99.499491
1332.000000	99.498252
1331.000000	99.495490
1330.000000	99.494849
1329.000000	99.497706
1328.000000	99.501829
1327.000000	99.504637
1326.000000	99.505785
1325.000000	99.506224
1324.000000	99.506789
1323.000000	99.508161
1322.000000	99.510616
1321.000000	99.513053
1320.000000	99.513356
1319.000000	99.510366
1318.000000	99.504882
1317.000000	99.498513
1316.000000	99.492491
1315.000000	99.487948
1314.000000	99.486096
1313.000000	99.487335
1312.000000	99.490867
1311.000000	99.495720
1310.000000	99.501427
1309.000000	99.507210
1308.000000	99.511265
1307.000000	99.511920
1306.000000	99.509410
1305.000000	99.505778
1304.000000	99.503049
1303.000000	99.501704
1302.000000	99.500876
1301.000000	99.499542
1300.000000	99.497484
1299.000000	99.495454
1298.000000	99.494717
1297.000000	99.496004
1296.000000	99.498311
1295.000000	99.499065
1294.000000	99.496425
1293.000000	99.491540
1292.000000	99.487447
1291.000000	99.485175
1290.000000	99.482040
1289.000000	99.474851
1288.000000	99.463837
1287.000000	99.452261
1286.000000	99.443062
1285.000000	99.437434
1284.000000	99.435678
1283.000000	99.436880
1282.000000	99.438067
1281.000000	99.436271
1280.000000	99.431748
1279.000000	99.427175
1278.000000	99.423664
1277.000000	99.419876
1276.000000	99.415160
1275.000000	99.410855
1274.000000	99.407863
1273.000000	99.405666
1272.000000	99.404592
1271.000000	99.406138
1270.000000	99.409595
1269.000000	99.411129
1268.000000	99.408055
1267.000000	99.401922
1266.000000	99.396098
1265.000000	99.392534
1264.000000	99.391876
1263.000000	99.393649
1262.000000	99.394680
1261.000000	99.390611
1260.000000	99.381387
1259.000000	99.372376
1258.000000	99.367356
1257.000000	99.363522
1256.000000	99.356444
1255.000000	99.346666
1254.000000	99.337458
1253.000000	99.328426
1252.000000	99.316252
1251.000000	99.300915
1250.000000	99.286426
1249.000000	99.274935
1248.000000	99.263839
1247.000000	99.249354
1246.000000	99.229959
1245.000000	99.206109
1244.000000	99.179744
1243.000000	99.154930
1242.000000	99.135996
1241.000000	99.123374
1240.000000	99.112920
1239.000000	99.100248
1238.000000	99.084480
1237.000000	99.067421
1236.000000	99.050586
1235.000000	99.033877
1234.000000	99.016032
1233.000000	98.995485
1232.000000	98.971219
1231.000000	98.943021
1230.000000	98.910810
1229.000000	98.874154
1228.000000	98.832938
1227.000000	98.788090
1226.000000	98.740952
1225.000000	98.692080
1224.000000	98.640888
1223.000000	98.585602
1222.000000	98.523324
1221.000000	98.451728
1220.000000	98.371762
1219.000000	98.287508
1218.000000	98.202218
1217.000000	98.115413
1216.000000	98.024781
1215.000000	97.929550
1214.000000	97.831132
1213.000000	97.732034
1212.000000	97.634901
1211.000000	97.540558
1210.000000	97.446114
1209.000000	97.347372
1208.000000	97.244102
1207.000000	97.140623
1206.000000	97.040399
1205.000000	96.942693
1204.000000	96.845345
1203.000000	96.747811
1202.000000	96.650761
1201.000000	96.555614
1200.000000	96.464626
1199.000000	96.377968
1198.000000	96.290985
1197.000000	96.198731
1196.000000	96.102829
1195.000000	96.008540
1194.000000	95.915212
1193.000000	95.816480
1192.000000	95.711516
1191.000000	95.608848
1190.000000	95.515119
1189.000000	95.425685
1188.000000	95.330955
1187.000000	95.227907
1186.000000	95.121331
1185.000000	95.016720
1184.000000	94.915281
1183.000000	94.813387
1182.000000	94.704782
1181.000000	94.586183
1180.000000	94.461949
1179.000000	94.339550
1178.000000	94.219602
1177.000000	94.095267
1176.000000	93.962481
1175.000000	93.824741
1174.000000	93.685808
1173.000000	93.544268
1172.000000	93.398816
1171.000000	93.252939
1170.000000	93.110369
1169.000000	92.971113
1168.000000	92.835831
1167.000000	92.709581
1166.000000	92.598465
1165.000000	92.507971
1164.000000	92.447326
1163.000000	92.428797
1162.000000	92.457515
1161.000000	92.524430
1160.000000	92.609801
1159.000000	92.689517
1158.000000	92.739871
1157.000000	92.745142
1156.000000	92.704741
1155.000000	92.630223
1154.000000	92.534261
1153.000000	92.425070
1152.000000	92.309755
1151.000000	92.195193
1150.000000	92.083303
1149.000000	91.971634
1148.000000	91.860467
1147.000000	91.753250
1146.000000	91.649052
1145.000000	91.542002
1144.000000	91.430171
1143.000000	91.318084
1142.000000	91.208821
1141.000000	91.100714
1140.000000	90.993029
1139.000000	90.886784
1138.000000	90.778432
1137.000000	90.661587
1136.000000	90.537456
1135.000000	90.415089
1134.000000	90.298626
1133.000000	90.182734
1132.000000	90.063159
1131.000000	89.942499
1130.000000	89.822371
1129.000000	89.699130
1128.000000	89.571550
1127.000000	89.444597
1126.000000	89.321604
1125.000000	89.199828
1124.000000	89.076531
1123.000000	88.952228
1122.000000	88.826352
1121.000000	88.697819
1120.000000	88.570629
1119.000000	88.449542
1118.000000	88.329986
1117.000000	88.203448
1116.000000	88.073137
1115.000000	87.951664
1114.000000	87.842118
1113.000000	87.734970
1112.000000	87.625177
1111.000000	87.517156
1110.000000	87.410925
1109.000000	87.299684
1108.000000	87.184401
1107.000000	87.074927
1106.000000	86.972654
1105.000000	86.867347
1104.000000	86.755454
1103.000000	86.646323
1102.000000	86.545841
1101.000000	86.449252
1100.000000	86.354741
1099.000000	86.268373
1098.000000	86.190927
1097.000000	86.114384
1096.000000	86.035974
1095.000000	85.960733
1094.000000	85.886787
1093.000000	85.805005
1092.000000	85.717935
1091.000000	85.641633
1090.000000	85.582413
1089.000000	85.528153
1088.000000	85.468900
1087.000000	85.409804
1086.000000	85.357110
1085.000000	85.307476
1084.000000	85.258365
1083.000000	85.213746
1082.000000	85.172786
1081.000000	85.127910
1080.000000	85.080406
1079.000000	85.042412
1078.000000	85.016399
1077.000000	84.987798
1076.000000	84.945337
1075.000000	84.893579
1074.000000	84.837704
1073.000000	84.769746
1072.000000	84.677888
1071.000000	84.557401
1070.000000	84.406365
1069.000000	84.222535
1068.000000	84.010576
1067.000000	83.781861
1066.000000	83.542940
1065.000000	83.295398
1064.000000	83.049094
1063.000000	82.820352
1062.000000	82.613182
1061.000000	82.417602
1060.000000	82.229525
1059.000000	82.055318
1058.000000	81.893778
1057.000000	81.732693
1056.000000	81.568318
1055.000000	81.409564
1054.000000	81.256896
1053.000000	81.095537
1052.000000	80.917036
1051.000000	80.729100
1050.000000	80.536033
1049.000000	80.329774
1048.000000	80.108996
1047.000000	79.885430
1046.000000	79.663452
1045.000000	79.434111
1044.000000	79.195202
1043.000000	78.957241
1042.000000	78.724166
1041.000000	78.488180
1040.000000	78.250230
1039.000000	78.025419
1038.000000	77.820318
1037.000000	77.624314
1036.000000	77.430921
1035.000000	77.248554
1034.000000	77.083357
1033.000000	76.931112
1032.000000	76.792571
1031.000000	76.676227
1030.000000	76.578717
1029.000000	76.483059
1028.000000	76.384157
1027.000000	76.296274
1026.000000	76.227697
1025.000000	76.167837
1024.000000	76.106533
1023.000000	76.046723
1022.000000	75.990749
1021.000000	75.933166
1020.000000	75.873894
1019.000000	75.820010
1018.000000	75.768751
1017.000000	75.707444
1016.000000	75.635681
1015.000000	75.568845
1014.000000	75.514721
1013.000000	75.465548
1012.000000	75.417309
1011.000000	75.376834
1010.000000	75.344680
1009.000000	75.310448
1008.000000	75.270433
1007.000000	75.232130
1006.000000	75.197967
1005.000000	75.163406
1004.000000	75.133647
1003.000000	75.121622
1002.000000	75.125514
1001.000000	75.128173
1000.000000	75.122710
999.000000	75.119587
998.000000	75.125715
997.000000	75.136757
996.000000	75.152719
995.000000	75.180312
994.000000	75.216568
993.000000	75.250409
992.000000	75.283383
991.000000	75.328595
990.000000	75.387127
989.000000	75.446937
988.000000	75.507391
987.000000	75.582608
986.000000	75.677260
985.000000	75.781257
984.000000	75.892099
983.000000	76.020809
982.000000	76.171622
981.000000	76.336879
980.000000	76.515208
979.000000	76.713507
978.000000	76.928131
977.000000	77.146527
976.000000	77.371274
975.000000	77.619832
974.000000	77.895646
973.000000	78.181186
972.000000	78.464746
971.000000	78.752737
970.000000	79.049212
969.000000	79.344316
968.000000	79.630921
967.000000	79.914457
966.000000	80.198876
965.000000	80.479366
964.000000	80.755198
963.000000	81.033440
962.000000	81.313394
961.000000	81.582385
960.000000	81.833385
959.000000	82.073558
958.000000	82.310726
957.000000	82.544254
956.000000	82.773080
955.000000	82.999106
954.000000	83.218442
953.000000	83.421976
952.000000	83.608227
951.000000	83.784126
950.000000	83.951789
949.000000	84.107703
948.000000	84.255936
947.000000	84.406601
946.000000	84.557809
945.000000	84.694475
944.000000	84.809880
943.000000	84.914990
942.000000	85.021977
941.000000	85.131007
940.000000	85.238382
939.000000	85.345187
938.000000	85.452216
937.000000	85.557043
936.000000	85.660805
935.000000	85.768305
934.000000	85.878642
933.000000	85.986005
932.000000	86.091751
931.000000	86.204563
930.000000	86.326316
929.000000	86.448748
928.000000	86.566049
927.000000	86.679722
926.000000	86.789682
925.000000	86.892450
924.000000	86.990355
923.000000	87.091199
922.000000	87.196417
921.000000	87.300012
920.000000	87.400220
919.000000	87.500891
918.000000	87.600548
917.000000	87.692420
916.000000	87.777144
915.000000	87.863451
914.000000	87.954526
913.000000	88.046368
912.000000	88.142564
911.000000	88.257975
910.000000	88.402878
909.000000	88.572965
908.000000	88.757449
907.000000	88.948177
906.000000	89.140836
905.000000	89.338157
904.000000	89.552194
903.000000	89.792196
902.000000	90.049499
901.000000	90.304638
900.000000	90.548920
899.000000	90.787751
898.000000	91.024792
897.000000	91.256901
896.000000	91.484589
895.000000	91.712777
894.000000	91.938497
893.000000	92.150621
892.000000	92.345262
891.000000	92.530674
890.000000	92.714076
889.000000	92.893499
888.000000	93.065312
887.000000	93.230195
886.000000	93.389027
885.000000	93.541874
884.000000	93.693184
883.000000	93.848623
882.000000	94.004676
881.000000	94.151089
880.000000	94.285804
879.000000	94.417681
878.000000	94.552254
877.000000	94.685701
876.000000	94.816858
875.000000	94.953923
874.000000	95.102614
873.000000	95.255551
872.000000	95.399592
871.000000	95.529113
870.000000	95.649332
869.000000	95.771108
868.000000	95.903615
867.000000	96.047124
866.000000	96.192047
865.000000	96.329070
864.000000	96.458774
863.000000	96.586526
862.000000	96.710946
861.000000	96.825333
860.000000	96.929464
859.000000	97.031722
858.000000	97.138617
857.000000	97.248756
856.000000	97.357334
855.000000	97.459572
854.000000	97.549201
853.000000	97.620399
852.000000	97.673172
851.000000	97.713061
850.000000	97.746605
849.000000	97.781180
848.000000	97.825080
847.000000	97.878491
846.000000	97.925784
845.000000	97.947327
844.000000	97.940461
843.000000	97.920454
842.000000	97.899392
841.000000	97.872811
840.000000	97.829548
839.000000	97.765674
838.000000	97.684758
837.000000	97.592476
836.000000	97.496528
835.000000	97.406365
834.000000	97.327725
833.000000	97.261032
832.000000	97.207995
831.000000	97.174802
830.000000	97.165569
829.000000	97.177219
828.000000	97.203278
827.000000	97.237716
826.000000	97.273453
825.000000	97.303140
824.000000	97.323772
823.000000	97.335961
822.000000	97.339290
821.000000	97.334127
820.000000	97.324973
819.000000	97.313304
818.000000	97.288530
817.000000	97.234433
816.000000	97.144088
815.000000	97.020666
814.000000	96.863595
813.000000	96.662571
812.000000	96.406804
811.000000	96.090926
810.000000	95.707883
809.000000	95.244821
808.000000	94.693264
807.000000	94.059606
806.000000	93.362517
805.000000	92.627132
804.000000	91.886730
803.000000	91.181088
802.000000	90.544187
801.000000	89.998577
800.000000	89.564590
799.000000	89.262809
798.000000	89.100180
797.000000	89.063153
796.000000	89.128796
795.000000	89.273062
794.000000	89.467775
793.000000	89.683026
792.000000	89.896288
791.000000	90.091036
790.000000	90.247970
789.000000	90.347678
788.000000	90.380123
787.000000	90.342291
786.000000	90.230736
785.000000	90.048399
784.000000	89.815797
783.000000	89.562384
782.000000	89.308607
781.000000	89.069495
780.000000	88.872168
779.000000	88.751226
778.000000	88.725155
777.000000	88.792697
776.000000	88.950188
775.000000	89.191612
774.000000	89.490865
773.000000	89.806898
772.000000	90.113011
771.000000	90.404509
770.000000	90.675345
769.000000	90.907219
768.000000	91.088517
767.000000	91.227305
766.000000	91.337452
765.000000	91.425205
764.000000	91.496459
763.000000	91.564180
762.000000	91.640195
761.000000	91.729293
760.000000	91.836258
759.000000	91.966445
758.000000	92.113042
757.000000	92.255784
756.000000	92.380259
755.000000	92.490283
754.000000	92.596485
753.000000	92.702335
752.000000	92.806803
751.000000	92.911125
750.000000	93.016359
749.000000	93.121249
748.000000	93.227484
747.000000	93.341161
746.000000	93.466285
745.000000	93.603238
744.000000	93.754189
743.000000	93.920716
742.000000	94.095046
741.000000	94.264567
740.000000	94.427509
739.000000	94.593718
738.000000	94.766688
737.000000	94.934840
736.000000	95.084979
735.000000	95.215244
734.000000	95.330538
733.000000	95.433020
732.000000	95.520968
731.000000	95.590748
730.000000	95.637597
729.000000	95.661293
728.000000	95.672646
727.000000	95.688171
726.000000	95.717969
725.000000	95.764662
724.000000	95.831728
723.000000	95.922275
722.000000	96.029244
721.000000	96.137690
720.000000	96.239714
719.000000	96.338758
718.000000	96.437508
717.000000	96.531416
716.000000	96.616328
715.000000	96.692276
714.000000	96.757148
713.000000	96.806360
712.000000	96.841847
711.000000	96.872229
710.000000	96.900509
709.000000	96.920312
708.000000	96.927330
707.000000	96.925021
706.000000	96.915266
705.000000	96.891431
704.000000	96.843773
703.000000	96.762567
702.000000	96.631162
701.000000	96.425842
700.000000	96.131561
699.000000	95.757036
698.000000	95.337833
697.000000	94.932907
696.000000	94.613549
695.000000	94.436595
694.000000	94.416292
693.000000	94.524069
692.000000	94.714654
691.000000	94.947201
690.000000	95.187854
689.000000	95.409372
688.000000	95.598087
687.000000	95.755242
686.000000	95.886282
685.000000	95.995326
684.000000	96.089145
683.000000	96.174191
682.000000	96.249353
681.000000	96.313653
680.000000	96.380286
679.000000	96.466682
678.000000	96.568606
677.000000	96.662137
676.000000	96.735157
675.000000	96.799790
674.000000	96.868468
673.000000	96.933800
672.000000	96.981614
671.000000	97.011721
670.000000	97.037709
669.000000	97.081226
668.000000	97.166381
667.000000	97.282411
666.000000	97.383606
665.000000	97.451410
664.000000	97.493097
663.000000	97.522505
662.000000	97.550710
661.000000	97.580233
660.000000	97.609859
659.000000	97.640861
658.000000	97.671634
657.000000	97.693050
656.000000	97.695545
655.000000	97.676818
654.000000	97.641134
653.000000	97.594591
652.000000	97.544931
651.000000	97.502498
650.000000	97.475919
649.000000	97.472500
648.000000	97.503913
647.000000	97.578203
646.000000	97.680991
645.000000	97.780250
644.000000	97.858827
643.000000	97.929924
642.000000	98.014639
641.000000	98.113482
640.000000	98.204889
639.000000	98.263091
638.000000	98.276675
637.000000	98.260946
636.000000	98.253688
635.000000	98.289328
634.000000	98.371797
633.000000	98.482023
632.000000	98.607117
631.000000	98.738632
630.000000	98.849795
629.000000	98.908703
628.000000	98.920476
627.000000	98.934062
626.000000	98.995708
625.000000	99.106891
624.000000	99.237473
623.000000	99.357785
622.000000	99.448026
621.000000	99.502177
620.000000	99.536298
619.000000	99.573936
618.000000	99.611006
617.000000	99.615602
616.000000	99.574854
615.000000	99.518928
614.000000	99.485682
613.000000	99.481789
612.000000	99.492735
611.000000	99.503580
610.000000	99.495251
609.000000	99.448752
608.000000	99.370669
607.000000	99.297251
606.000000	99.260659
605.000000	99.265465
604.000000	99.300958
603.000000	99.341676
602.000000	99.335105
601.000000	99.239522
600.000000	99.089052
599.000000	98.978788
598.000000	98.953872
597.000000	98.956294
596.000000	98.917799
595.000000	98.855923
594.000000	98.831283
593.000000	98.846398
592.000000	98.849942
591.000000	98.821972
590.000000	98.795027
589.000000	98.794299
588.000000	98.813716
587.000000	98.848181
586.000000	98.904539
585.000000	98.981179
584.000000	99.065993
583.000000	99.148313
582.000000	99.212605
581.000000	99.240344
580.000000	99.242379
579.000000	99.268899
578.000000	99.352426
577.000000	99.458452
576.000000	99.532790
575.000000	99.580483
574.000000	99.660586
573.000000	99.803144
572.000000	99.963811
571.000000	100.057211
570.000000	100.026205
569.000000	99.890706
568.000000	99.732311
567.000000	99.624053
566.000000	99.563014
565.000000	99.493678
564.000000	99.396340
563.000000	99.303559
562.000000	99.225250
561.000000	99.125359
560.000000	99.003409
559.000000	98.927254
558.000000	98.937315
557.000000	98.981677
556.000000	98.997104
555.000000	98.988519
554.000000	98.994200
553.000000	99.036725
552.000000	99.139006
551.000000	99.309756
550.000000	99.475433
