PE IR       SUBTECH     SPECTRUM    ASCII       PEDS        4.00        
   -1
BH1 8-1 3 25_1.asc
24/05/17
13:43:46.00
24/05/17
13:43:55.00
Administrator
?品 143 用? Administrator 日期 Friday, May 17 2024
550.000000
#HDR
-1
-1
#GR
cm-1
%T
1.0
0.0
4000.000000
-1.000000
3451
8
100.602306
89.468644
#DATA
4000.000000	100.363066
3999.000000	100.359871
3998.000000	100.359486
3997.000000	100.361232
3996.000000	100.363454
3995.000000	100.364949
3994.000000	100.365610
3993.000000	100.365950
3992.000000	100.366200
3991.000000	100.365709
3990.000000	100.363377
3989.000000	100.358736
3988.000000	100.352704
3987.000000	100.347240
3986.000000	100.343845
3985.000000	100.342538
3984.000000	100.342263
3983.000000	100.342296
3982.000000	100.343099
3981.000000	100.345467
3980.000000	100.349040
3979.000000	100.352099
3978.000000	100.353095
3977.000000	100.351935
3976.000000	100.349660
3975.000000	100.347070
3974.000000	100.344003
3973.000000	100.340112
3972.000000	100.336020
3971.000000	100.333210
3970.000000	100.332725
3969.000000	100.334270
3968.000000	100.336558
3967.000000	100.338532
3966.000000	100.340106
3965.000000	100.341653
3964.000000	100.343135
3963.000000	100.344080
3962.000000	100.344332
3961.000000	100.344417
3960.000000	100.344826
3959.000000	100.345161
3958.000000	100.344354
3957.000000	100.341811
3956.000000	100.338224
3955.000000	100.335248
3954.000000	100.334213
3953.000000	100.335259
3952.000000	100.337456
3951.000000	100.339479
3950.000000	100.340376
3949.000000	100.339916
3948.000000	100.338505
3947.000000	100.336870
3946.000000	100.335631
3945.000000	100.334888
3944.000000	100.334104
3943.000000	100.332676
3942.000000	100.330872
3941.000000	100.329985
3940.000000	100.331211
3939.000000	100.334399
3938.000000	100.337900
3937.000000	100.340027
3936.000000	100.340447
3935.000000	100.339796
3934.000000	100.338458
3933.000000	100.336011
3932.000000	100.332161
3931.000000	100.327831
3930.000000	100.324661
3929.000000	100.323507
3928.000000	100.323741
3927.000000	100.323999
3926.000000	100.323560
3925.000000	100.322878
3924.000000	100.322832
3923.000000	100.323792
3922.000000	100.325382
3921.000000	100.326768
3920.000000	100.327107
3919.000000	100.326152
3918.000000	100.324492
3917.000000	100.322912
3916.000000	100.321639
3915.000000	100.320428
3914.000000	100.319269
3913.000000	100.318618
3912.000000	100.318956
3911.000000	100.320327
3910.000000	100.322306
3909.000000	100.324268
3908.000000	100.325763
3907.000000	100.326681
3906.000000	100.327171
3905.000000	100.327450
3904.000000	100.327689
3903.000000	100.328011
3902.000000	100.328476
3901.000000	100.328981
3900.000000	100.329271
3899.000000	100.329240
3898.000000	100.329103
3897.000000	100.329185
3896.000000	100.329588
3895.000000	100.330196
3894.000000	100.330857
3893.000000	100.331458
3892.000000	100.331960
3891.000000	100.332387
3890.000000	100.332824
3889.000000	100.333341
3888.000000	100.333940
3887.000000	100.334531
3886.000000	100.335009
3885.000000	100.335406
3884.000000	100.335907
3883.000000	100.336664
3882.000000	100.337646
3881.000000	100.338588
3880.000000	100.339244
3879.000000	100.339641
3878.000000	100.340059
3877.000000	100.340782
3876.000000	100.341820
3875.000000	100.342897
3874.000000	100.343730
3873.000000	100.344298
3872.000000	100.344842
3871.000000	100.345597
3870.000000	100.346480
3869.000000	100.347175
3868.000000	100.347625
3867.000000	100.348256
3866.000000	100.349488
3865.000000	100.351031
3864.000000	100.352018
3863.000000	100.351917
3862.000000	100.350998
3861.000000	100.350025
3860.000000	100.349731
3859.000000	100.350562
3858.000000	100.352613
3857.000000	100.355432
3856.000000	100.358139
3855.000000	100.359922
3854.000000	100.360817
3853.000000	100.361742
3852.000000	100.362787
3851.000000	100.363052
3850.000000	100.362363
3849.000000	100.360972
3848.000000	100.359191
3847.000000	100.357622
3846.000000	100.356385
3845.000000	100.354944
3844.000000	100.353122
3843.000000	100.351818
3842.000000	100.352183
3841.000000	100.354357
3840.000000	100.357194
3839.000000	100.358850
3838.000000	100.358456
3837.000000	100.356785
3836.000000	100.355324
3835.000000	100.354701
3834.000000	100.354518
3833.000000	100.354182
3832.000000	100.353491
3831.000000	100.352580
3830.000000	100.351580
3829.000000	100.350429
3828.000000	100.348952
3827.000000	100.347156
3826.000000	100.345403
3825.000000	100.344214
3824.000000	100.343864
3823.000000	100.344108
3822.000000	100.344231
3821.000000	100.343736
3820.000000	100.342820
3819.000000	100.341981
3818.000000	100.341490
3817.000000	100.341179
3816.000000	100.340674
3815.000000	100.339837
3814.000000	100.338808
3813.000000	100.337788
3812.000000	100.336862
3811.000000	100.336010
3810.000000	100.335222
3809.000000	100.334515
3808.000000	100.333884
3807.000000	100.333312
3806.000000	100.332773
3805.000000	100.332236
3804.000000	100.331673
3803.000000	100.331063
3802.000000	100.330415
3801.000000	100.329791
3800.000000	100.329252
3799.000000	100.328819
3798.000000	100.328421
3797.000000	100.327906
3796.000000	100.327184
3795.000000	100.326322
3794.000000	100.325520
3793.000000	100.324900
3792.000000	100.324439
3791.000000	100.324016
3790.000000	100.323566
3789.000000	100.323146
3788.000000	100.322849
3787.000000	100.322655
3786.000000	100.322397
3785.000000	100.321888
3784.000000	100.321178
3783.000000	100.320731
3782.000000	100.321242
3781.000000	100.323131
3780.000000	100.325927
3779.000000	100.328307
3778.000000	100.329093
3777.000000	100.328054
3776.000000	100.325902
3775.000000	100.323641
3774.000000	100.322102
3773.000000	100.321965
3772.000000	100.323713
3771.000000	100.327099
3770.000000	100.330856
3769.000000	100.333426
3768.000000	100.334140
3767.000000	100.333477
3766.000000	100.332322
3765.000000	100.331312
3764.000000	100.330741
3763.000000	100.330511
3762.000000	100.329868
3761.000000	100.327587
3760.000000	100.323655
3759.000000	100.320718
3758.000000	100.321935
3757.000000	100.327211
3756.000000	100.332912
3755.000000	100.335585
3754.000000	100.335131
3753.000000	100.334441
3752.000000	100.336619
3751.000000	100.342025
3750.000000	100.348072
3749.000000	100.351981
3748.000000	100.353126
3747.000000	100.353829
3746.000000	100.358100
3745.000000	100.366904
3744.000000	100.375365
3743.000000	100.377553
3742.000000	100.372959
3741.000000	100.365171
3740.000000	100.354652
3739.000000	100.340428
3738.000000	100.325764
3737.000000	100.314852
3736.000000	100.308865
3735.000000	100.307092
3734.000000	100.308990
3733.000000	100.314076
3732.000000	100.320275
3731.000000	100.324129
3730.000000	100.324006
3729.000000	100.321325
3728.000000	100.317843
3727.000000	100.313551
3726.000000	100.307681
3725.000000	100.300793
3724.000000	100.294745
3723.000000	100.290372
3722.000000	100.286401
3721.000000	100.281754
3720.000000	100.277272
3719.000000	100.274194
3718.000000	100.272354
3717.000000	100.270532
3716.000000	100.267999
3715.000000	100.265294
3714.000000	100.263244
3713.000000	100.261639
3712.000000	100.260054
3711.000000	100.259577
3710.000000	100.261845
3709.000000	100.266309
3708.000000	100.269629
3707.000000	100.267906
3706.000000	100.259413
3705.000000	100.245563
3704.000000	100.230017
3703.000000	100.216437
3702.000000	100.206504
3701.000000	100.199795
3700.000000	100.195605
3699.000000	100.194483
3698.000000	100.197340
3697.000000	100.203076
3696.000000	100.208032
3695.000000	100.209006
3694.000000	100.206374
3693.000000	100.203659
3692.000000	100.204431
3691.000000	100.209804
3690.000000	100.217477
3689.000000	100.223651
3688.000000	100.226551
3687.000000	100.226490
3686.000000	100.223501
3685.000000	100.216592
3684.000000	100.205186
3683.000000	100.190981
3682.000000	100.177834
3681.000000	100.168615
3680.000000	100.162653
3679.000000	100.156755
3678.000000	100.149066
3677.000000	100.141725
3676.000000	100.138575
3675.000000	100.139787
3674.000000	100.140459
3673.000000	100.137519
3672.000000	100.132492
3671.000000	100.126101
3670.000000	100.118402
3669.000000	100.110479
3668.000000	100.102052
3667.000000	100.091856
3666.000000	100.078242
3665.000000	100.060525
3664.000000	100.041873
3663.000000	100.027074
3662.000000	100.017824
3661.000000	100.011764
3660.000000	100.005279
3659.000000	99.996737
3658.000000	99.987350
3657.000000	99.979560
3656.000000	99.974908
3655.000000	99.973226
3654.000000	99.974090
3653.000000	99.977508
3652.000000	99.981403
3651.000000	99.981359
3650.000000	99.974545
3649.000000	99.962604
3648.000000	99.949532
3647.000000	99.937293
3646.000000	99.924906
3645.000000	99.911557
3644.000000	99.898389
3643.000000	99.886721
3642.000000	99.876631
3641.000000	99.867752
3640.000000	99.860230
3639.000000	99.854252
3638.000000	99.849320
3637.000000	99.844720
3636.000000	99.840427
3635.000000	99.836156
3634.000000	99.830035
3633.000000	99.820410
3632.000000	99.809426
3631.000000	99.802949
3630.000000	99.805253
3629.000000	99.813609
3628.000000	99.819351
3627.000000	99.817052
3626.000000	99.810097
3625.000000	99.803306
3624.000000	99.797162
3623.000000	99.792280
3622.000000	99.790043
3621.000000	99.788849
3620.000000	99.785795
3619.000000	99.781843
3618.000000	99.781642
3617.000000	99.787996
3616.000000	99.799663
3615.000000	99.813433
3614.000000	99.826703
3613.000000	99.838292
3612.000000	99.847201
3611.000000	99.852223
3610.000000	99.853017
3609.000000	99.851116
3608.000000	99.849638
3607.000000	99.851172
3606.000000	99.856164
3605.000000	99.863258
3604.000000	99.870249
3603.000000	99.875304
3602.000000	99.878018
3601.000000	99.878946
3600.000000	99.878609
3599.000000	99.877535
3598.000000	99.876919
3597.000000	99.878324
3596.000000	99.882853
3595.000000	99.890981
3594.000000	99.902267
3593.000000	99.915148
3592.000000	99.927289
3591.000000	99.935959
3590.000000	99.938504
3589.000000	99.934033
3588.000000	99.925196
3587.000000	99.917251
3586.000000	99.914112
3585.000000	99.916236
3584.000000	99.921157
3583.000000	99.924632
3582.000000	99.923529
3581.000000	99.918137
3580.000000	99.911345
3579.000000	99.906074
3578.000000	99.903529
3577.000000	99.903256
3576.000000	99.903985
3575.000000	99.904540
3574.000000	99.904301
3573.000000	99.903414
3572.000000	99.902584
3571.000000	99.902365
3570.000000	99.902372
3569.000000	99.901238
3568.000000	99.897684
3567.000000	99.891881
3566.000000	99.885547
3565.000000	99.880702
3564.000000	99.878589
3563.000000	99.879076
3562.000000	99.881290
3561.000000	99.884744
3560.000000	99.888979
3559.000000	99.892730
3558.000000	99.894474
3557.000000	99.893768
3556.000000	99.891721
3555.000000	99.890182
3554.000000	99.890349
3553.000000	99.891759
3552.000000	99.892736
3551.000000	99.892104
3550.000000	99.890266
3549.000000	99.888403
3548.000000	99.887139
3547.000000	99.886333
3546.000000	99.885760
3545.000000	99.885388
3544.000000	99.885032
3543.000000	99.884234
3542.000000	99.882769
3541.000000	99.880999
3540.000000	99.879558
3539.000000	99.878749
3538.000000	99.878407
3537.000000	99.878336
3536.000000	99.878590
3535.000000	99.879217
3534.000000	99.879973
3533.000000	99.880399
3532.000000	99.880149
3531.000000	99.879257
3530.000000	99.878161
3529.000000	99.877383
3528.000000	99.877062
3527.000000	99.876913
3526.000000	99.876790
3525.000000	99.877161
3524.000000	99.878719
3523.000000	99.881504
3522.000000	99.884659
3521.000000	99.887058
3520.000000	99.888160
3519.000000	99.888159
3518.000000	99.887615
3517.000000	99.887030
3516.000000	99.886647
3515.000000	99.886516
3514.000000	99.886678
3513.000000	99.887228
3512.000000	99.888158
3511.000000	99.889174
3510.000000	99.889810
3509.000000	99.889831
3508.000000	99.889457
3507.000000	99.889161
3506.000000	99.889313
3505.000000	99.890084
3504.000000	99.891514
3503.000000	99.893435
3502.000000	99.895330
3501.000000	99.896572
3500.000000	99.896922
3499.000000	99.896711
3498.000000	99.896625
3497.000000	99.897154
3496.000000	99.898272
3495.000000	99.899589
3494.000000	99.900701
3493.000000	99.901420
3492.000000	99.901712
3491.000000	99.901596
3490.000000	99.901204
3489.000000	99.900837
3488.000000	99.900805
3487.000000	99.901147
3486.000000	99.901605
3485.000000	99.901906
3484.000000	99.902021
3483.000000	99.902093
3482.000000	99.902167
3481.000000	99.902125
3480.000000	99.901923
3479.000000	99.901788
3478.000000	99.902048
3477.000000	99.902782
3476.000000	99.903666
3475.000000	99.904172
3474.000000	99.903965
3473.000000	99.903098
3472.000000	99.901963
3471.000000	99.901003
3470.000000	99.900431
3469.000000	99.900200
3468.000000	99.900140
3467.000000	99.900102
3466.000000	99.899985
3465.000000	99.899732
3464.000000	99.899358
3463.000000	99.898909
3462.000000	99.898317
3461.000000	99.897329
3460.000000	99.895771
3459.000000	99.893910
3458.000000	99.892451
3457.000000	99.892017
3456.000000	99.892690
3455.000000	99.894088
3454.000000	99.895674
3453.000000	99.897013
3452.000000	99.897825
3451.000000	99.897873
3450.000000	99.897035
3449.000000	99.895486
3448.000000	99.893714
3447.000000	99.892257
3446.000000	99.891328
3445.000000	99.890699
3444.000000	99.889877
3443.000000	99.888419
3442.000000	99.886310
3441.000000	99.884192
3440.000000	99.882972
3439.000000	99.882922
3438.000000	99.883284
3437.000000	99.883049
3436.000000	99.882140
3435.000000	99.881341
3434.000000	99.881041
3433.000000	99.880582
3432.000000	99.879135
3431.000000	99.876761
3430.000000	99.874239
3429.000000	99.872190
3428.000000	99.870858
3427.000000	99.870479
3426.000000	99.871243
3425.000000	99.872921
3424.000000	99.874903
3423.000000	99.876583
3422.000000	99.877635
3421.000000	99.878130
3420.000000	99.878569
3419.000000	99.879543
3418.000000	99.881047
3417.000000	99.882390
3416.000000	99.883084
3415.000000	99.883461
3414.000000	99.883964
3413.000000	99.884091
3412.000000	99.882745
3411.000000	99.879732
3410.000000	99.876222
3409.000000	99.873443
3408.000000	99.871416
3407.000000	99.869427
3406.000000	99.867437
3405.000000	99.866397
3404.000000	99.867105
3403.000000	99.869208
3402.000000	99.871460
3401.000000	99.872881
3400.000000	99.873481
3399.000000	99.873878
3398.000000	99.874561
3397.000000	99.875569
3396.000000	99.876640
3395.000000	99.877406
3394.000000	99.877515
3393.000000	99.876889
3392.000000	99.875993
3391.000000	99.875602
3390.000000	99.876076
3389.000000	99.876963
3388.000000	99.877460
3387.000000	99.877208
3386.000000	99.876567
3385.000000	99.876267
3384.000000	99.876815
3383.000000	99.878204
3382.000000	99.879978
3381.000000	99.881505
3380.000000	99.882435
3379.000000	99.882924
3378.000000	99.883397
3377.000000	99.884003
3376.000000	99.884400
3375.000000	99.884218
3374.000000	99.883572
3373.000000	99.883076
3372.000000	99.883282
3371.000000	99.884206
3370.000000	99.885398
3369.000000	99.886376
3368.000000	99.887047
3367.000000	99.887667
3366.000000	99.888503
3365.000000	99.889561
3364.000000	99.890592
3363.000000	99.891337
3362.000000	99.891768
3361.000000	99.892146
3360.000000	99.892824
3359.000000	99.893930
3358.000000	99.895196
3357.000000	99.896175
3356.000000	99.896727
3355.000000	99.897222
3354.000000	99.898165
3353.000000	99.899553
3352.000000	99.900759
3351.000000	99.901190
3350.000000	99.900948
3349.000000	99.900776
3348.000000	99.901337
3347.000000	99.902624
3346.000000	99.904025
3345.000000	99.904849
3344.000000	99.904850
3343.000000	99.904336
3342.000000	99.903865
3341.000000	99.903771
3340.000000	99.903949
3339.000000	99.904064
3338.000000	99.903988
3337.000000	99.903987
3336.000000	99.904430
3335.000000	99.905359
3334.000000	99.906420
3333.000000	99.907187
3332.000000	99.907517
3331.000000	99.907575
3330.000000	99.907605
3329.000000	99.907749
3328.000000	99.908016
3327.000000	99.908319
3326.000000	99.908576
3325.000000	99.908842
3324.000000	99.909410
3323.000000	99.910632
3322.000000	99.912489
3321.000000	99.914396
3320.000000	99.915666
3319.000000	99.916130
3318.000000	99.916206
3317.000000	99.916390
3316.000000	99.916776
3315.000000	99.917164
3314.000000	99.917562
3313.000000	99.918313
3312.000000	99.919691
3311.000000	99.921530
3310.000000	99.923330
3309.000000	99.924675
3308.000000	99.925448
3307.000000	99.925766
3306.000000	99.925877
3305.000000	99.926179
3304.000000	99.927055
3303.000000	99.928547
3302.000000	99.930230
3301.000000	99.931503
3300.000000	99.932084
3299.000000	99.932163
3298.000000	99.932191
3297.000000	99.932571
3296.000000	99.933507
3295.000000	99.934954
3294.000000	99.936615
3293.000000	99.938153
3292.000000	99.939515
3291.000000	99.940949
3290.000000	99.942633
3289.000000	99.944399
3288.000000	99.945969
3287.000000	99.947378
3286.000000	99.948912
3285.000000	99.950572
3284.000000	99.951777
3283.000000	99.951843
3282.000000	99.950677
3281.000000	99.949034
3280.000000	99.948078
3279.000000	99.948467
3278.000000	99.949946
3277.000000	99.951645
3276.000000	99.952907
3275.000000	99.953865
3274.000000	99.955100
3273.000000	99.956890
3272.000000	99.958873
3271.000000	99.960366
3270.000000	99.960948
3269.000000	99.960718
3268.000000	99.960201
3267.000000	99.959967
3266.000000	99.960260
3265.000000	99.960916
3264.000000	99.961559
3263.000000	99.961915
3262.000000	99.961994
3261.000000	99.962035
3260.000000	99.962288
3259.000000	99.962799
3258.000000	99.963428
3257.000000	99.964097
3256.000000	99.964924
3255.000000	99.966001
3254.000000	99.967144
3253.000000	99.968004
3252.000000	99.968448
3251.000000	99.968706
3250.000000	99.969128
3249.000000	99.969864
3248.000000	99.970809
3247.000000	99.971761
3246.000000	99.972561
3245.000000	99.973174
3244.000000	99.973676
3243.000000	99.974194
3242.000000	99.974794
3241.000000	99.975448
3240.000000	99.976099
3239.000000	99.976717
3238.000000	99.977314
3237.000000	99.977914
3236.000000	99.978527
3235.000000	99.979146
3234.000000	99.979774
3233.000000	99.980415
3232.000000	99.981058
3231.000000	99.981680
3230.000000	99.982267
3229.000000	99.982840
3228.000000	99.983421
3227.000000	99.984021
3226.000000	99.984645
3225.000000	99.985291
3224.000000	99.985951
3223.000000	99.986617
3222.000000	99.987284
3221.000000	99.987949
3220.000000	99.988608
3219.000000	99.989257
3218.000000	99.989901
3217.000000	99.990544
3216.000000	99.991189
3215.000000	99.991838
3214.000000	99.992486
3213.000000	99.993132
3212.000000	99.993777
3211.000000	99.994425
3210.000000	99.995082
3209.000000	99.995748
3208.000000	99.996422
3207.000000	99.997102
3206.000000	99.997795
3205.000000	99.998513
3204.000000	99.999262
3203.000000	100.000041
3202.000000	100.000839
3201.000000	100.001645
3200.000000	100.002456
3199.000000	100.003273
3198.000000	100.004101
3197.000000	100.004943
3196.000000	100.005793
3195.000000	100.006644
3194.000000	100.007492
3193.000000	100.008330
3192.000000	100.009155
3191.000000	100.009964
3190.000000	100.010766
3189.000000	100.011576
3188.000000	100.012411
3187.000000	100.013280
3186.000000	100.014177
3185.000000	100.015070
3184.000000	100.015921
3183.000000	100.016708
3182.000000	100.017461
3181.000000	100.018237
3180.000000	100.019060
3179.000000	100.019893
3178.000000	100.020690
3177.000000	100.021485
3176.000000	100.022375
3175.000000	100.023416
3174.000000	100.024572
3173.000000	100.025705
3172.000000	100.026689
3171.000000	100.027499
3170.000000	100.028200
3169.000000	100.028877
3168.000000	100.029577
3167.000000	100.030332
3166.000000	100.031168
3165.000000	100.032086
3164.000000	100.033045
3163.000000	100.033991
3162.000000	100.034863
3161.000000	100.035604
3160.000000	100.036206
3159.000000	100.036753
3158.000000	100.037365
3157.000000	100.038051
3156.000000	100.038699
3155.000000	100.039243
3154.000000	100.039802
3153.000000	100.040576
3152.000000	100.041638
3151.000000	100.042868
3150.000000	100.044040
3149.000000	100.044981
3148.000000	100.045672
3147.000000	100.046287
3146.000000	100.047066
3145.000000	100.048084
3144.000000	100.049172
3143.000000	100.050132
3142.000000	100.050988
3141.000000	100.051961
3140.000000	100.053196
3139.000000	100.054579
3138.000000	100.055777
3137.000000	100.056483
3136.000000	100.056652
3135.000000	100.056664
3134.000000	100.057140
3133.000000	100.058446
3132.000000	100.060417
3131.000000	100.062498
3130.000000	100.064304
3129.000000	100.065820
3128.000000	100.067165
3127.000000	100.068356
3126.000000	100.069331
3125.000000	100.070068
3124.000000	100.070625
3123.000000	100.071111
3122.000000	100.071666
3121.000000	100.072372
3120.000000	100.073193
3119.000000	100.074067
3118.000000	100.075023
3117.000000	100.076151
3116.000000	100.077473
3115.000000	100.078980
3114.000000	100.080740
3113.000000	100.082798
3112.000000	100.084955
3111.000000	100.086805
3110.000000	100.088050
3109.000000	100.088672
3108.000000	100.088863
3107.000000	100.088924
3106.000000	100.089226
3105.000000	100.089984
3104.000000	100.090970
3103.000000	100.091689
3102.000000	100.091971
3101.000000	100.092219
3100.000000	100.092964
3099.000000	100.094346
3098.000000	100.096191
3097.000000	100.098302
3096.000000	100.100415
3095.000000	100.102019
3094.000000	100.102608
3093.000000	100.102199
3092.000000	100.101516
3091.000000	100.101594
3090.000000	100.103073
3089.000000	100.105730
3088.000000	100.108593
3087.000000	100.110663
3086.000000	100.111735
3085.000000	100.112361
3084.000000	100.113070
3083.000000	100.113839
3082.000000	100.114457
3081.000000	100.115102
3080.000000	100.116206
3079.000000	100.117812
3078.000000	100.119380
3077.000000	100.120295
3076.000000	100.120410
3075.000000	100.120097
3074.000000	100.119914
3073.000000	100.120207
3072.000000	100.120802
3071.000000	100.121081
3070.000000	100.120535
3069.000000	100.119309
3068.000000	100.118136
3067.000000	100.117702
3066.000000	100.118152
3065.000000	100.119196
3064.000000	100.120477
3063.000000	100.121728
3062.000000	100.122758
3061.000000	100.123538
3060.000000	100.124304
3059.000000	100.125312
3058.000000	100.126383
3057.000000	100.126943
3056.000000	100.126803
3055.000000	100.126826
3054.000000	100.128375
3053.000000	100.131968
3052.000000	100.136598
3051.000000	100.140490
3050.000000	100.142520
3049.000000	100.142631
3048.000000	100.141268
3047.000000	100.138967
3046.000000	100.136380
3045.000000	100.134218
3044.000000	100.132942
3043.000000	100.132665
3042.000000	100.133418
3041.000000	100.135271
3040.000000	100.138051
3039.000000	100.141138
3038.000000	100.143798
3037.000000	100.145655
3036.000000	100.146654
3035.000000	100.146685
3034.000000	100.145555
3033.000000	100.143489
3032.000000	100.141537
3031.000000	100.141054
3030.000000	100.142573
3029.000000	100.145292
3028.000000	100.147790
3027.000000	100.149408
3026.000000	100.150616
3025.000000	100.152055
3024.000000	100.153699
3023.000000	100.155137
3022.000000	100.156307
3021.000000	100.157555
3020.000000	100.159073
3019.000000	100.160686
3018.000000	100.162202
3017.000000	100.163577
3016.000000	100.164674
3015.000000	100.165401
3014.000000	100.166321
3013.000000	100.168453
3012.000000	100.172002
3011.000000	100.175825
3010.000000	100.178683
3009.000000	100.180434
3008.000000	100.181391
3007.000000	100.181398
3006.000000	100.180442
3005.000000	100.179628
3004.000000	100.180407
3003.000000	100.182933
3002.000000	100.186030
3001.000000	100.188659
3000.000000	100.190615
2999.000000	100.191928
2998.000000	100.192680
2997.000000	100.193637
2996.000000	100.196071
2995.000000	100.200353
2994.000000	100.205182
2993.000000	100.208703
2992.000000	100.210069
2991.000000	100.209655
2990.000000	100.208239
2989.000000	100.206644
2988.000000	100.206097
2987.000000	100.208227
2986.000000	100.214074
2985.000000	100.222816
2984.000000	100.231643
2983.000000	100.237574
2982.000000	100.239781
2981.000000	100.240102
2980.000000	100.240986
2979.000000	100.243027
2978.000000	100.244956
2977.000000	100.245640
2976.000000	100.245265
2975.000000	100.244428
2974.000000	100.242808
2973.000000	100.239325
2972.000000	100.233406
2971.000000	100.225816
2970.000000	100.218393
2969.000000	100.213124
2968.000000	100.211117
2967.000000	100.211729
2966.000000	100.212552
2965.000000	100.210778
2964.000000	100.205274
2963.000000	100.197617
2962.000000	100.191084
2961.000000	100.188255
2960.000000	100.189340
2959.000000	100.192413
2958.000000	100.195052
2957.000000	100.196005
2956.000000	100.195621
2955.000000	100.195058
2954.000000	100.195190
2953.000000	100.196084
2952.000000	100.197233
2951.000000	100.198093
2950.000000	100.198391
2949.000000	100.198075
2948.000000	100.197243
2947.000000	100.196095
2946.000000	100.194800
2945.000000	100.193479
2944.000000	100.192562
2943.000000	100.192931
2942.000000	100.195051
2941.000000	100.197877
2940.000000	100.199313
2939.000000	100.198299
2938.000000	100.195976
2937.000000	100.194388
2936.000000	100.194330
2935.000000	100.194972
2934.000000	100.195232
2933.000000	100.194776
2932.000000	100.193857
2931.000000	100.193008
2930.000000	100.193125
2929.000000	100.195012
2928.000000	100.198374
2927.000000	100.201725
2926.000000	100.203907
2925.000000	100.205298
2924.000000	100.206911
2923.000000	100.208845
2922.000000	100.210349
2921.000000	100.211137
2920.000000	100.211810
2919.000000	100.212882
2918.000000	100.214053
2917.000000	100.214755
2916.000000	100.214980
2915.000000	100.215321
2914.000000	100.216387
2913.000000	100.218333
2912.000000	100.220844
2911.000000	100.223273
2910.000000	100.224993
2909.000000	100.225794
2908.000000	100.226028
2907.000000	100.226404
2906.000000	100.227386
2905.000000	100.228890
2904.000000	100.230527
2903.000000	100.232028
2902.000000	100.233421
2901.000000	100.234841
2900.000000	100.236291
2899.000000	100.237612
2898.000000	100.238657
2897.000000	100.239414
2896.000000	100.239965
2895.000000	100.240388
2894.000000	100.240778
2893.000000	100.241324
2892.000000	100.242201
2891.000000	100.243319
2890.000000	100.244274
2889.000000	100.244697
2888.000000	100.244629
2887.000000	100.244500
2886.000000	100.244754
2885.000000	100.245479
2884.000000	100.246430
2883.000000	100.247357
2882.000000	100.248255
2881.000000	100.249163
2880.000000	100.249761
2879.000000	100.249386
2878.000000	100.247670
2877.000000	100.245206
2876.000000	100.243411
2875.000000	100.243448
2874.000000	100.245333
2873.000000	100.247992
2872.000000	100.250252
2871.000000	100.251823
2870.000000	100.253187
2869.000000	100.254645
2868.000000	100.255586
2867.000000	100.254927
2866.000000	100.252295
2865.000000	100.248545
2864.000000	100.245048
2863.000000	100.242691
2862.000000	100.241630
2861.000000	100.241695
2860.000000	100.242498
2859.000000	100.243181
2858.000000	100.242813
2857.000000	100.241395
2856.000000	100.240155
2855.000000	100.240329
2854.000000	100.241805
2853.000000	100.243243
2852.000000	100.243546
2851.000000	100.242903
2850.000000	100.242278
2849.000000	100.242192
2848.000000	100.242211
2847.000000	100.241585
2846.000000	100.240229
2845.000000	100.238985
2844.000000	100.238857
2843.000000	100.240119
2842.000000	100.242220
2841.000000	100.244507
2840.000000	100.246887
2839.000000	100.249591
2838.000000	100.252428
2837.000000	100.254570
2836.000000	100.255283
2835.000000	100.254817
2834.000000	100.254342
2833.000000	100.254828
2832.000000	100.256079
2831.000000	100.257133
2830.000000	100.257502
2829.000000	100.257570
2828.000000	100.257779
2827.000000	100.257974
2826.000000	100.257863
2825.000000	100.257710
2824.000000	100.258080
2823.000000	100.259071
2822.000000	100.260277
2821.000000	100.261461
2820.000000	100.262773
2819.000000	100.264221
2818.000000	100.265393
2817.000000	100.265983
2816.000000	100.266290
2815.000000	100.266926
2814.000000	100.268115
2813.000000	100.269532
2812.000000	100.270717
2811.000000	100.271535
2810.000000	100.272199
2809.000000	100.272974
2808.000000	100.273891
2807.000000	100.274714
2806.000000	100.275227
2805.000000	100.275482
2804.000000	100.275719
2803.000000	100.276124
2802.000000	100.276682
2801.000000	100.277286
2800.000000	100.277847
2799.000000	100.278345
2798.000000	100.278812
2797.000000	100.279285
2796.000000	100.279772
2795.000000	100.280276
2794.000000	100.280804
2793.000000	100.281355
2792.000000	100.281903
2791.000000	100.282414
2790.000000	100.282892
2789.000000	100.283388
2788.000000	100.283958
2787.000000	100.284607
2786.000000	100.285255
2785.000000	100.285797
2784.000000	100.286199
2783.000000	100.286513
2782.000000	100.286831
2781.000000	100.287218
2780.000000	100.287698
2779.000000	100.288260
2778.000000	100.288890
2777.000000	100.289567
2776.000000	100.290244
2775.000000	100.290846
2774.000000	100.291326
2773.000000	100.291709
2772.000000	100.292091
2771.000000	100.292552
2770.000000	100.293111
2769.000000	100.293736
2768.000000	100.294380
2767.000000	100.294986
2766.000000	100.295513
2765.000000	100.295973
2764.000000	100.296422
2763.000000	100.296906
2762.000000	100.297424
2761.000000	100.297979
2760.000000	100.298629
2759.000000	100.299410
2758.000000	100.300268
2757.000000	100.301104
2756.000000	100.301856
2755.000000	100.302538
2754.000000	100.303197
2753.000000	100.303870
2752.000000	100.304555
2751.000000	100.305224
2750.000000	100.305864
2749.000000	100.306488
2748.000000	100.307106
2747.000000	100.307708
2746.000000	100.308281
2745.000000	100.308830
2744.000000	100.309378
2743.000000	100.309946
2742.000000	100.310530
2741.000000	100.311115
2740.000000	100.311677
2739.000000	100.312198
2738.000000	100.312671
2737.000000	100.313104
2736.000000	100.313511
2735.000000	100.313904
2734.000000	100.314292
2733.000000	100.314680
2732.000000	100.315068
2731.000000	100.315450
2730.000000	100.315818
2729.000000	100.316170
2728.000000	100.316510
2727.000000	100.316843
2726.000000	100.317166
2725.000000	100.317467
2724.000000	100.317741
2723.000000	100.317990
2722.000000	100.318229
2721.000000	100.318469
2720.000000	100.318711
2719.000000	100.318945
2718.000000	100.319155
2717.000000	100.319329
2716.000000	100.319463
2715.000000	100.319556
2714.000000	100.319612
2713.000000	100.319632
2712.000000	100.319620
2711.000000	100.319585
2710.000000	100.319539
2709.000000	100.319494
2708.000000	100.319457
2707.000000	100.319432
2706.000000	100.319415
2705.000000	100.319402
2704.000000	100.319385
2703.000000	100.319351
2702.000000	100.319289
2701.000000	100.319199
2700.000000	100.319095
2699.000000	100.318989
2698.000000	100.318886
2697.000000	100.318782
2696.000000	100.318672
2695.000000	100.318558
2694.000000	100.318438
2693.000000	100.318312
2692.000000	100.318177
2691.000000	100.318034
2690.000000	100.317890
2689.000000	100.317747
2688.000000	100.317605
2687.000000	100.317462
2686.000000	100.317315
2685.000000	100.317162
2684.000000	100.317012
2683.000000	100.316892
2682.000000	100.316831
2681.000000	100.316834
2680.000000	100.316865
2679.000000	100.316870
2678.000000	100.316811
2677.000000	100.316697
2676.000000	100.316565
2675.000000	100.316447
2674.000000	100.316362
2673.000000	100.316308
2672.000000	100.316274
2671.000000	100.316254
2670.000000	100.316239
2669.000000	100.316228
2668.000000	100.316218
2667.000000	100.316209
2666.000000	100.316194
2665.000000	100.316164
2664.000000	100.316112
2663.000000	100.316033
2662.000000	100.315929
2661.000000	100.315806
2660.000000	100.315677
2659.000000	100.315550
2658.000000	100.315426
2657.000000	100.315302
2656.000000	100.315173
2655.000000	100.315045
2654.000000	100.314923
2653.000000	100.314813
2652.000000	100.314713
2651.000000	100.314619
2650.000000	100.314527
2649.000000	100.314438
2648.000000	100.314361
2647.000000	100.314302
2646.000000	100.314263
2645.000000	100.314240
2644.000000	100.314215
2643.000000	100.314168
2642.000000	100.314084
2641.000000	100.313958
2640.000000	100.313795
2639.000000	100.313606
2638.000000	100.313408
2637.000000	100.313223
2636.000000	100.313069
2635.000000	100.312948
2634.000000	100.312836
2633.000000	100.312696
2632.000000	100.312507
2631.000000	100.312275
2630.000000	100.312038
2629.000000	100.311826
2628.000000	100.311644
2627.000000	100.311475
2626.000000	100.311281
2625.000000	100.311029
2624.000000	100.310705
2623.000000	100.310338
2622.000000	100.310003
2621.000000	100.309778
2620.000000	100.309712
2619.000000	100.309797
2618.000000	100.309947
2617.000000	100.310014
2616.000000	100.309890
2615.000000	100.309586
2614.000000	100.309284
2613.000000	100.309199
2612.000000	100.309407
2611.000000	100.309805
2610.000000	100.310208
2609.000000	100.310504
2608.000000	100.310674
2607.000000	100.310762
2606.000000	100.310822
2605.000000	100.310878
2604.000000	100.310892
2603.000000	100.310826
2602.000000	100.310699
2601.000000	100.310560
2600.000000	100.310399
2599.000000	100.310141
2598.000000	100.309777
2597.000000	100.309461
2596.000000	100.309413
2595.000000	100.309707
2594.000000	100.310187
2593.000000	100.310600
2592.000000	100.310796
2591.000000	100.310731
2590.000000	100.310412
2589.000000	100.309944
2588.000000	100.309527
2587.000000	100.309303
2586.000000	100.309222
2585.000000	100.309171
2584.000000	100.309221
2583.000000	100.309532
2582.000000	100.309997
2581.000000	100.310245
2580.000000	100.310120
2579.000000	100.309971
2578.000000	100.310303
2577.000000	100.311222
2576.000000	100.312345
2575.000000	100.313243
2574.000000	100.313856
2573.000000	100.314394
2572.000000	100.314915
2571.000000	100.315150
2570.000000	100.314811
2569.000000	100.314018
2568.000000	100.313313
2567.000000	100.313189
2566.000000	100.313735
2565.000000	100.314618
2564.000000	100.315395
2563.000000	100.315838
2562.000000	100.315987
2561.000000	100.316011
2560.000000	100.316017
2559.000000	100.316000
2558.000000	100.315957
2557.000000	100.315991
2556.000000	100.316238
2555.000000	100.316700
2554.000000	100.317230
2553.000000	100.317677
2552.000000	100.317983
2551.000000	100.318151
2550.000000	100.318207
2549.000000	100.318234
2548.000000	100.318340
2547.000000	100.318507
2546.000000	100.318592
2545.000000	100.318531
2544.000000	100.318477
2543.000000	100.318631
2542.000000	100.318990
2541.000000	100.319384
2540.000000	100.319715
2539.000000	100.320047
2538.000000	100.320452
2537.000000	100.320867
2536.000000	100.321139
2535.000000	100.321161
2534.000000	100.320949
2533.000000	100.320647
2532.000000	100.320444
2531.000000	100.320408
2530.000000	100.320416
2529.000000	100.320308
2528.000000	100.320153
2527.000000	100.320233
2526.000000	100.320669
2525.000000	100.321304
2524.000000	100.321817
2523.000000	100.322074
2522.000000	100.322162
2521.000000	100.322236
2520.000000	100.322347
2519.000000	100.322473
2518.000000	100.322603
2517.000000	100.322746
2516.000000	100.322898
2515.000000	100.323072
2514.000000	100.323302
2513.000000	100.323590
2512.000000	100.323874
2511.000000	100.324055
2510.000000	100.324075
2509.000000	100.323965
2508.000000	100.323865
2507.000000	100.323935
2506.000000	100.324227
2505.000000	100.324636
2504.000000	100.325027
2503.000000	100.325388
2502.000000	100.325758
2501.000000	100.326066
2500.000000	100.326189
2499.000000	100.326131
2498.000000	100.326070
2497.000000	100.326194
2496.000000	100.326555
2495.000000	100.327105
2494.000000	100.327758
2493.000000	100.328418
2492.000000	100.329017
2491.000000	100.329558
2490.000000	100.330094
2489.000000	100.330642
2488.000000	100.331160
2487.000000	100.331628
2486.000000	100.332076
2485.000000	100.332540
2484.000000	100.333014
2483.000000	100.333472
2482.000000	100.333880
2481.000000	100.334180
2480.000000	100.334375
2479.000000	100.334584
2478.000000	100.334934
2477.000000	100.335431
2476.000000	100.335982
2475.000000	100.336484
2474.000000	100.336909
2473.000000	100.337282
2472.000000	100.337645
2471.000000	100.338048
2470.000000	100.338522
2469.000000	100.339057
2468.000000	100.339614
2467.000000	100.340175
2466.000000	100.340738
2465.000000	100.341297
2464.000000	100.341834
2463.000000	100.342349
2462.000000	100.342850
2461.000000	100.343341
2460.000000	100.343832
2459.000000	100.344329
2458.000000	100.344834
2457.000000	100.345342
2456.000000	100.345844
2455.000000	100.346332
2454.000000	100.346803
2453.000000	100.347255
2452.000000	100.347693
2451.000000	100.348115
2450.000000	100.348521
2449.000000	100.348908
2448.000000	100.349275
2447.000000	100.349627
2446.000000	100.349964
2445.000000	100.350288
2444.000000	100.350598
2443.000000	100.350896
2442.000000	100.351192
2441.000000	100.351495
2440.000000	100.351809
2439.000000	100.352133
2438.000000	100.352462
2437.000000	100.352791
2436.000000	100.353116
2435.000000	100.353431
2434.000000	100.353735
2433.000000	100.354025
2432.000000	100.354306
2431.000000	100.354580
2430.000000	100.354854
2429.000000	100.355131
2428.000000	100.355410
2427.000000	100.355685
2426.000000	100.355949
2425.000000	100.356194
2424.000000	100.356418
2423.000000	100.356624
2422.000000	100.356820
2421.000000	100.357011
2420.000000	100.357205
2419.000000	100.357404
2418.000000	100.357606
2417.000000	100.357809
2416.000000	100.358009
2415.000000	100.358204
2414.000000	100.358392
2413.000000	100.358574
2412.000000	100.358755
2411.000000	100.358939
2410.000000	100.359131
2409.000000	100.359329
2408.000000	100.359536
2407.000000	100.359755
2406.000000	100.359990
2405.000000	100.360242
2404.000000	100.360509
2403.000000	100.360792
2402.000000	100.361090
2401.000000	100.361396
2400.000000	100.361702
2399.000000	100.361998
2398.000000	100.362277
2397.000000	100.362541
2396.000000	100.362791
2395.000000	100.363032
2394.000000	100.363273
2393.000000	100.363523
2392.000000	100.363786
2391.000000	100.364060
2390.000000	100.364341
2389.000000	100.364624
2388.000000	100.364911
2387.000000	100.365203
2386.000000	100.365496
2385.000000	100.365785
2384.000000	100.366062
2383.000000	100.366327
2382.000000	100.366577
2381.000000	100.366814
2380.000000	100.367040
2379.000000	100.367257
2378.000000	100.367469
2377.000000	100.367673
2376.000000	100.367865
2375.000000	100.368042
2374.000000	100.368207
2373.000000	100.368363
2372.000000	100.368513
2371.000000	100.368657
2370.000000	100.368790
2369.000000	100.368901
2368.000000	100.368982
2367.000000	100.369026
2366.000000	100.369039
2365.000000	100.369027
2364.000000	100.368998
2363.000000	100.368951
2362.000000	100.368886
2361.000000	100.368795
2360.000000	100.368673
2359.000000	100.368519
2358.000000	100.368343
2357.000000	100.368165
2356.000000	100.368001
2355.000000	100.367859
2354.000000	100.367733
2353.000000	100.367616
2352.000000	100.367493
2351.000000	100.367348
2350.000000	100.367169
2349.000000	100.366959
2348.000000	100.366728
2347.000000	100.366482
2346.000000	100.366217
2345.000000	100.365919
2344.000000	100.365580
2343.000000	100.365203
2342.000000	100.364804
2341.000000	100.364400
2340.000000	100.364007
2339.000000	100.363640
2338.000000	100.363307
2337.000000	100.363001
2336.000000	100.362709
2335.000000	100.362412
2334.000000	100.362103
2333.000000	100.361783
2332.000000	100.361454
2331.000000	100.361118
2330.000000	100.360775
2329.000000	100.360429
2328.000000	100.360087
2327.000000	100.359758
2326.000000	100.359448
2325.000000	100.359162
2324.000000	100.358896
2323.000000	100.358641
2322.000000	100.358385
2321.000000	100.358123
2320.000000	100.357855
2319.000000	100.357583
2318.000000	100.357313
2317.000000	100.357044
2316.000000	100.356772
2315.000000	100.356498
2314.000000	100.356232
2313.000000	100.355975
2312.000000	100.355703
2311.000000	100.355372
2310.000000	100.354973
2309.000000	100.354532
2308.000000	100.354088
2307.000000	100.353610
2306.000000	100.353030
2305.000000	100.352285
2304.000000	100.351497
2303.000000	100.350896
2302.000000	100.350670
2301.000000	100.350763
2300.000000	100.350872
2299.000000	100.350739
2298.000000	100.350458
2297.000000	100.350308
2296.000000	100.350469
2295.000000	100.350772
2294.000000	100.350952
2293.000000	100.350744
2292.000000	100.349975
2291.000000	100.348669
2290.000000	100.347280
2289.000000	100.346359
2288.000000	100.346148
2287.000000	100.346321
2286.000000	100.346331
2285.000000	100.345915
2284.000000	100.345207
2283.000000	100.344483
2282.000000	100.343898
2281.000000	100.343420
2280.000000	100.342809
2279.000000	100.341771
2278.000000	100.340272
2277.000000	100.338751
2276.000000	100.337794
2275.000000	100.337575
2274.000000	100.337656
2273.000000	100.337399
2272.000000	100.336546
2271.000000	100.335358
2270.000000	100.334344
2269.000000	100.333871
2268.000000	100.333958
2267.000000	100.334261
2266.000000	100.334297
2265.000000	100.333809
2264.000000	100.332956
2263.000000	100.332189
2262.000000	100.331936
2261.000000	100.332367
2260.000000	100.333351
2259.000000	100.334427
2258.000000	100.334955
2257.000000	100.334570
2256.000000	100.333587
2255.000000	100.332887
2254.000000	100.333040
2253.000000	100.333634
2252.000000	100.333673
2251.000000	100.332665
2250.000000	100.331003
2249.000000	100.329421
2248.000000	100.328212
2247.000000	100.327191
2246.000000	100.326258
2245.000000	100.325619
2244.000000	100.325470
2243.000000	100.325723
2242.000000	100.326123
2241.000000	100.326454
2240.000000	100.326551
2239.000000	100.326258
2238.000000	100.325570
2237.000000	100.324781
2236.000000	100.324337
2235.000000	100.324443
2234.000000	100.324884
2233.000000	100.325215
2232.000000	100.325139
2231.000000	100.324711
2230.000000	100.324229
2229.000000	100.323988
2228.000000	100.324052
2227.000000	100.324249
2226.000000	100.324329
2225.000000	100.324175
2224.000000	100.323869
2223.000000	100.323598
2222.000000	100.323464
2221.000000	100.323401
2220.000000	100.323278
2219.000000	100.323052
2218.000000	100.322781
2217.000000	100.322528
2216.000000	100.322317
2215.000000	100.322185
2214.000000	100.322202
2213.000000	100.322390
2212.000000	100.322649
2211.000000	100.322816
2210.000000	100.322832
2209.000000	100.322771
2208.000000	100.322725
2207.000000	100.322701
2206.000000	100.322639
2205.000000	100.322506
2204.000000	100.322328
2203.000000	100.322149
2202.000000	100.322012
2201.000000	100.321974
2200.000000	100.322086
2199.000000	100.322346
2198.000000	100.322707
2197.000000	100.323117
2196.000000	100.323529
2195.000000	100.323849
2194.000000	100.323955
2193.000000	100.323811
2192.000000	100.323546
2191.000000	100.323384
2190.000000	100.323486
2189.000000	100.323871
2188.000000	100.324433
2187.000000	100.325001
2186.000000	100.325404
2185.000000	100.325578
2184.000000	100.325621
2183.000000	100.325686
2182.000000	100.325798
2181.000000	100.325841
2180.000000	100.325756
2179.000000	100.325683
2178.000000	100.325830
2177.000000	100.326266
2176.000000	100.326867
2175.000000	100.327385
2174.000000	100.327618
2173.000000	100.327536
2172.000000	100.327290
2171.000000	100.327111
2170.000000	100.327110
2169.000000	100.327222
2168.000000	100.327328
2167.000000	100.327372
2166.000000	100.327380
2165.000000	100.327399
2164.000000	100.327453
2163.000000	100.327547
2162.000000	100.327678
2161.000000	100.327834
2160.000000	100.328007
2159.000000	100.328195
2158.000000	100.328389
2157.000000	100.328565
2156.000000	100.328705
2155.000000	100.328810
2154.000000	100.328894
2153.000000	100.328980
2152.000000	100.329084
2151.000000	100.329214
2150.000000	100.329368
2149.000000	100.329538
2148.000000	100.329715
2147.000000	100.329895
2146.000000	100.330074
2145.000000	100.330250
2144.000000	100.330424
2143.000000	100.330598
2142.000000	100.330782
2141.000000	100.330979
2140.000000	100.331192
2139.000000	100.331415
2138.000000	100.331644
2137.000000	100.331873
2136.000000	100.332104
2135.000000	100.332340
2134.000000	100.332592
2133.000000	100.332870
2132.000000	100.333177
2131.000000	100.333510
2130.000000	100.333858
2129.000000	100.334212
2128.000000	100.334567
2127.000000	100.334926
2126.000000	100.335294
2125.000000	100.335677
2124.000000	100.336083
2123.000000	100.336515
2122.000000	100.336971
2121.000000	100.337430
2120.000000	100.337864
2119.000000	100.338258
2118.000000	100.338615
2117.000000	100.338960
2116.000000	100.339334
2115.000000	100.339781
2114.000000	100.340301
2113.000000	100.340835
2112.000000	100.341327
2111.000000	100.341788
2110.000000	100.342277
2109.000000	100.342822
2108.000000	100.343413
2107.000000	100.344040
2106.000000	100.344702
2105.000000	100.345376
2104.000000	100.346037
2103.000000	100.346701
2102.000000	100.347410
2101.000000	100.348118
2100.000000	100.348707
2099.000000	100.349149
2098.000000	100.349580
2097.000000	100.350110
2096.000000	100.350634
2095.000000	100.350970
2094.000000	100.351164
2093.000000	100.351523
2092.000000	100.352318
2091.000000	100.353553
2090.000000	100.354927
2089.000000	100.356033
2088.000000	100.356633
2087.000000	100.356795
2086.000000	100.356881
2085.000000	100.357277
2084.000000	100.358114
2083.000000	100.359228
2082.000000	100.360279
2081.000000	100.360948
2080.000000	100.361166
2079.000000	100.361205
2078.000000	100.361430
2077.000000	100.361885
2076.000000	100.362246
2075.000000	100.362251
2074.000000	100.362002
2073.000000	100.361747
2072.000000	100.361563
2071.000000	100.361450
2070.000000	100.361535
2069.000000	100.361899
2068.000000	100.362314
2067.000000	100.362484
2066.000000	100.362511
2065.000000	100.362818
2064.000000	100.363516
2063.000000	100.364118
2062.000000	100.364098
2061.000000	100.363428
2060.000000	100.362485
2059.000000	100.361657
2058.000000	100.361138
2057.000000	100.360988
2056.000000	100.361160
2055.000000	100.361444
2054.000000	100.361546
2053.000000	100.361278
2052.000000	100.360644
2051.000000	100.359788
2050.000000	100.358908
2049.000000	100.358169
2048.000000	100.357632
2047.000000	100.357243
2046.000000	100.356918
2045.000000	100.356613
2044.000000	100.356292
2043.000000	100.355881
2042.000000	100.355299
2041.000000	100.354552
2040.000000	100.353742
2039.000000	100.352979
2038.000000	100.352317
2037.000000	100.351743
2036.000000	100.351215
2035.000000	100.350689
2034.000000	100.350138
2033.000000	100.349540
2032.000000	100.348884
2031.000000	100.348181
2030.000000	100.347482
2029.000000	100.346859
2028.000000	100.346339
2027.000000	100.345872
2026.000000	100.345356
2025.000000	100.344698
2024.000000	100.343865
2023.000000	100.342940
2022.000000	100.342117
2021.000000	100.341555
2020.000000	100.341265
2019.000000	100.341072
2018.000000	100.340728
2017.000000	100.340146
2016.000000	100.339446
2015.000000	100.338798
2014.000000	100.338187
2013.000000	100.337437
2012.000000	100.336438
2011.000000	100.335286
2010.000000	100.334191
2009.000000	100.333310
2008.000000	100.332638
2007.000000	100.332061
2006.000000	100.331477
2005.000000	100.330860
2004.000000	100.330222
2003.000000	100.329564
2002.000000	100.328895
2001.000000	100.328240
2000.000000	100.327588
1999.000000	100.326858
1998.000000	100.325990
1997.000000	100.325044
1996.000000	100.324188
1995.000000	100.323568
1994.000000	100.323221
1993.000000	100.323087
1992.000000	100.323013
1991.000000	100.322802
1990.000000	100.322343
1989.000000	100.321690
1988.000000	100.320989
1987.000000	100.320339
1986.000000	100.319741
1985.000000	100.319183
1984.000000	100.318685
1983.000000	100.318241
1982.000000	100.317769
1981.000000	100.317178
1980.000000	100.316449
1979.000000	100.315654
1978.000000	100.314926
1977.000000	100.314385
1976.000000	100.314058
1975.000000	100.313857
1974.000000	100.313608
1973.000000	100.313214
1972.000000	100.312712
1971.000000	100.312238
1970.000000	100.311909
1969.000000	100.311739
1968.000000	100.311646
1967.000000	100.311489
1966.000000	100.311189
1965.000000	100.310769
1964.000000	100.310307
1963.000000	100.309850
1962.000000	100.309398
1961.000000	100.308954
1960.000000	100.308540
1959.000000	100.308168
1958.000000	100.307815
1957.000000	100.307440
1956.000000	100.307035
1955.000000	100.306617
1954.000000	100.306186
1953.000000	100.305689
1952.000000	100.305083
1951.000000	100.304422
1950.000000	100.303846
1949.000000	100.303468
1948.000000	100.303287
1947.000000	100.303188
1946.000000	100.303007
1945.000000	100.302584
1944.000000	100.301839
1943.000000	100.300874
1942.000000	100.299997
1941.000000	100.299501
1940.000000	100.299429
1939.000000	100.299551
1938.000000	100.299482
1937.000000	100.298835
1936.000000	100.297399
1935.000000	100.295286
1934.000000	100.293040
1933.000000	100.291415
1932.000000	100.290829
1931.000000	100.291044
1930.000000	100.291345
1929.000000	100.291169
1928.000000	100.290453
1927.000000	100.289351
1926.000000	100.287927
1925.000000	100.286285
1924.000000	100.284817
1923.000000	100.284000
1922.000000	100.283796
1921.000000	100.283559
1920.000000	100.282779
1919.000000	100.281600
1918.000000	100.280497
1917.000000	100.279598
1916.000000	100.278494
1915.000000	100.276818
1914.000000	100.274621
1913.000000	100.272085
1912.000000	100.269183
1911.000000	100.265790
1910.000000	100.262091
1909.000000	100.258726
1908.000000	100.256403
1907.000000	100.255458
1906.000000	100.255727
1905.000000	100.256474
1904.000000	100.256472
1903.000000	100.254658
1902.000000	100.250944
1901.000000	100.246414
1900.000000	100.242555
1899.000000	100.240291
1898.000000	100.239732
1897.000000	100.240376
1896.000000	100.241336
1895.000000	100.241764
1894.000000	100.241343
1893.000000	100.240237
1892.000000	100.238486
1891.000000	100.235831
1890.000000	100.232524
1889.000000	100.229800
1888.000000	100.228545
1887.000000	100.228146
1886.000000	100.227471
1885.000000	100.226403
1884.000000	100.225932
1883.000000	100.226758
1882.000000	100.228334
1881.000000	100.229543
1880.000000	100.229928
1879.000000	100.229872
1878.000000	100.229822
1877.000000	100.229724
1876.000000	100.229229
1875.000000	100.228238
1874.000000	100.227197
1873.000000	100.226826
1872.000000	100.227421
1871.000000	100.228500
1870.000000	100.229197
1869.000000	100.229165
1868.000000	100.228948
1867.000000	100.229193
1866.000000	100.230086
1865.000000	100.231546
1864.000000	100.233168
1863.000000	100.234201
1862.000000	100.234089
1861.000000	100.233152
1860.000000	100.232539
1859.000000	100.233144
1858.000000	100.234801
1857.000000	100.236717
1856.000000	100.238352
1855.000000	100.239721
1854.000000	100.240953
1853.000000	100.241951
1852.000000	100.242573
1851.000000	100.242918
1850.000000	100.243269
1849.000000	100.243821
1848.000000	100.244535
1847.000000	100.245243
1846.000000	100.245856
1845.000000	100.246455
1844.000000	100.247181
1843.000000	100.248026
1842.000000	100.248832
1841.000000	100.249474
1840.000000	100.249932
1839.000000	100.250250
1838.000000	100.250523
1837.000000	100.250863
1836.000000	100.251321
1835.000000	100.251858
1834.000000	100.252394
1833.000000	100.252875
1832.000000	100.253307
1831.000000	100.253732
1830.000000	100.254173
1829.000000	100.254600
1828.000000	100.254965
1827.000000	100.255263
1826.000000	100.255522
1825.000000	100.255782
1824.000000	100.256062
1823.000000	100.256352
1822.000000	100.256624
1821.000000	100.256851
1820.000000	100.257014
1819.000000	100.257125
1818.000000	100.257246
1817.000000	100.257458
1816.000000	100.257783
1815.000000	100.258142
1814.000000	100.258422
1813.000000	100.258600
1812.000000	100.258791
1811.000000	100.259146
1810.000000	100.259648
1809.000000	100.260073
1808.000000	100.260221
1807.000000	100.260109
1806.000000	100.259931
1805.000000	100.259839
1804.000000	100.259826
1803.000000	100.259818
1802.000000	100.259837
1801.000000	100.260008
1800.000000	100.260398
1799.000000	100.260959
1798.000000	100.261666
1797.000000	100.262509
1796.000000	100.263299
1795.000000	100.263649
1794.000000	100.263276
1793.000000	100.262479
1792.000000	100.262219
1791.000000	100.263123
1790.000000	100.264796
1789.000000	100.266417
1788.000000	100.267555
1787.000000	100.268227
1786.000000	100.268687
1785.000000	100.269209
1784.000000	100.269895
1783.000000	100.270775
1782.000000	100.272002
1781.000000	100.273659
1780.000000	100.275506
1779.000000	100.277132
1778.000000	100.278428
1777.000000	100.279666
1776.000000	100.281004
1775.000000	100.282160
1774.000000	100.282730
1773.000000	100.282911
1772.000000	100.283697
1771.000000	100.285654
1770.000000	100.288199
1769.000000	100.290553
1768.000000	100.292340
1767.000000	100.293514
1766.000000	100.294270
1765.000000	100.294935
1764.000000	100.295968
1763.000000	100.297905
1762.000000	100.300972
1761.000000	100.304433
1760.000000	100.306992
1759.000000	100.308051
1758.000000	100.307906
1757.000000	100.307321
1756.000000	100.307141
1755.000000	100.307757
1754.000000	100.309083
1753.000000	100.310856
1752.000000	100.312741
1751.000000	100.314503
1750.000000	100.316055
1749.000000	100.317181
1748.000000	100.317690
1747.000000	100.317979
1746.000000	100.318877
1745.000000	100.320564
1744.000000	100.321933
1743.000000	100.321632
1742.000000	100.319709
1741.000000	100.317664
1740.000000	100.317019
1739.000000	100.317719
1738.000000	100.318638
1737.000000	100.319096
1736.000000	100.319182
1735.000000	100.319148
1734.000000	100.319017
1733.000000	100.318593
1732.000000	100.317750
1731.000000	100.316673
1730.000000	100.315671
1729.000000	100.314983
1728.000000	100.314622
1727.000000	100.314267
1726.000000	100.313498
1725.000000	100.312195
1724.000000	100.310675
1723.000000	100.309377
1722.000000	100.308427
1721.000000	100.307655
1720.000000	100.306867
1719.000000	100.305997
1718.000000	100.305056
1717.000000	100.304046
1716.000000	100.302952
1715.000000	100.301817
1714.000000	100.300684
1713.000000	100.299522
1712.000000	100.298286
1711.000000	100.296985
1710.000000	100.295650
1709.000000	100.294280
1708.000000	100.292854
1707.000000	100.291377
1706.000000	100.289887
1705.000000	100.288411
1704.000000	100.286937
1703.000000	100.285442
1702.000000	100.283915
1701.000000	100.282357
1700.000000	100.280779
1699.000000	100.279197
1698.000000	100.277621
1697.000000	100.276043
1696.000000	100.274452
1695.000000	100.272836
1694.000000	100.271195
1693.000000	100.269536
1692.000000	100.267875
1691.000000	100.266220
1690.000000	100.264579
1689.000000	100.262970
1688.000000	100.261428
1687.000000	100.259979
1686.000000	100.258614
1685.000000	100.257295
1684.000000	100.255975
1683.000000	100.254619
1682.000000	100.253212
1681.000000	100.251770
1680.000000	100.250320
1679.000000	100.248881
1678.000000	100.247470
1677.000000	100.246101
1676.000000	100.244766
1675.000000	100.243416
1674.000000	100.241985
1673.000000	100.240466
1672.000000	100.238911
1671.000000	100.237390
1670.000000	100.235984
1669.000000	100.234751
1668.000000	100.233641
1667.000000	100.232519
1666.000000	100.231214
1665.000000	100.229515
1664.000000	100.227342
1663.000000	100.225117
1662.000000	100.223525
1661.000000	100.222643
1660.000000	100.221954
1659.000000	100.221118
1658.000000	100.220069
1657.000000	100.218754
1656.000000	100.216963
1655.000000	100.214414
1654.000000	100.211446
1653.000000	100.209981
1652.000000	100.210539
1651.000000	100.211771
1650.000000	100.214303
1649.000000	100.217536
1648.000000	100.219193
1647.000000	100.217568
1646.000000	100.213442
1645.000000	100.209185
1644.000000	100.205839
1643.000000	100.202871
1642.000000	100.199422
1641.000000	100.195821
1640.000000	100.193244
1639.000000	100.191893
1638.000000	100.190509
1637.000000	100.188087
1636.000000	100.186060
1635.000000	100.186660
1634.000000	100.188672
1633.000000	100.190338
1632.000000	100.191333
1631.000000	100.190985
1630.000000	100.188663
1629.000000	100.184814
1628.000000	100.181215
1627.000000	100.179310
1626.000000	100.178463
1625.000000	100.177151
1624.000000	100.175513
1623.000000	100.175614
1622.000000	100.178320
1621.000000	100.181956
1620.000000	100.185317
1619.000000	100.188665
1618.000000	100.192029
1617.000000	100.193980
1616.000000	100.193416
1615.000000	100.192134
1614.000000	100.192617
1613.000000	100.194905
1612.000000	100.197243
1611.000000	100.198724
1610.000000	100.200343
1609.000000	100.203300
1608.000000	100.207268
1607.000000	100.210947
1606.000000	100.213461
1605.000000	100.214619
1604.000000	100.214750
1603.000000	100.214960
1602.000000	100.216780
1601.000000	100.220563
1600.000000	100.224672
1599.000000	100.227230
1598.000000	100.228364
1597.000000	100.229803
1596.000000	100.232456
1595.000000	100.235156
1594.000000	100.236299
1593.000000	100.236051
1592.000000	100.236129
1591.000000	100.237751
1590.000000	100.240469
1589.000000	100.242970
1588.000000	100.244520
1587.000000	100.245394
1586.000000	100.246226
1585.000000	100.247352
1584.000000	100.248727
1583.000000	100.250194
1582.000000	100.251637
1581.000000	100.253003
1580.000000	100.254290
1579.000000	100.255515
1578.000000	100.256688
1577.000000	100.257826
1576.000000	100.258965
1575.000000	100.260113
1574.000000	100.261281
1573.000000	100.262519
1572.000000	100.263813
1571.000000	100.265092
1570.000000	100.266262
1569.000000	100.267230
1568.000000	100.267956
1567.000000	100.268497
1566.000000	100.268959
1565.000000	100.269424
1564.000000	100.269955
1563.000000	100.270582
1562.000000	100.271313
1561.000000	100.272196
1560.000000	100.273351
1559.000000	100.274716
1558.000000	100.275737
1557.000000	100.276161
1556.000000	100.276386
1555.000000	100.276771
1554.000000	100.277255
1553.000000	100.277710
1552.000000	100.278093
1551.000000	100.278470
1550.000000	100.278963
1549.000000	100.279646
1548.000000	100.280461
1547.000000	100.281257
1546.000000	100.281894
1545.000000	100.282265
1544.000000	100.282425
1543.000000	100.282552
1542.000000	100.282743
1541.000000	100.282949
1540.000000	100.283063
1539.000000	100.283099
1538.000000	100.283163
1537.000000	100.283322
1536.000000	100.283517
1535.000000	100.283677
1534.000000	100.283816
1533.000000	100.283991
1532.000000	100.284196
1531.000000	100.284394
1530.000000	100.284587
1529.000000	100.284793
1528.000000	100.285023
1527.000000	100.285278
1526.000000	100.285554
1525.000000	100.285845
1524.000000	100.286150
1523.000000	100.286462
1522.000000	100.286772
1521.000000	100.287064
1520.000000	100.287330
1519.000000	100.287574
1518.000000	100.287804
1517.000000	100.288025
1516.000000	100.288240
1515.000000	100.288447
1514.000000	100.288642
1513.000000	100.288820
1512.000000	100.288985
1511.000000	100.289141
1510.000000	100.289295
1509.000000	100.289449
1508.000000	100.289602
1507.000000	100.289749
1506.000000	100.289872
1505.000000	100.289959
1504.000000	100.290019
1503.000000	100.290071
1502.000000	100.290132
1501.000000	100.290205
1500.000000	100.290286
1499.000000	100.290369
1498.000000	100.290451
1497.000000	100.290535
1496.000000	100.290622
1495.000000	100.290710
1494.000000	100.290793
1493.000000	100.290865
1492.000000	100.290922
1491.000000	100.290962
1490.000000	100.290997
1489.000000	100.291041
1488.000000	100.291058
1487.000000	100.290993
1486.000000	100.290838
1485.000000	100.290623
1484.000000	100.290366
1483.000000	100.290089
1482.000000	100.289817
1481.000000	100.289543
1480.000000	100.289207
1479.000000	100.288774
1478.000000	100.288318
1477.000000	100.287964
1476.000000	100.287745
1475.000000	100.287532
1474.000000	100.287180
1473.000000	100.286727
1472.000000	100.286320
1471.000000	100.285906
1470.000000	100.285310
1469.000000	100.284512
1468.000000	100.283596
1467.000000	100.282680
1466.000000	100.281945
1465.000000	100.281611
1464.000000	100.281722
1463.000000	100.282041
1462.000000	100.282351
1461.000000	100.282552
1460.000000	100.282553
1459.000000	100.282176
1458.000000	100.281305
1457.000000	100.280326
1456.000000	100.279899
1455.000000	100.280028
1454.000000	100.280430
1453.000000	100.280723
1452.000000	100.280597
1451.000000	100.280038
1450.000000	100.279213
1449.000000	100.278287
1448.000000	100.277456
1447.000000	100.276995
1446.000000	100.277015
1445.000000	100.277390
1444.000000	100.277924
1443.000000	100.278397
1442.000000	100.278577
1441.000000	100.278302
1440.000000	100.277645
1439.000000	100.277024
1438.000000	100.277038
1437.000000	100.277837
1436.000000	100.278446
1435.000000	100.277786
1434.000000	100.276304
1433.000000	100.275321
1432.000000	100.275657
1431.000000	100.277174
1430.000000	100.279035
1429.000000	100.280519
1428.000000	100.281541
1427.000000	100.282456
1426.000000	100.283711
1425.000000	100.285575
1424.000000	100.287861
1423.000000	100.289709
1422.000000	100.290203
1421.000000	100.289240
1420.000000	100.287808
1419.000000	100.287680
1418.000000	100.289508
1417.000000	100.291812
1416.000000	100.293504
1415.000000	100.294881
1414.000000	100.296495
1413.000000	100.298601
1412.000000	100.301055
1411.000000	100.303492
1410.000000	100.305672
1409.000000	100.307606
1408.000000	100.309305
1407.000000	100.310608
1406.000000	100.311514
1405.000000	100.312620
1404.000000	100.314685
1403.000000	100.317512
1402.000000	100.320113
1401.000000	100.321836
1400.000000	100.322889
1399.000000	100.323976
1398.000000	100.325303
1397.000000	100.326725
1396.000000	100.328975
1395.000000	100.333090
1394.000000	100.338272
1393.000000	100.342214
1392.000000	100.344290
1391.000000	100.346243
1390.000000	100.350033
1389.000000	100.355899
1388.000000	100.361904
1387.000000	100.365382
1386.000000	100.365266
1385.000000	100.362705
1384.000000	100.359986
1383.000000	100.359130
1382.000000	100.360671
1381.000000	100.363030
1380.000000	100.363728
1379.000000	100.361878
1378.000000	100.359044
1377.000000	100.357335
1376.000000	100.357288
1375.000000	100.358205
1374.000000	100.359735
1373.000000	100.361995
1372.000000	100.364384
1371.000000	100.365572
1370.000000	100.364747
1369.000000	100.362698
1368.000000	100.361407
1367.000000	100.362000
1366.000000	100.363653
1365.000000	100.364706
1364.000000	100.364338
1363.000000	100.363209
1362.000000	100.362451
1361.000000	100.362136
1360.000000	100.361659
1359.000000	100.361008
1358.000000	100.360737
1357.000000	100.361121
1356.000000	100.361817
1355.000000	100.362398
1354.000000	100.362926
1353.000000	100.363650
1352.000000	100.364383
1351.000000	100.364610
1350.000000	100.364191
1349.000000	100.363637
1348.000000	100.363470
1347.000000	100.363543
1346.000000	100.363230
1345.000000	100.362180
1344.000000	100.360738
1343.000000	100.359643
1342.000000	100.359352
1341.000000	100.359677
1340.000000	100.360094
1339.000000	100.360481
1338.000000	100.361369
1337.000000	100.363216
1336.000000	100.365585
1335.000000	100.367249
1334.000000	100.367206
1333.000000	100.365497
1332.000000	100.363047
1331.000000	100.360808
1330.000000	100.359260
1329.000000	100.358692
1328.000000	100.359562
1327.000000	100.362134
1326.000000	100.365641
1325.000000	100.368225
1324.000000	100.368293
1323.000000	100.365973
1322.000000	100.363090
1321.000000	100.361603
1320.000000	100.361983
1319.000000	100.363235
1318.000000	100.364120
1317.000000	100.364149
1316.000000	100.363584
1315.000000	100.362933
1314.000000	100.362532
1313.000000	100.362421
1312.000000	100.362451
1311.000000	100.362524
1310.000000	100.362712
1309.000000	100.363113
1308.000000	100.363667
1307.000000	100.364212
1306.000000	100.364670
1305.000000	100.365054
1304.000000	100.365287
1303.000000	100.365135
1302.000000	100.364383
1301.000000	100.363104
1300.000000	100.361732
1299.000000	100.360839
1298.000000	100.360734
1297.000000	100.361277
1296.000000	100.362078
1295.000000	100.362763
1294.000000	100.362962
1293.000000	100.362340
1292.000000	100.361110
1291.000000	100.360399
1290.000000	100.361282
1289.000000	100.363079
1288.000000	100.363450
1287.000000	100.361119
1286.000000	100.358015
1285.000000	100.357488
1284.000000	100.360433
1283.000000	100.364271
1282.000000	100.366054
1281.000000	100.365665
1280.000000	100.365180
1279.000000	100.365725
1278.000000	100.365964
1277.000000	100.363730
1276.000000	100.358611
1275.000000	100.352877
1274.000000	100.350013
1273.000000	100.351991
1272.000000	100.357599
1271.000000	100.363352
1270.000000	100.366344
1269.000000	100.366082
1268.000000	100.363752
1267.000000	100.360798
1266.000000	100.358636
1265.000000	100.358482
1264.000000	100.360175
1263.000000	100.361721
1262.000000	100.361416
1261.000000	100.360240
1260.000000	100.360637
1259.000000	100.362675
1258.000000	100.363077
1257.000000	100.359002
1256.000000	100.351730
1255.000000	100.345652
1254.000000	100.343951
1253.000000	100.345836
1252.000000	100.347607
1251.000000	100.345643
1250.000000	100.338609
1249.000000	100.327845
1248.000000	100.316195
1247.000000	100.306197
1246.000000	100.298703
1245.000000	100.292529
1244.000000	100.285347
1243.000000	100.275687
1242.000000	100.264879
1241.000000	100.256596
1240.000000	100.253299
1239.000000	100.253204
1238.000000	100.252091
1237.000000	100.248193
1236.000000	100.243590
1235.000000	100.240321
1234.000000	100.237180
1233.000000	100.231771
1232.000000	100.223975
1231.000000	100.215445
1230.000000	100.206751
1229.000000	100.196946
1228.000000	100.185223
1227.000000	100.171143
1226.000000	100.153790
1225.000000	100.132529
1224.000000	100.108235
1223.000000	100.082002
1222.000000	100.053016
1221.000000	100.019753
1220.000000	99.983173
1219.000000	99.946714
1218.000000	99.912800
1217.000000	99.880905
1216.000000	99.849129
1215.000000	99.815965
1214.000000	99.780814
1213.000000	99.744633
1212.000000	99.709478
1211.000000	99.675250
1210.000000	99.638094
1209.000000	99.595348
1208.000000	99.551025
1207.000000	99.511960
1206.000000	99.478280
1205.000000	99.442754
1204.000000	99.400824
1203.000000	99.355995
1202.000000	99.313306
1201.000000	99.272497
1200.000000	99.231030
1199.000000	99.189750
1198.000000	99.151279
1197.000000	99.115217
1196.000000	99.078579
1195.000000	99.039335
1194.000000	98.996825
1193.000000	98.950571
1192.000000	98.901549
1191.000000	98.853236
1190.000000	98.808709
1189.000000	98.767540
1188.000000	98.727372
1187.000000	98.687118
1186.000000	98.646839
1185.000000	98.605946
1184.000000	98.563431
1183.000000	98.518724
1182.000000	98.471110
1181.000000	98.419880
1180.000000	98.366147
1179.000000	98.312503
1178.000000	98.259454
1177.000000	98.204303
1176.000000	98.145074
1175.000000	98.083335
1174.000000	98.021542
1173.000000	97.959905
1172.000000	97.897799
1171.000000	97.836048
1170.000000	97.775827
1169.000000	97.717396
1168.000000	97.661687
1167.000000	97.610964
1166.000000	97.566484
1165.000000	97.528346
1164.000000	97.499580
1163.000000	97.487230
1162.000000	97.496168
1161.000000	97.522802
1160.000000	97.556037
1159.000000	97.583275
1158.000000	97.595515
1157.000000	97.589650
1156.000000	97.568300
1155.000000	97.536964
1154.000000	97.500150
1153.000000	97.460261
1152.000000	97.419148
1151.000000	97.378154
1150.000000	97.336523
1149.000000	97.292471
1148.000000	97.246079
1147.000000	97.198515
1146.000000	97.148805
1145.000000	97.095351
1144.000000	97.041154
1143.000000	96.993152
1142.000000	96.954421
1141.000000	96.920253
1140.000000	96.883454
1139.000000	96.840433
1138.000000	96.791299
1137.000000	96.737823
1136.000000	96.683093
1135.000000	96.630215
1134.000000	96.579668
1133.000000	96.530033
1132.000000	96.481342
1131.000000	96.434590
1130.000000	96.388302
1129.000000	96.339673
1128.000000	96.288827
1127.000000	96.237443
1126.000000	96.183733
1125.000000	96.124504
1124.000000	96.062312
1123.000000	96.004207
1122.000000	95.952379
1121.000000	95.902535
1120.000000	95.852728
1119.000000	95.806309
1118.000000	95.763570
1117.000000	95.718372
1116.000000	95.667105
1115.000000	95.614378
1114.000000	95.565415
1113.000000	95.519074
1112.000000	95.472949
1111.000000	95.429196
1110.000000	95.390000
1109.000000	95.352267
1108.000000	95.311844
1107.000000	95.269132
1106.000000	95.226765
1105.000000	95.185935
1104.000000	95.148212
1103.000000	95.116020
1102.000000	95.087684
1101.000000	95.056686
1100.000000	95.019379
1099.000000	94.979147
1098.000000	94.940092
1097.000000	94.901457
1096.000000	94.861163
1095.000000	94.820261
1094.000000	94.781009
1093.000000	94.744783
1092.000000	94.713570
1091.000000	94.688190
1090.000000	94.663483
1089.000000	94.631619
1088.000000	94.592526
1087.000000	94.554913
1086.000000	94.524619
1085.000000	94.498337
1084.000000	94.471456
1083.000000	94.444954
1082.000000	94.420908
1081.000000	94.397775
1080.000000	94.374267
1079.000000	94.352157
1078.000000	94.331400
1077.000000	94.307665
1076.000000	94.278292
1075.000000	94.245728
1074.000000	94.211867
1073.000000	94.173398
1072.000000	94.125362
1071.000000	94.065029
1070.000000	93.990779
1069.000000	93.902195
1068.000000	93.802966
1067.000000	93.698863
1066.000000	93.591679
1065.000000	93.480663
1064.000000	93.370276
1063.000000	93.268862
1062.000000	93.177835
1061.000000	93.089879
1060.000000	93.000335
1059.000000	92.913117
1058.000000	92.833109
1057.000000	92.759839
1056.000000	92.690840
1055.000000	92.623955
1054.000000	92.554317
1053.000000	92.476471
1052.000000	92.391387
1051.000000	92.303734
1050.000000	92.211161
1049.000000	92.106116
1048.000000	91.989249
1047.000000	91.869843
1046.000000	91.752194
1045.000000	91.632730
1044.000000	91.510452
1043.000000	91.388319
1042.000000	91.264136
1041.000000	91.133348
1040.000000	91.002811
1039.000000	90.887744
1038.000000	90.791301
1037.000000	90.701096
1036.000000	90.610579
1035.000000	90.529130
1034.000000	90.463772
1033.000000	90.405555
1032.000000	90.343676
1031.000000	90.281719
1030.000000	90.229608
1029.000000	90.188505
1028.000000	90.152543
1027.000000	90.117659
1026.000000	90.081097
1025.000000	90.039779
1024.000000	89.996529
1023.000000	89.961230
1022.000000	89.939228
1021.000000	89.924117
1020.000000	89.906262
1019.000000	89.881937
1018.000000	89.850663
1017.000000	89.811763
1016.000000	89.768334
1015.000000	89.727544
1014.000000	89.692753
1013.000000	89.661674
1012.000000	89.634299
1011.000000	89.614172
1010.000000	89.599358
1009.000000	89.581739
1008.000000	89.559025
1007.000000	89.538664
1006.000000	89.526131
1005.000000	89.517983
1004.000000	89.509786
1003.000000	89.502031
1002.000000	89.494687
1001.000000	89.484921
1000.000000	89.474113
999.000000	89.468644
998.000000	89.470195
997.000000	89.473792
996.000000	89.478616
995.000000	89.491395
994.000000	89.514948
993.000000	89.542032
992.000000	89.564681
991.000000	89.582238
990.000000	89.597123
989.000000	89.611054
988.000000	89.628683
987.000000	89.656607
986.000000	89.694941
985.000000	89.737195
984.000000	89.781160
983.000000	89.832100
982.000000	89.893015
981.000000	89.960317
980.000000	90.031698
979.000000	90.109840
978.000000	90.195862
977.000000	90.287424
976.000000	90.385159
975.000000	90.492154
974.000000	90.604874
973.000000	90.714062
972.000000	90.817788
971.000000	90.924630
970.000000	91.040606
969.000000	91.161654
968.000000	91.282263
967.000000	91.402708
966.000000	91.523370
965.000000	91.639985
964.000000	91.749714
963.000000	91.855821
962.000000	91.962067
961.000000	92.067677
960.000000	92.170924
959.000000	92.272277
958.000000	92.371538
957.000000	92.467562
956.000000	92.562911
955.000000	92.662423
954.000000	92.764421
953.000000	92.859507
952.000000	92.941061
951.000000	93.011543
950.000000	93.076326
949.000000	93.137193
948.000000	93.194749
947.000000	93.251225
946.000000	93.306885
945.000000	93.358096
944.000000	93.402255
943.000000	93.441288
942.000000	93.478778
941.000000	93.517591
940.000000	93.560742
939.000000	93.609110
938.000000	93.657371
937.000000	93.698296
936.000000	93.732556
935.000000	93.768420
934.000000	93.810408
933.000000	93.854716
932.000000	93.897545
931.000000	93.940443
930.000000	93.984415
929.000000	94.025699
928.000000	94.061512
927.000000	94.094801
926.000000	94.129870
925.000000	94.167668
924.000000	94.207702
923.000000	94.249600
922.000000	94.290737
921.000000	94.327599
920.000000	94.361411
919.000000	94.396987
918.000000	94.434644
917.000000	94.469748
916.000000	94.501984
915.000000	94.537582
914.000000	94.579198
913.000000	94.621071
912.000000	94.658603
911.000000	94.696300
910.000000	94.741460
909.000000	94.795936
908.000000	94.858739
907.000000	94.930854
906.000000	95.012173
905.000000	95.098576
904.000000	95.187429
903.000000	95.282233
902.000000	95.386902
901.000000	95.498507
900.000000	95.609797
899.000000	95.716406
898.000000	95.818743
897.000000	95.919901
896.000000	96.024079
895.000000	96.133132
894.000000	96.241700
893.000000	96.339750
892.000000	96.423579
891.000000	96.501143
890.000000	96.583178
889.000000	96.671901
888.000000	96.762058
887.000000	96.849630
886.000000	96.934481
885.000000	97.016516
884.000000	97.094613
883.000000	97.169417
882.000000	97.243109
881.000000	97.315735
880.000000	97.384712
879.000000	97.448744
878.000000	97.509979
877.000000	97.571534
876.000000	97.634540
875.000000	97.698413
874.000000	97.763003
873.000000	97.829804
872.000000	97.900727
871.000000	97.974921
870.000000	98.047055
869.000000	98.110848
868.000000	98.165849
867.000000	98.219962
866.000000	98.283511
865.000000	98.359775
864.000000	98.441087
863.000000	98.514237
862.000000	98.571010
861.000000	98.615211
860.000000	98.659630
859.000000	98.714558
858.000000	98.778480
857.000000	98.841040
856.000000	98.894762
855.000000	98.941659
854.000000	98.988044
853.000000	99.035621
852.000000	99.080157
851.000000	99.117521
850.000000	99.148118
849.000000	99.175618
848.000000	99.204059
847.000000	99.236665
846.000000	99.274377
845.000000	99.313006
844.000000	99.342754
843.000000	99.353383
842.000000	99.341756
841.000000	99.314529
840.000000	99.283237
839.000000	99.256306
838.000000	99.234289
837.000000	99.211253
836.000000	99.180735
835.000000	99.141769
834.000000	99.100528
833.000000	99.066348
832.000000	99.045819
831.000000	99.039898
830.000000	99.045077
829.000000	99.055754
828.000000	99.065451
827.000000	99.068732
826.000000	99.065565
825.000000	99.063119
824.000000	99.069142
823.000000	99.082629
822.000000	99.094800
821.000000	99.099681
820.000000	99.098831
819.000000	99.094898
818.000000	99.085957
817.000000	99.068649
816.000000	99.042492
815.000000	99.006881
814.000000	98.955983
813.000000	98.880896
812.000000	98.776675
811.000000	98.644920
810.000000	98.490499
809.000000	98.317598
808.000000	98.126615
807.000000	97.911412
806.000000	97.662480
805.000000	97.379993
804.000000	97.084401
803.000000	96.807287
802.000000	96.569054
801.000000	96.370866
800.000000	96.208740
799.000000	96.086427
798.000000	96.011138
797.000000	95.985163
796.000000	96.005994
795.000000	96.066484
794.000000	96.149599
793.000000	96.230249
792.000000	96.289440
791.000000	96.324770
790.000000	96.344960
789.000000	96.357587
788.000000	96.363305
787.000000	96.356133
786.000000	96.325871
785.000000	96.265207
784.000000	96.178932
783.000000	96.083273
782.000000	95.993063
781.000000	95.913291
780.000000	95.846181
779.000000	95.800695
778.000000	95.788498
777.000000	95.812682
776.000000	95.865180
775.000000	95.934173
774.000000	96.011401
773.000000	96.093784
772.000000	96.180515
771.000000	96.268631
770.000000	96.351538
769.000000	96.423363
768.000000	96.484259
767.000000	96.538696
766.000000	96.588185
765.000000	96.628748
764.000000	96.657202
763.000000	96.677795
762.000000	96.700407
761.000000	96.732483
760.000000	96.773703
759.000000	96.818347
758.000000	96.862429
757.000000	96.907827
756.000000	96.958323
755.000000	97.012566
754.000000	97.064214
753.000000	97.109712
752.000000	97.152089
751.000000	97.195322
750.000000	97.238789
749.000000	97.279543
748.000000	97.316385
747.000000	97.349392
746.000000	97.380021
745.000000	97.414923
744.000000	97.464147
743.000000	97.530447
742.000000	97.605356
741.000000	97.681697
740.000000	97.763984
739.000000	97.857837
738.000000	97.953814
737.000000	98.033287
736.000000	98.090205
735.000000	98.137047
734.000000	98.188090
733.000000	98.244680
732.000000	98.299108
731.000000	98.345177
730.000000	98.380649
729.000000	98.404943
728.000000	98.420092
727.000000	98.432420
726.000000	98.449463
725.000000	98.474803
724.000000	98.506219
723.000000	98.538263
722.000000	98.568181
721.000000	98.601013
720.000000	98.645999
719.000000	98.704158
718.000000	98.762813
717.000000	98.808204
716.000000	98.840744
715.000000	98.871535
714.000000	98.905169
713.000000	98.933322
712.000000	98.946826
711.000000	98.947640
710.000000	98.946370
709.000000	98.952336
708.000000	98.967532
707.000000	98.985890
706.000000	98.996596
705.000000	98.991597
704.000000	98.970713
703.000000	98.936267
702.000000	98.883836
701.000000	98.803689
700.000000	98.691089
699.000000	98.550621
698.000000	98.393146
697.000000	98.237019
696.000000	98.110819
695.000000	98.041617
694.000000	98.034949
693.000000	98.072941
692.000000	98.135464
691.000000	98.215979
690.000000	98.312385
689.000000	98.413189
688.000000	98.504222
687.000000	98.584000
686.000000	98.660023
685.000000	98.731372
684.000000	98.786402
683.000000	98.818919
682.000000	98.838180
681.000000	98.860266
680.000000	98.893971
679.000000	98.936963
678.000000	98.981881
677.000000	99.023227
676.000000	99.058049
675.000000	99.085502
674.000000	99.107321
673.000000	99.126850
672.000000	99.148265
671.000000	99.175567
670.000000	99.211595
669.000000	99.255853
668.000000	99.298898
667.000000	99.325165
666.000000	99.334289
665.000000	99.344448
664.000000	99.369574
663.000000	99.408995
662.000000	99.449935
661.000000	99.477994
660.000000	99.489383
659.000000	99.487581
658.000000	99.473508
657.000000	99.448493
656.000000	99.425140
655.000000	99.425684
654.000000	99.460621
653.000000	99.513744
652.000000	99.556878
651.000000	99.575575
650.000000	99.576467
649.000000	99.574778
648.000000	99.581716
647.000000	99.601947
646.000000	99.633409
645.000000	99.666673
644.000000	99.689892
643.000000	99.698952
642.000000	99.703679
641.000000	99.721184
640.000000	99.760802
639.000000	99.815162
638.000000	99.867880
637.000000	99.910740
636.000000	99.946637
635.000000	99.973929
634.000000	99.980093
633.000000	99.961022
632.000000	99.939158
631.000000	99.949343
630.000000	100.005068
629.000000	100.087433
628.000000	100.168692
627.000000	100.235964
626.000000	100.290052
625.000000	100.333134
624.000000	100.363893
623.000000	100.380323
622.000000	100.383163
621.000000	100.379024
620.000000	100.378211
619.000000	100.383583
618.000000	100.384668
617.000000	100.373809
616.000000	100.365139
615.000000	100.377942
614.000000	100.401985
613.000000	100.403552
612.000000	100.369004
611.000000	100.323017
610.000000	100.298128
609.000000	100.299297
608.000000	100.311695
607.000000	100.326613
606.000000	100.343516
605.000000	100.361365
604.000000	100.382039
603.000000	100.410173
602.000000	100.436859
601.000000	100.435486
600.000000	100.387399
599.000000	100.305963
598.000000	100.223019
597.000000	100.155485
596.000000	100.102900
595.000000	100.070663
594.000000	100.072266
593.000000	100.108274
592.000000	100.159074
591.000000	100.200217
590.000000	100.218380
589.000000	100.216394
588.000000	100.211152
587.000000	100.223548
586.000000	100.256219
585.000000	100.281989
584.000000	100.270671
583.000000	100.228296
582.000000	100.194774
581.000000	100.198731
580.000000	100.232258
579.000000	100.277065
578.000000	100.337647
577.000000	100.430467
576.000000	100.539774
575.000000	100.602306
574.000000	100.563245
573.000000	100.437937
572.000000	100.302495
571.000000	100.226978
570.000000	100.210313
569.000000	100.186398
568.000000	100.097324
567.000000	99.943087
566.000000	99.765522
565.000000	99.603919
564.000000	99.479809
563.000000	99.407857
562.000000	99.388767
561.000000	99.401854
560.000000	99.422198
559.000000	99.434224
558.000000	99.425564
557.000000	99.385271
556.000000	99.314179
555.000000	99.225018
554.000000	99.129297
553.000000	99.036104
552.000000	98.963385
551.000000	98.927502
550.000000	98.914116
