PE IR       SUBTECH     SPECTRUM    ASCII       PEDS        4.00        
   -1
BH1 8-1 3 45_1.asc
24/05/17
13:50:35.00
24/05/17
13:50:54.00
Administrator
?品 147 用? Administrator 日期 Friday, May 17 2024
550.000000
#HDR
-1
-1
#GR
cm-1
%T
1.0
0.0
4000.000000
-1.000000
3451
8
100.638396
79.037504
#DATA
4000.000000	100.511327
3999.000000	100.506906
3998.000000	100.502726
3997.000000	100.500781
3996.000000	100.501636
3995.000000	100.503890
3994.000000	100.505279
3993.000000	100.504963
3992.000000	100.503598
3991.000000	100.502218
3990.000000	100.501205
3989.000000	100.500275
3988.000000	100.499104
3987.000000	100.497729
3986.000000	100.496374
3985.000000	100.495143
3984.000000	100.494082
3983.000000	100.493442
3982.000000	100.493585
3981.000000	100.494505
3980.000000	100.495587
3979.000000	100.496056
3978.000000	100.495674
3977.000000	100.494831
3976.000000	100.494044
3975.000000	100.493431
3974.000000	100.492762
3973.000000	100.491921
3972.000000	100.491150
3971.000000	100.490781
3970.000000	100.490863
3969.000000	100.491095
3968.000000	100.491136
3967.000000	100.490969
3966.000000	100.490886
3965.000000	100.491128
3964.000000	100.491610
3963.000000	100.492020
3962.000000	100.492150
3961.000000	100.492055
3960.000000	100.491869
3959.000000	100.491536
3958.000000	100.490868
3957.000000	100.489848
3956.000000	100.488740
3955.000000	100.487904
3954.000000	100.487541
3953.000000	100.487613
3952.000000	100.487909
3951.000000	100.488124
3950.000000	100.488032
3949.000000	100.487618
3948.000000	100.487057
3947.000000	100.486591
3946.000000	100.486366
3945.000000	100.486365
3944.000000	100.486442
3943.000000	100.486425
3942.000000	100.486247
3941.000000	100.485980
3940.000000	100.485738
3939.000000	100.485598
3938.000000	100.485608
3937.000000	100.485798
3936.000000	100.486100
3935.000000	100.486258
3934.000000	100.485911
3933.000000	100.484881
3932.000000	100.483439
3931.000000	100.482264
3930.000000	100.481949
3929.000000	100.482566
3928.000000	100.483635
3927.000000	100.484456
3926.000000	100.484563
3925.000000	100.483928
3924.000000	100.482970
3923.000000	100.482321
3922.000000	100.482442
3921.000000	100.483379
3920.000000	100.484809
3919.000000	100.486226
3918.000000	100.487124
3917.000000	100.487149
3916.000000	100.486270
3915.000000	100.484863
3914.000000	100.483508
3913.000000	100.482662
3912.000000	100.482578
3911.000000	100.483459
3910.000000	100.485463
3909.000000	100.488474
3908.000000	100.491912
3907.000000	100.494830
3906.000000	100.496469
3905.000000	100.496769
3904.000000	100.496387
3903.000000	100.496123
3902.000000	100.496117
3901.000000	100.495760
3900.000000	100.494361
3899.000000	100.491917
3898.000000	100.489300
3897.000000	100.487743
3896.000000	100.488100
3895.000000	100.490566
3894.000000	100.494541
3893.000000	100.498561
3892.000000	100.500740
3891.000000	100.500118
3890.000000	100.497435
3889.000000	100.494265
3888.000000	100.491703
3887.000000	100.490041
3886.000000	100.489073
3885.000000	100.488601
3884.000000	100.488711
3883.000000	100.489539
3882.000000	100.491085
3881.000000	100.493122
3880.000000	100.495200
3879.000000	100.496947
3878.000000	100.498052
3877.000000	100.498208
3876.000000	100.497452
3875.000000	100.496197
3874.000000	100.494733
3873.000000	100.493127
3872.000000	100.491687
3871.000000	100.490795
3870.000000	100.490177
3869.000000	100.489451
3868.000000	100.489119
3867.000000	100.490195
3866.000000	100.492909
3865.000000	100.495977
3864.000000	100.497727
3863.000000	100.498059
3862.000000	100.498213
3861.000000	100.499217
3860.000000	100.501116
3859.000000	100.503316
3858.000000	100.505239
3857.000000	100.506465
3856.000000	100.506286
3855.000000	100.504262
3854.000000	100.501109
3853.000000	100.498538
3852.000000	100.497621
3851.000000	100.497388
3850.000000	100.496358
3849.000000	100.494329
3848.000000	100.492347
3847.000000	100.491728
3846.000000	100.492872
3845.000000	100.495007
3844.000000	100.496967
3843.000000	100.498214
3842.000000	100.499033
3841.000000	100.500020
3840.000000	100.501268
3839.000000	100.501962
3838.000000	100.501235
3837.000000	100.499185
3836.000000	100.496700
3835.000000	100.494687
3834.000000	100.493585
3833.000000	100.493192
3832.000000	100.492832
3831.000000	100.491957
3830.000000	100.490554
3829.000000	100.488987
3828.000000	100.487683
3827.000000	100.486946
3826.000000	100.486861
3825.000000	100.487246
3824.000000	100.487629
3823.000000	100.487456
3822.000000	100.486485
3821.000000	100.485002
3820.000000	100.483729
3819.000000	100.483123
3818.000000	100.483020
3817.000000	100.482858
3816.000000	100.482183
3815.000000	100.481176
3814.000000	100.480391
3813.000000	100.480088
3812.000000	100.480149
3811.000000	100.480337
3810.000000	100.480525
3809.000000	100.480733
3808.000000	100.480942
3807.000000	100.480994
3806.000000	100.480789
3805.000000	100.480408
3804.000000	100.480030
3803.000000	100.479833
3802.000000	100.479826
3801.000000	100.479945
3800.000000	100.480305
3799.000000	100.480983
3798.000000	100.481789
3797.000000	100.482307
3796.000000	100.482214
3795.000000	100.481532
3794.000000	100.480676
3793.000000	100.480082
3792.000000	100.479934
3791.000000	100.480204
3790.000000	100.480846
3789.000000	100.481809
3788.000000	100.482876
3787.000000	100.483677
3786.000000	100.483970
3785.000000	100.483893
3784.000000	100.483879
3783.000000	100.484292
3782.000000	100.485171
3781.000000	100.486345
3780.000000	100.487628
3779.000000	100.488848
3778.000000	100.489793
3777.000000	100.490220
3776.000000	100.490051
3775.000000	100.489568
3774.000000	100.489349
3773.000000	100.489969
3772.000000	100.491645
3771.000000	100.493908
3770.000000	100.495626
3769.000000	100.495874
3768.000000	100.494693
3767.000000	100.493070
3766.000000	100.492287
3765.000000	100.493030
3764.000000	100.494947
3763.000000	100.496859
3762.000000	100.497442
3761.000000	100.495962
3760.000000	100.492820
3759.000000	100.489547
3758.000000	100.487462
3757.000000	100.486344
3756.000000	100.484939
3755.000000	100.482513
3754.000000	100.479823
3753.000000	100.478673
3752.000000	100.480216
3751.000000	100.483378
3750.000000	100.485712
3749.000000	100.486173
3748.000000	100.485636
3747.000000	100.485532
3746.000000	100.486352
3745.000000	100.486593
3744.000000	100.484818
3743.000000	100.482201
3742.000000	100.480679
3741.000000	100.480753
3740.000000	100.481479
3739.000000	100.481207
3738.000000	100.478777
3737.000000	100.474459
3736.000000	100.470028
3735.000000	100.467322
3734.000000	100.466488
3733.000000	100.465795
3732.000000	100.463393
3731.000000	100.459230
3730.000000	100.454926
3729.000000	100.452052
3728.000000	100.450706
3727.000000	100.449559
3726.000000	100.447534
3725.000000	100.445325
3724.000000	100.444410
3723.000000	100.444862
3722.000000	100.445042
3721.000000	100.443329
3720.000000	100.439241
3719.000000	100.433246
3718.000000	100.426364
3717.000000	100.419967
3716.000000	100.415487
3715.000000	100.413526
3714.000000	100.412894
3713.000000	100.411020
3712.000000	100.406126
3711.000000	100.398994
3710.000000	100.391649
3709.000000	100.384677
3708.000000	100.377372
3707.000000	100.369792
3706.000000	100.363444
3705.000000	100.359833
3704.000000	100.358426
3703.000000	100.355999
3702.000000	100.348724
3701.000000	100.335962
3700.000000	100.321548
3699.000000	100.310777
3698.000000	100.306543
3697.000000	100.307830
3696.000000	100.310668
3695.000000	100.311035
3694.000000	100.307338
3693.000000	100.300777
3692.000000	100.294293
3691.000000	100.290325
3690.000000	100.287754
3689.000000	100.282875
3688.000000	100.275027
3687.000000	100.266925
3686.000000	100.260048
3685.000000	100.253579
3684.000000	100.246267
3683.000000	100.237956
3682.000000	100.229986
3681.000000	100.223789
3680.000000	100.218805
3679.000000	100.212478
3678.000000	100.202646
3677.000000	100.190014
3676.000000	100.176377
3675.000000	100.162185
3674.000000	100.147050
3673.000000	100.130288
3672.000000	100.112341
3671.000000	100.096134
3670.000000	100.085152
3669.000000	100.080052
3668.000000	100.077039
3667.000000	100.070534
3666.000000	100.057368
3665.000000	100.038058
3664.000000	100.015760
3663.000000	99.994265
3662.000000	99.976160
3661.000000	99.961968
3660.000000	99.950714
3659.000000	99.941100
3658.000000	99.932502
3657.000000	99.924711
3656.000000	99.917119
3655.000000	99.908982
3654.000000	99.899533
3653.000000	99.887853
3652.000000	99.873506
3651.000000	99.857923
3650.000000	99.843280
3649.000000	99.829566
3648.000000	99.815157
3647.000000	99.799320
3646.000000	99.783001
3645.000000	99.768024
3644.000000	99.755637
3643.000000	99.745579
3642.000000	99.736093
3641.000000	99.725081
3640.000000	99.711945
3639.000000	99.698228
3638.000000	99.686211
3637.000000	99.676638
3636.000000	99.667984
3635.000000	99.658080
3634.000000	99.646506
3633.000000	99.635165
3632.000000	99.626004
3631.000000	99.619015
3630.000000	99.613228
3629.000000	99.607486
3628.000000	99.601526
3627.000000	99.595589
3626.000000	99.588769
3625.000000	99.580892
3624.000000	99.574616
3623.000000	99.574297
3622.000000	99.582613
3621.000000	99.597675
3620.000000	99.613505
3619.000000	99.624865
3618.000000	99.631776
3617.000000	99.637021
3616.000000	99.641629
3615.000000	99.645568
3614.000000	99.650827
3613.000000	99.661227
3612.000000	99.678099
3611.000000	99.697094
3610.000000	99.711067
3609.000000	99.716504
3608.000000	99.716245
3607.000000	99.715665
3606.000000	99.717694
3605.000000	99.722395
3604.000000	99.729530
3603.000000	99.739457
3602.000000	99.751605
3601.000000	99.763174
3600.000000	99.770797
3599.000000	99.773586
3598.000000	99.773359
3597.000000	99.772460
3596.000000	99.772837
3595.000000	99.776397
3594.000000	99.784698
3593.000000	99.797661
3592.000000	99.812554
3591.000000	99.824780
3590.000000	99.830373
3589.000000	99.828666
3588.000000	99.822420
3587.000000	99.815010
3586.000000	99.808548
3585.000000	99.804105
3584.000000	99.801981
3583.000000	99.801524
3582.000000	99.801297
3581.000000	99.799909
3580.000000	99.796934
3579.000000	99.793179
3578.000000	99.789812
3577.000000	99.787005
3576.000000	99.783596
3575.000000	99.778560
3574.000000	99.772825
3573.000000	99.769136
3572.000000	99.769420
3571.000000	99.772259
3570.000000	99.773402
3569.000000	99.769324
3568.000000	99.760584
3567.000000	99.751511
3566.000000	99.746649
3565.000000	99.747481
3564.000000	99.752022
3563.000000	99.756359
3562.000000	99.756933
3561.000000	99.752629
3560.000000	99.745258
3559.000000	99.737990
3558.000000	99.733085
3557.000000	99.730789
3556.000000	99.729827
3555.000000	99.728662
3554.000000	99.726656
3553.000000	99.724453
3552.000000	99.723335
3551.000000	99.724019
3550.000000	99.725952
3549.000000	99.727741
3548.000000	99.728317
3547.000000	99.727765
3546.000000	99.727010
3545.000000	99.726590
3544.000000	99.725862
3543.000000	99.723693
3542.000000	99.719940
3541.000000	99.715924
3540.000000	99.713274
3539.000000	99.712400
3538.000000	99.712220
3537.000000	99.711387
3536.000000	99.709575
3535.000000	99.707414
3534.000000	99.705469
3533.000000	99.703627
3532.000000	99.701435
3531.000000	99.698815
3530.000000	99.696433
3529.000000	99.695240
3528.000000	99.695476
3527.000000	99.696286
3526.000000	99.696645
3525.000000	99.696618
3524.000000	99.697214
3523.000000	99.698861
3522.000000	99.700595
3521.000000	99.701161
3520.000000	99.700399
3519.000000	99.699063
3518.000000	99.697708
3517.000000	99.696203
3516.000000	99.694358
3515.000000	99.692500
3514.000000	99.691179
3513.000000	99.690550
3512.000000	99.690265
3511.000000	99.689847
3510.000000	99.689096
3509.000000	99.688169
3508.000000	99.687333
3507.000000	99.686680
3506.000000	99.686155
3505.000000	99.685856
3504.000000	99.686134
3503.000000	99.687148
3502.000000	99.688269
3501.000000	99.688308
3500.000000	99.686587
3499.000000	99.683498
3498.000000	99.680267
3497.000000	99.678013
3496.000000	99.676960
3495.000000	99.676600
3494.000000	99.676203
3493.000000	99.675352
3492.000000	99.674113
3491.000000	99.672807
3490.000000	99.671697
3489.000000	99.670820
3488.000000	99.669973
3487.000000	99.668829
3486.000000	99.667154
3485.000000	99.665053
3484.000000	99.663032
3483.000000	99.661669
3482.000000	99.661131
3481.000000	99.661053
3480.000000	99.660883
3479.000000	99.660330
3478.000000	99.659374
3477.000000	99.658052
3476.000000	99.656427
3475.000000	99.654673
3474.000000	99.652969
3473.000000	99.651314
3472.000000	99.649558
3471.000000	99.647630
3470.000000	99.645632
3469.000000	99.643712
3468.000000	99.641909
3467.000000	99.640113
3466.000000	99.638097
3465.000000	99.635679
3464.000000	99.632970
3463.000000	99.630411
3462.000000	99.628343
3461.000000	99.626524
3460.000000	99.624340
3459.000000	99.621597
3458.000000	99.618891
3457.000000	99.617002
3456.000000	99.616025
3455.000000	99.615466
3454.000000	99.614927
3453.000000	99.614286
3452.000000	99.613225
3451.000000	99.611091
3450.000000	99.607609
3449.000000	99.603447
3448.000000	99.599615
3447.000000	99.596417
3446.000000	99.593434
3445.000000	99.590453
3444.000000	99.587811
3443.000000	99.585729
3442.000000	99.583948
3441.000000	99.582407
3440.000000	99.581594
3439.000000	99.581582
3438.000000	99.581198
3437.000000	99.579027
3436.000000	99.575160
3435.000000	99.571290
3434.000000	99.568846
3433.000000	99.567602
3432.000000	99.566290
3431.000000	99.564034
3430.000000	99.560844
3429.000000	99.557236
3428.000000	99.553902
3427.000000	99.551432
3426.000000	99.549778
3425.000000	99.548075
3424.000000	99.545560
3423.000000	99.542648
3422.000000	99.540677
3421.000000	99.540514
3420.000000	99.541783
3419.000000	99.543376
3418.000000	99.544361
3417.000000	99.544275
3416.000000	99.542927
3415.000000	99.540334
3414.000000	99.536833
3413.000000	99.533038
3412.000000	99.529548
3411.000000	99.526604
3410.000000	99.523968
3409.000000	99.521149
3408.000000	99.517930
3407.000000	99.514748
3406.000000	99.512501
3405.000000	99.511890
3404.000000	99.512911
3403.000000	99.514917
3402.000000	99.517026
3401.000000	99.518499
3400.000000	99.519030
3399.000000	99.518948
3398.000000	99.519105
3397.000000	99.520295
3396.000000	99.522510
3395.000000	99.524771
3394.000000	99.525974
3393.000000	99.526003
3392.000000	99.525877
3391.000000	99.526626
3390.000000	99.528170
3389.000000	99.529424
3388.000000	99.529351
3387.000000	99.527777
3386.000000	99.525462
3385.000000	99.523713
3384.000000	99.523763
3383.000000	99.525948
3382.000000	99.529337
3381.000000	99.532302
3380.000000	99.533841
3379.000000	99.534294
3378.000000	99.534669
3377.000000	99.535473
3376.000000	99.536383
3375.000000	99.536967
3374.000000	99.537336
3373.000000	99.537945
3372.000000	99.538982
3371.000000	99.540212
3370.000000	99.541364
3369.000000	99.542465
3368.000000	99.543749
3367.000000	99.545359
3366.000000	99.547227
3365.000000	99.549139
3364.000000	99.550841
3363.000000	99.552147
3362.000000	99.553036
3361.000000	99.553687
3360.000000	99.554427
3359.000000	99.555505
3358.000000	99.556958
3357.000000	99.558671
3356.000000	99.560521
3355.000000	99.562418
3354.000000	99.564223
3353.000000	99.565769
3352.000000	99.567001
3351.000000	99.568012
3350.000000	99.568946
3349.000000	99.569978
3348.000000	99.571355
3347.000000	99.573183
3346.000000	99.575087
3345.000000	99.576303
3344.000000	99.576387
3343.000000	99.575844
3342.000000	99.575896
3341.000000	99.577395
3340.000000	99.580149
3339.000000	99.583123
3338.000000	99.585397
3337.000000	99.586861
3336.000000	99.588077
3335.000000	99.589649
3334.000000	99.591728
3333.000000	99.593957
3332.000000	99.595745
3331.000000	99.596636
3330.000000	99.596630
3329.000000	99.596176
3328.000000	99.595783
3327.000000	99.595591
3326.000000	99.595422
3325.000000	99.595308
3324.000000	99.595745
3323.000000	99.597260
3322.000000	99.599855
3321.000000	99.602934
3320.000000	99.605742
3319.000000	99.607896
3318.000000	99.609544
3317.000000	99.611129
3316.000000	99.613018
3315.000000	99.615360
3314.000000	99.618293
3313.000000	99.622047
3312.000000	99.626560
3311.000000	99.631037
3310.000000	99.634308
3309.000000	99.635843
3308.000000	99.636273
3307.000000	99.636837
3306.000000	99.638388
3305.000000	99.640969
3304.000000	99.643968
3303.000000	99.646420
3302.000000	99.647562
3301.000000	99.647492
3300.000000	99.647184
3299.000000	99.647579
3298.000000	99.648810
3297.000000	99.650483
3296.000000	99.652415
3295.000000	99.654636
3294.000000	99.656908
3293.000000	99.658891
3292.000000	99.660768
3291.000000	99.663121
3290.000000	99.666041
3289.000000	99.668854
3288.000000	99.670961
3287.000000	99.672629
3286.000000	99.674651
3285.000000	99.677378
3284.000000	99.680409
3283.000000	99.683063
3282.000000	99.685059
3281.000000	99.686612
3280.000000	99.688115
3279.000000	99.689828
3278.000000	99.691767
3277.000000	99.693843
3276.000000	99.695990
3275.000000	99.698181
3274.000000	99.700375
3273.000000	99.702514
3272.000000	99.704553
3271.000000	99.706468
3270.000000	99.708235
3269.000000	99.709854
3268.000000	99.711409
3267.000000	99.713045
3266.000000	99.714849
3265.000000	99.716786
3264.000000	99.718748
3263.000000	99.720650
3262.000000	99.722499
3261.000000	99.724361
3260.000000	99.726271
3259.000000	99.728198
3258.000000	99.730076
3257.000000	99.731872
3256.000000	99.733610
3255.000000	99.735343
3254.000000	99.737096
3253.000000	99.738855
3252.000000	99.740591
3251.000000	99.742288
3250.000000	99.743978
3249.000000	99.745725
3248.000000	99.747576
3247.000000	99.749518
3246.000000	99.751438
3245.000000	99.753201
3244.000000	99.754766
3243.000000	99.756230
3242.000000	99.757746
3241.000000	99.759358
3240.000000	99.760998
3239.000000	99.762594
3238.000000	99.764156
3237.000000	99.765744
3236.000000	99.767378
3235.000000	99.769019
3234.000000	99.770660
3233.000000	99.772380
3232.000000	99.774255
3231.000000	99.776247
3230.000000	99.778203
3229.000000	99.779997
3228.000000	99.781621
3227.000000	99.783142
3226.000000	99.784609
3225.000000	99.786015
3224.000000	99.787393
3223.000000	99.788865
3222.000000	99.790532
3221.000000	99.792386
3220.000000	99.794344
3219.000000	99.796300
3218.000000	99.798163
3217.000000	99.799918
3216.000000	99.801659
3215.000000	99.803483
3214.000000	99.805349
3213.000000	99.807110
3212.000000	99.808731
3211.000000	99.810379
3210.000000	99.812210
3209.000000	99.814132
3208.000000	99.815880
3207.000000	99.817341
3206.000000	99.818706
3205.000000	99.820307
3204.000000	99.822321
3203.000000	99.824656
3202.000000	99.827008
3201.000000	99.829085
3200.000000	99.830869
3199.000000	99.832621
3198.000000	99.834589
3197.000000	99.836744
3196.000000	99.838916
3195.000000	99.841072
3194.000000	99.843235
3193.000000	99.845189
3192.000000	99.846557
3191.000000	99.847279
3190.000000	99.847825
3189.000000	99.848809
3188.000000	99.850454
3187.000000	99.852594
3186.000000	99.855066
3185.000000	99.857843
3184.000000	99.860823
3183.000000	99.863607
3182.000000	99.865731
3181.000000	99.867095
3180.000000	99.868116
3179.000000	99.869351
3178.000000	99.871027
3177.000000	99.873071
3176.000000	99.875491
3175.000000	99.878400
3174.000000	99.881642
3173.000000	99.884695
3172.000000	99.887166
3171.000000	99.889153
3170.000000	99.890965
3169.000000	99.892675
3168.000000	99.894177
3167.000000	99.895556
3166.000000	99.897088
3165.000000	99.898906
3164.000000	99.900911
3163.000000	99.902944
3162.000000	99.904873
3161.000000	99.906562
3160.000000	99.907964
3159.000000	99.909227
3158.000000	99.910586
3157.000000	99.912122
3156.000000	99.913716
3155.000000	99.915270
3154.000000	99.916879
3153.000000	99.918732
3152.000000	99.920879
3151.000000	99.923129
3150.000000	99.925177
3149.000000	99.926881
3148.000000	99.928374
3147.000000	99.929930
3146.000000	99.931695
3145.000000	99.933585
3144.000000	99.935446
3143.000000	99.937238
3142.000000	99.939043
3141.000000	99.940918
3140.000000	99.942809
3139.000000	99.944612
3138.000000	99.946297
3137.000000	99.947919
3136.000000	99.949541
3135.000000	99.951188
3134.000000	99.952864
3133.000000	99.954594
3132.000000	99.956413
3131.000000	99.958316
3130.000000	99.960255
3129.000000	99.962167
3128.000000	99.964016
3127.000000	99.965792
3126.000000	99.967516
3125.000000	99.969245
3124.000000	99.971024
3123.000000	99.972875
3122.000000	99.974779
3121.000000	99.976678
3120.000000	99.978498
3119.000000	99.980193
3118.000000	99.981788
3117.000000	99.983392
3116.000000	99.985227
3115.000000	99.987563
3114.000000	99.990467
3113.000000	99.993565
3112.000000	99.996229
3111.000000	99.998127
3110.000000	99.999429
3109.000000	100.000505
3108.000000	100.001577
3107.000000	100.002787
3106.000000	100.004303
3105.000000	100.006086
3104.000000	100.007744
3103.000000	100.008928
3102.000000	100.009822
3101.000000	100.011042
3100.000000	100.013074
3099.000000	100.015870
3098.000000	100.018944
3097.000000	100.021771
3096.000000	100.024131
3095.000000	100.026076
3094.000000	100.027559
3093.000000	100.028406
3092.000000	100.028940
3091.000000	100.030340
3090.000000	100.033701
3089.000000	100.038593
3088.000000	100.043088
3087.000000	100.045726
3086.000000	100.046902
3085.000000	100.047952
3084.000000	100.049318
3083.000000	100.050379
3082.000000	100.050856
3081.000000	100.051402
3080.000000	100.052559
3079.000000	100.053908
3078.000000	100.054759
3077.000000	100.055159
3076.000000	100.055608
3075.000000	100.055913
3074.000000	100.055055
3073.000000	100.052457
3072.000000	100.049086
3071.000000	100.046907
3070.000000	100.047199
3069.000000	100.049687
3068.000000	100.053158
3067.000000	100.056584
3066.000000	100.059530
3065.000000	100.061748
3064.000000	100.062921
3063.000000	100.062995
3062.000000	100.062514
3061.000000	100.062384
3060.000000	100.063210
3059.000000	100.064825
3058.000000	100.066401
3057.000000	100.067143
3056.000000	100.067069
3055.000000	100.067109
3054.000000	100.068234
3053.000000	100.070475
3052.000000	100.072885
3051.000000	100.074451
3050.000000	100.074980
3049.000000	100.074990
3048.000000	100.075013
3047.000000	100.075135
3046.000000	100.075205
3045.000000	100.075185
3044.000000	100.075182
3043.000000	100.075288
3042.000000	100.075504
3041.000000	100.075787
3040.000000	100.076104
3039.000000	100.076477
3038.000000	100.077013
3037.000000	100.077838
3036.000000	100.078877
3035.000000	100.079729
3034.000000	100.079929
3033.000000	100.079477
3032.000000	100.079077
3031.000000	100.079652
3030.000000	100.081483
3029.000000	100.083809
3028.000000	100.085371
3027.000000	100.085489
3026.000000	100.084602
3025.000000	100.083812
3024.000000	100.083874
3023.000000	100.084701
3022.000000	100.085674
3021.000000	100.086377
3020.000000	100.087165
3019.000000	100.088959
3018.000000	100.092058
3017.000000	100.095060
3016.000000	100.095688
3015.000000	100.093226
3014.000000	100.089759
3013.000000	100.088404
3012.000000	100.090410
3011.000000	100.094459
3010.000000	100.098235
3009.000000	100.099872
3008.000000	100.098391
3007.000000	100.094255
3006.000000	100.089706
3005.000000	100.087103
3004.000000	100.086266
3003.000000	100.084480
3002.000000	100.079895
3001.000000	100.074012
3000.000000	100.069865
2999.000000	100.068560
2998.000000	100.069037
2997.000000	100.070651
2996.000000	100.073953
2995.000000	100.078454
2994.000000	100.081453
2993.000000	100.080539
2992.000000	100.076326
2991.000000	100.071353
2990.000000	100.066928
2989.000000	100.062690
2988.000000	100.059092
2987.000000	100.058217
2986.000000	100.061170
2985.000000	100.065952
2984.000000	100.069178
2983.000000	100.069551
2982.000000	100.068499
2981.000000	100.067653
2980.000000	100.066959
2979.000000	100.065677
2978.000000	100.064358
2977.000000	100.065052
2976.000000	100.069578
2975.000000	100.077749
2974.000000	100.087225
2973.000000	100.095174
2972.000000	100.100465
2971.000000	100.104447
2970.000000	100.109754
2969.000000	100.118539
2968.000000	100.131639
2967.000000	100.148345
2966.000000	100.166114
2965.000000	100.181200
2964.000000	100.191097
2963.000000	100.196759
2962.000000	100.201708
2961.000000	100.208686
2960.000000	100.217729
2959.000000	100.227251
2958.000000	100.235575
2957.000000	100.241062
2956.000000	100.242578
2955.000000	100.241344
2954.000000	100.241307
2953.000000	100.245775
2952.000000	100.253824
2951.000000	100.261178
2950.000000	100.264552
2949.000000	100.264104
2948.000000	100.261970
2947.000000	100.260146
2946.000000	100.260240
2945.000000	100.263805
2944.000000	100.271634
2943.000000	100.282960
2942.000000	100.295804
2941.000000	100.307916
2940.000000	100.317658
2939.000000	100.325160
2938.000000	100.333022
2937.000000	100.344787
2936.000000	100.361818
2935.000000	100.382145
2934.000000	100.402775
2933.000000	100.422267
2932.000000	100.440565
2931.000000	100.457585
2930.000000	100.473247
2929.000000	100.488025
2928.000000	100.501804
2927.000000	100.512685
2926.000000	100.518616
2925.000000	100.519996
2924.000000	100.518994
2923.000000	100.516300
2922.000000	100.510534
2921.000000	100.501430
2920.000000	100.491447
2919.000000	100.482632
2918.000000	100.473041
2917.000000	100.458077
2916.000000	100.435271
2915.000000	100.407036
2914.000000	100.379220
2913.000000	100.357436
2912.000000	100.343819
2911.000000	100.335970
2910.000000	100.328876
2909.000000	100.318899
2908.000000	100.306492
2907.000000	100.294781
2906.000000	100.285870
2905.000000	100.279234
2904.000000	100.273427
2903.000000	100.268008
2902.000000	100.263277
2901.000000	100.259103
2900.000000	100.255007
2899.000000	100.251030
2898.000000	100.247560
2897.000000	100.244276
2896.000000	100.240102
2895.000000	100.234692
2894.000000	100.229363
2893.000000	100.225650
2892.000000	100.222979
2891.000000	100.218807
2890.000000	100.211923
2889.000000	100.205140
2888.000000	100.203381
2887.000000	100.208663
2886.000000	100.217753
2885.000000	100.225269
2884.000000	100.228672
2883.000000	100.229639
2882.000000	100.231145
2881.000000	100.234229
2880.000000	100.237412
2879.000000	100.238317
2878.000000	100.235925
2877.000000	100.232240
2876.000000	100.231747
2875.000000	100.238017
2874.000000	100.250174
2873.000000	100.263192
2872.000000	100.272317
2871.000000	100.276912
2870.000000	100.279543
2869.000000	100.282249
2868.000000	100.284711
2867.000000	100.285819
2866.000000	100.286041
2865.000000	100.287791
2864.000000	100.293646
2863.000000	100.304335
2862.000000	100.318365
2861.000000	100.333510
2860.000000	100.348483
2859.000000	100.362951
2858.000000	100.376474
2857.000000	100.388386
2856.000000	100.398690
2855.000000	100.407835
2854.000000	100.414956
2853.000000	100.417325
2852.000000	100.412510
2851.000000	100.400698
2850.000000	100.384258
2849.000000	100.365587
2848.000000	100.346174
2847.000000	100.327299
2846.000000	100.310399
2845.000000	100.296531
2844.000000	100.286192
2843.000000	100.279650
2842.000000	100.276706
2841.000000	100.276141
2840.000000	100.276261
2839.000000	100.276118
2838.000000	100.275463
2837.000000	100.273608
2836.000000	100.269559
2835.000000	100.263713
2834.000000	100.258226
2833.000000	100.254771
2832.000000	100.252730
2831.000000	100.250615
2830.000000	100.248683
2829.000000	100.248622
2828.000000	100.250604
2827.000000	100.252156
2826.000000	100.250790
2825.000000	100.247034
2824.000000	100.243753
2823.000000	100.242757
2822.000000	100.243178
2821.000000	100.243424
2820.000000	100.243606
2819.000000	100.244910
2818.000000	100.247052
2817.000000	100.247930
2816.000000	100.246382
2815.000000	100.244210
2814.000000	100.244380
2813.000000	100.247811
2812.000000	100.252920
2811.000000	100.257908
2810.000000	100.262221
2809.000000	100.265604
2808.000000	100.267085
2807.000000	100.265798
2806.000000	100.262378
2805.000000	100.258952
2804.000000	100.257655
2803.000000	100.259303
2802.000000	100.263163
2801.000000	100.267531
2800.000000	100.270724
2799.000000	100.272017
2798.000000	100.271847
2797.000000	100.271221
2796.000000	100.270950
2795.000000	100.271267
2794.000000	100.271915
2793.000000	100.272496
2792.000000	100.272962
2791.000000	100.273808
2790.000000	100.275524
2789.000000	100.277860
2788.000000	100.279935
2787.000000	100.281175
2786.000000	100.281811
2785.000000	100.282385
2784.000000	100.283116
2783.000000	100.283874
2782.000000	100.284564
2781.000000	100.285264
2780.000000	100.286074
2779.000000	100.287003
2778.000000	100.287986
2777.000000	100.288947
2776.000000	100.289857
2775.000000	100.290735
2774.000000	100.291610
2773.000000	100.292490
2772.000000	100.293360
2771.000000	100.294207
2770.000000	100.295019
2769.000000	100.295798
2768.000000	100.296551
2767.000000	100.297293
2766.000000	100.298033
2765.000000	100.298765
2764.000000	100.299477
2763.000000	100.300167
2762.000000	100.300840
2761.000000	100.301503
2760.000000	100.302165
2759.000000	100.302834
2758.000000	100.303510
2757.000000	100.304187
2756.000000	100.304857
2755.000000	100.305511
2754.000000	100.306144
2753.000000	100.306761
2752.000000	100.307369
2751.000000	100.307974
2750.000000	100.308583
2749.000000	100.309193
2748.000000	100.309802
2747.000000	100.310402
2746.000000	100.310987
2745.000000	100.311558
2744.000000	100.312125
2743.000000	100.312693
2742.000000	100.313266
2741.000000	100.313836
2740.000000	100.314396
2739.000000	100.314944
2738.000000	100.315484
2737.000000	100.316022
2736.000000	100.316564
2735.000000	100.317114
2734.000000	100.317676
2733.000000	100.318247
2732.000000	100.318825
2731.000000	100.319404
2730.000000	100.319980
2729.000000	100.320549
2728.000000	100.321114
2727.000000	100.321675
2726.000000	100.322231
2725.000000	100.322773
2724.000000	100.323295
2723.000000	100.323799
2722.000000	100.324294
2721.000000	100.324793
2720.000000	100.325302
2719.000000	100.325814
2718.000000	100.326320
2717.000000	100.326811
2716.000000	100.327286
2715.000000	100.327750
2714.000000	100.328210
2713.000000	100.328672
2712.000000	100.329138
2711.000000	100.329606
2710.000000	100.330070
2709.000000	100.330526
2708.000000	100.330974
2707.000000	100.331416
2706.000000	100.331855
2705.000000	100.332311
2704.000000	100.332797
2703.000000	100.333300
2702.000000	100.333803
2701.000000	100.334307
2700.000000	100.334807
2699.000000	100.335267
2698.000000	100.335645
2697.000000	100.335944
2696.000000	100.336225
2695.000000	100.336566
2694.000000	100.337005
2693.000000	100.337532
2692.000000	100.338077
2691.000000	100.338513
2690.000000	100.338696
2689.000000	100.338570
2688.000000	100.338294
2687.000000	100.338160
2686.000000	100.338302
2685.000000	100.338560
2684.000000	100.338682
2683.000000	100.338674
2682.000000	100.338798
2681.000000	100.339237
2680.000000	100.339887
2679.000000	100.340538
2678.000000	100.341147
2677.000000	100.341790
2676.000000	100.342441
2675.000000	100.342934
2674.000000	100.343170
2673.000000	100.343276
2672.000000	100.343472
2671.000000	100.343805
2670.000000	100.344103
2669.000000	100.344230
2668.000000	100.344283
2667.000000	100.344446
2666.000000	100.344729
2665.000000	100.344961
2664.000000	100.345054
2663.000000	100.345134
2662.000000	100.345344
2661.000000	100.345638
2660.000000	100.345840
2659.000000	100.345834
2658.000000	100.345618
2657.000000	100.345248
2656.000000	100.344820
2655.000000	100.344498
2654.000000	100.344447
2653.000000	100.344706
2652.000000	100.345151
2651.000000	100.345554
2650.000000	100.345736
2649.000000	100.345670
2648.000000	100.345488
2647.000000	100.345419
2646.000000	100.345595
2645.000000	100.345965
2644.000000	100.346364
2643.000000	100.346680
2642.000000	100.346924
2641.000000	100.347129
2640.000000	100.347277
2639.000000	100.347332
2638.000000	100.347311
2637.000000	100.347271
2636.000000	100.347258
2635.000000	100.347283
2634.000000	100.347339
2633.000000	100.347409
2632.000000	100.347477
2631.000000	100.347537
2630.000000	100.347611
2629.000000	100.347723
2628.000000	100.347886
2627.000000	100.348089
2626.000000	100.348306
2625.000000	100.348490
2624.000000	100.348587
2623.000000	100.348595
2622.000000	100.348595
2621.000000	100.348674
2620.000000	100.348808
2619.000000	100.348903
2618.000000	100.348950
2617.000000	100.349064
2616.000000	100.349375
2615.000000	100.349919
2614.000000	100.350632
2613.000000	100.351359
2612.000000	100.351851
2611.000000	100.351902
2610.000000	100.351538
2609.000000	100.351033
2608.000000	100.350686
2607.000000	100.350662
2606.000000	100.351060
2605.000000	100.351884
2604.000000	100.352906
2603.000000	100.353691
2602.000000	100.353919
2601.000000	100.353595
2600.000000	100.352943
2599.000000	100.352219
2598.000000	100.351674
2597.000000	100.351561
2596.000000	100.351996
2595.000000	100.352830
2594.000000	100.353762
2593.000000	100.354594
2592.000000	100.355295
2591.000000	100.355855
2590.000000	100.356189
2589.000000	100.356172
2588.000000	100.355711
2587.000000	100.354780
2586.000000	100.353492
2585.000000	100.352205
2584.000000	100.351483
2583.000000	100.351785
2582.000000	100.353096
2581.000000	100.354842
2580.000000	100.356294
2579.000000	100.357199
2578.000000	100.357879
2577.000000	100.358690
2576.000000	100.359480
2575.000000	100.359775
2574.000000	100.359458
2573.000000	100.358988
2572.000000	100.358834
2571.000000	100.358864
2570.000000	100.358556
2569.000000	100.357713
2568.000000	100.356794
2567.000000	100.356513
2566.000000	100.357137
2565.000000	100.358313
2564.000000	100.359350
2563.000000	100.359843
2562.000000	100.359932
2561.000000	100.359999
2560.000000	100.360194
2559.000000	100.360332
2558.000000	100.360247
2557.000000	100.360045
2556.000000	100.359941
2555.000000	100.360012
2554.000000	100.360215
2553.000000	100.360533
2552.000000	100.360960
2551.000000	100.361399
2550.000000	100.361706
2549.000000	100.361830
2548.000000	100.361827
2547.000000	100.361750
2546.000000	100.361624
2545.000000	100.361516
2544.000000	100.361540
2543.000000	100.361724
2542.000000	100.361951
2541.000000	100.362097
2540.000000	100.362175
2539.000000	100.362294
2538.000000	100.362504
2537.000000	100.362743
2536.000000	100.362909
2535.000000	100.362945
2534.000000	100.362864
2533.000000	100.362768
2532.000000	100.362826
2531.000000	100.363110
2530.000000	100.363473
2529.000000	100.363711
2528.000000	100.363898
2527.000000	100.364363
2526.000000	100.365260
2525.000000	100.366297
2524.000000	100.367049
2523.000000	100.367400
2522.000000	100.367509
2521.000000	100.367453
2520.000000	100.367198
2519.000000	100.366893
2518.000000	100.366904
2517.000000	100.367513
2516.000000	100.368658
2515.000000	100.369905
2514.000000	100.370693
2513.000000	100.370686
2512.000000	100.369966
2511.000000	100.369008
2510.000000	100.368309
2509.000000	100.368065
2508.000000	100.368268
2507.000000	100.368929
2506.000000	100.370023
2505.000000	100.371356
2504.000000	100.372696
2503.000000	100.373964
2502.000000	100.375112
2501.000000	100.375956
2500.000000	100.376384
2499.000000	100.376621
2498.000000	100.377062
2497.000000	100.377842
2496.000000	100.378780
2495.000000	100.379679
2494.000000	100.380460
2493.000000	100.381051
2492.000000	100.381427
2491.000000	100.381831
2490.000000	100.382660
2489.000000	100.384024
2488.000000	100.385535
2487.000000	100.386627
2486.000000	100.387022
2485.000000	100.386888
2484.000000	100.386766
2483.000000	100.387233
2482.000000	100.388361
2481.000000	100.389527
2480.000000	100.390041
2479.000000	100.389930
2478.000000	100.389855
2477.000000	100.390252
2476.000000	100.390872
2475.000000	100.391268
2474.000000	100.391328
2473.000000	100.391181
2472.000000	100.390957
2471.000000	100.390927
2470.000000	100.391485
2469.000000	100.392686
2468.000000	100.394120
2467.000000	100.395408
2466.000000	100.396566
2465.000000	100.397729
2464.000000	100.398779
2463.000000	100.399461
2462.000000	100.399734
2461.000000	100.399820
2460.000000	100.399969
2459.000000	100.400305
2458.000000	100.400817
2457.000000	100.401319
2456.000000	100.401541
2455.000000	100.401452
2454.000000	100.401410
2453.000000	100.401776
2452.000000	100.402523
2451.000000	100.403398
2450.000000	100.404350
2449.000000	100.405541
2448.000000	100.407023
2447.000000	100.408609
2446.000000	100.409987
2445.000000	100.410826
2444.000000	100.410946
2443.000000	100.410630
2442.000000	100.410605
2441.000000	100.411316
2440.000000	100.412397
2439.000000	100.413157
2438.000000	100.413517
2437.000000	100.413987
2436.000000	100.414731
2435.000000	100.415204
2434.000000	100.414961
2433.000000	100.414398
2432.000000	100.414345
2431.000000	100.415108
2430.000000	100.416328
2429.000000	100.417535
2428.000000	100.418591
2427.000000	100.419544
2426.000000	100.420373
2425.000000	100.421033
2424.000000	100.421542
2423.000000	100.421925
2422.000000	100.422135
2421.000000	100.422075
2420.000000	100.421710
2419.000000	100.421178
2418.000000	100.420765
2417.000000	100.420692
2416.000000	100.420920
2415.000000	100.421223
2414.000000	100.421477
2413.000000	100.421787
2412.000000	100.422297
2411.000000	100.422930
2410.000000	100.423390
2409.000000	100.423377
2408.000000	100.422790
2407.000000	100.421830
2406.000000	100.420949
2405.000000	100.420525
2404.000000	100.420545
2403.000000	100.420654
2402.000000	100.420565
2401.000000	100.420367
2400.000000	100.420328
2399.000000	100.420539
2398.000000	100.420840
2397.000000	100.421029
2396.000000	100.421021
2395.000000	100.420853
2394.000000	100.420667
2393.000000	100.420608
2392.000000	100.420602
2391.000000	100.420265
2390.000000	100.419245
2389.000000	100.417703
2388.000000	100.416403
2387.000000	100.416069
2386.000000	100.416706
2385.000000	100.417533
2384.000000	100.417701
2383.000000	100.417120
2382.000000	100.416456
2381.000000	100.416425
2380.000000	100.417195
2379.000000	100.418448
2378.000000	100.419720
2377.000000	100.420577
2376.000000	100.420704
2375.000000	100.420103
2374.000000	100.419204
2373.000000	100.418411
2372.000000	100.417556
2371.000000	100.416175
2370.000000	100.414346
2369.000000	100.412824
2368.000000	100.412254
2367.000000	100.412672
2366.000000	100.413781
2365.000000	100.415202
2364.000000	100.416634
2363.000000	100.417996
2362.000000	100.419399
2361.000000	100.420922
2360.000000	100.422072
2359.000000	100.422137
2358.000000	100.421216
2357.000000	100.420120
2356.000000	100.419620
2355.000000	100.419771
2354.000000	100.420353
2353.000000	100.421156
2352.000000	100.421725
2351.000000	100.421792
2350.000000	100.421536
2349.000000	100.421500
2348.000000	100.421979
2347.000000	100.422582
2346.000000	100.422826
2345.000000	100.422561
2344.000000	100.422350
2343.000000	100.422754
2342.000000	100.423728
2341.000000	100.424808
2340.000000	100.425557
2339.000000	100.426047
2338.000000	100.426530
2337.000000	100.427082
2336.000000	100.427421
2335.000000	100.427344
2334.000000	100.426939
2333.000000	100.426578
2332.000000	100.426465
2331.000000	100.426629
2330.000000	100.426916
2329.000000	100.427265
2328.000000	100.427693
2327.000000	100.428191
2326.000000	100.428714
2325.000000	100.429171
2324.000000	100.429518
2323.000000	100.429761
2322.000000	100.429955
2321.000000	100.430177
2320.000000	100.430446
2319.000000	100.430714
2318.000000	100.430906
2317.000000	100.431034
2316.000000	100.431183
2315.000000	100.431446
2314.000000	100.431826
2313.000000	100.432247
2312.000000	100.432564
2311.000000	100.432695
2310.000000	100.432644
2309.000000	100.432517
2308.000000	100.432437
2307.000000	100.432447
2306.000000	100.432483
2305.000000	100.432498
2304.000000	100.432545
2303.000000	100.432765
2302.000000	100.433183
2301.000000	100.433613
2300.000000	100.433752
2299.000000	100.433487
2298.000000	100.433001
2297.000000	100.432621
2296.000000	100.432503
2295.000000	100.432557
2294.000000	100.432612
2293.000000	100.432552
2292.000000	100.432324
2291.000000	100.431946
2290.000000	100.431610
2289.000000	100.431571
2288.000000	100.431877
2287.000000	100.432238
2286.000000	100.432371
2285.000000	100.432298
2284.000000	100.432197
2283.000000	100.432070
2282.000000	100.431823
2281.000000	100.431546
2280.000000	100.431375
2279.000000	100.431131
2278.000000	100.430383
2277.000000	100.428924
2276.000000	100.426905
2275.000000	100.424713
2274.000000	100.422883
2273.000000	100.421946
2272.000000	100.422026
2271.000000	100.422509
2270.000000	100.422519
2269.000000	100.421851
2268.000000	100.421073
2267.000000	100.420737
2266.000000	100.420833
2265.000000	100.421014
2264.000000	100.420987
2263.000000	100.420595
2262.000000	100.419849
2261.000000	100.419037
2260.000000	100.418591
2259.000000	100.418595
2258.000000	100.418598
2257.000000	100.418111
2256.000000	100.417178
2255.000000	100.416280
2254.000000	100.415711
2253.000000	100.415298
2252.000000	100.414750
2251.000000	100.414077
2250.000000	100.413527
2249.000000	100.413210
2248.000000	100.412946
2247.000000	100.412524
2246.000000	100.412000
2245.000000	100.411624
2244.000000	100.411509
2243.000000	100.411502
2242.000000	100.411386
2241.000000	100.411110
2240.000000	100.410756
2239.000000	100.410390
2238.000000	100.410040
2237.000000	100.409785
2236.000000	100.409729
2235.000000	100.409876
2234.000000	100.410082
2233.000000	100.410178
2232.000000	100.410118
2231.000000	100.409976
2230.000000	100.409880
2229.000000	100.409932
2228.000000	100.410164
2227.000000	100.410520
2226.000000	100.410853
2225.000000	100.411043
2224.000000	100.411083
2223.000000	100.411065
2222.000000	100.411080
2221.000000	100.411137
2220.000000	100.411193
2219.000000	100.411226
2218.000000	100.411266
2217.000000	100.411355
2216.000000	100.411516
2215.000000	100.411754
2214.000000	100.412075
2213.000000	100.412468
2212.000000	100.412878
2211.000000	100.413218
2210.000000	100.413439
2209.000000	100.413574
2208.000000	100.413711
2207.000000	100.413908
2206.000000	100.414152
2205.000000	100.414393
2204.000000	100.414608
2203.000000	100.414818
2202.000000	100.415079
2201.000000	100.415437
2200.000000	100.415889
2199.000000	100.416358
2198.000000	100.416728
2197.000000	100.416947
2196.000000	100.417046
2195.000000	100.417101
2194.000000	100.417172
2193.000000	100.417290
2192.000000	100.417471
2191.000000	100.417709
2190.000000	100.417961
2189.000000	100.418194
2188.000000	100.418436
2187.000000	100.418736
2186.000000	100.419063
2185.000000	100.419295
2184.000000	100.419337
2183.000000	100.419203
2182.000000	100.418997
2181.000000	100.418849
2180.000000	100.418887
2179.000000	100.419224
2178.000000	100.419900
2177.000000	100.420803
2176.000000	100.421637
2175.000000	100.422044
2174.000000	100.421871
2173.000000	100.421349
2172.000000	100.420955
2171.000000	100.420989
2170.000000	100.421302
2169.000000	100.421482
2168.000000	100.421267
2167.000000	100.420789
2166.000000	100.420453
2165.000000	100.420593
2164.000000	100.421202
2163.000000	100.421894
2162.000000	100.422214
2161.000000	100.422066
2160.000000	100.421800
2159.000000	100.421835
2158.000000	100.422194
2157.000000	100.422483
2156.000000	100.422305
2155.000000	100.421590
2154.000000	100.420555
2153.000000	100.419466
2152.000000	100.418496
2151.000000	100.417814
2150.000000	100.417646
2149.000000	100.418137
2148.000000	100.419165
2147.000000	100.420393
2146.000000	100.421525
2145.000000	100.422437
2144.000000	100.423048
2143.000000	100.423255
2142.000000	100.423086
2141.000000	100.422838
2140.000000	100.422900
2139.000000	100.423427
2138.000000	100.424235
2137.000000	100.424967
2136.000000	100.425333
2135.000000	100.425312
2134.000000	100.425221
2133.000000	100.425522
2132.000000	100.426387
2131.000000	100.427498
2130.000000	100.428320
2129.000000	100.428655
2128.000000	100.428766
2127.000000	100.429029
2126.000000	100.429526
2125.000000	100.430126
2124.000000	100.430767
2123.000000	100.431464
2122.000000	100.432090
2121.000000	100.432412
2120.000000	100.432382
2119.000000	100.432298
2118.000000	100.432561
2117.000000	100.433294
2116.000000	100.434239
2115.000000	100.434997
2114.000000	100.435414
2113.000000	100.435728
2112.000000	100.436295
2111.000000	100.437209
2110.000000	100.438259
2109.000000	100.439241
2108.000000	100.440168
2107.000000	100.441104
2106.000000	100.441946
2105.000000	100.442528
2104.000000	100.442920
2103.000000	100.443499
2102.000000	100.444598
2101.000000	100.446144
2100.000000	100.447707
2099.000000	100.448943
2098.000000	100.449874
2097.000000	100.450686
2096.000000	100.451346
2095.000000	100.451545
2094.000000	100.451130
2093.000000	100.450602
2092.000000	100.450873
2091.000000	100.452353
2090.000000	100.454455
2089.000000	100.456210
2088.000000	100.457364
2087.000000	100.458350
2086.000000	100.459336
2085.000000	100.459920
2084.000000	100.459842
2083.000000	100.459447
2082.000000	100.459172
2081.000000	100.459056
2080.000000	100.459081
2079.000000	100.459533
2078.000000	100.460560
2077.000000	100.461634
2076.000000	100.461980
2075.000000	100.461433
2074.000000	100.460517
2073.000000	100.459762
2072.000000	100.459287
2071.000000	100.459055
2070.000000	100.459126
2069.000000	100.459525
2068.000000	100.460120
2067.000000	100.460824
2066.000000	100.461775
2065.000000	100.463148
2064.000000	100.464726
2063.000000	100.465778
2062.000000	100.465522
2061.000000	100.463744
2060.000000	100.460992
2059.000000	100.458271
2058.000000	100.456366
2057.000000	100.455477
2056.000000	100.455400
2055.000000	100.455747
2054.000000	100.456022
2053.000000	100.455773
2052.000000	100.454872
2051.000000	100.453583
2050.000000	100.452256
2049.000000	100.451024
2048.000000	100.449848
2047.000000	100.448716
2046.000000	100.447638
2045.000000	100.446545
2044.000000	100.445382
2043.000000	100.444260
2042.000000	100.443311
2041.000000	100.442395
2040.000000	100.441142
2039.000000	100.439412
2038.000000	100.437566
2037.000000	100.436157
2036.000000	100.435372
2035.000000	100.434890
2034.000000	100.434230
2033.000000	100.433168
2032.000000	100.431732
2031.000000	100.429993
2030.000000	100.428063
2029.000000	100.426229
2028.000000	100.424860
2027.000000	100.424084
2026.000000	100.423629
2025.000000	100.423013
2024.000000	100.421900
2023.000000	100.420295
2022.000000	100.418553
2021.000000	100.417236
2020.000000	100.416746
2019.000000	100.416943
2018.000000	100.417057
2017.000000	100.416261
2016.000000	100.414337
2015.000000	100.411750
2014.000000	100.409147
2013.000000	100.406868
2012.000000	100.405013
2011.000000	100.403582
2010.000000	100.402431
2009.000000	100.401289
2008.000000	100.399999
2007.000000	100.398668
2006.000000	100.397430
2005.000000	100.396179
2004.000000	100.394715
2003.000000	100.393092
2002.000000	100.391606
2001.000000	100.390308
2000.000000	100.388781
1999.000000	100.386585
1998.000000	100.383872
1997.000000	100.381411
1996.000000	100.379945
1995.000000	100.379664
1994.000000	100.380258
1993.000000	100.381191
1992.000000	100.381896
1991.000000	100.381992
1990.000000	100.381547
1989.000000	100.381025
1988.000000	100.380850
1987.000000	100.381045
1986.000000	100.381314
1985.000000	100.381341
1984.000000	100.380904
1983.000000	100.379883
1982.000000	100.378404
1981.000000	100.376831
1980.000000	100.375384
1979.000000	100.373871
1978.000000	100.372150
1977.000000	100.370784
1976.000000	100.370680
1975.000000	100.371940
1974.000000	100.373427
1973.000000	100.373829
1972.000000	100.373108
1971.000000	100.372467
1970.000000	100.373010
1969.000000	100.374720
1968.000000	100.376634
1967.000000	100.377789
1966.000000	100.377941
1965.000000	100.377408
1964.000000	100.376475
1963.000000	100.375139
1962.000000	100.373441
1961.000000	100.371815
1960.000000	100.370884
1959.000000	100.370878
1958.000000	100.371428
1957.000000	100.372009
1956.000000	100.372536
1955.000000	100.373306
1954.000000	100.374382
1953.000000	100.375308
1952.000000	100.375550
1951.000000	100.375084
1950.000000	100.374427
1949.000000	100.374161
1948.000000	100.374465
1947.000000	100.375033
1946.000000	100.375262
1945.000000	100.374523
1944.000000	100.372395
1943.000000	100.368936
1942.000000	100.364998
1941.000000	100.362085
1940.000000	100.361440
1939.000000	100.363171
1938.000000	100.366069
1937.000000	100.368300
1936.000000	100.368661
1935.000000	100.367210
1934.000000	100.364823
1933.000000	100.362453
1932.000000	100.360689
1931.000000	100.359767
1930.000000	100.359699
1929.000000	100.360286
1928.000000	100.361145
1927.000000	100.361600
1926.000000	100.360839
1925.000000	100.358443
1924.000000	100.355083
1923.000000	100.352499
1922.000000	100.352045
1921.000000	100.353322
1920.000000	100.354678
1919.000000	100.354701
1918.000000	100.353087
1917.000000	100.350347
1916.000000	100.346960
1915.000000	100.342916
1914.000000	100.337904
1913.000000	100.331776
1912.000000	100.324918
1911.000000	100.318349
1910.000000	100.313211
1909.000000	100.309727
1908.000000	100.307085
1907.000000	100.304708
1906.000000	100.303272
1905.000000	100.303524
1904.000000	100.304321
1903.000000	100.302925
1902.000000	100.297602
1901.000000	100.289405
1900.000000	100.281202
1899.000000	100.275151
1898.000000	100.271661
1897.000000	100.270121
1896.000000	100.269771
1895.000000	100.270043
1894.000000	100.270514
1893.000000	100.270603
1892.000000	100.269276
1891.000000	100.265483
1890.000000	100.259554
1889.000000	100.253856
1888.000000	100.250813
1887.000000	100.250429
1886.000000	100.250578
1885.000000	100.249282
1884.000000	100.246471
1883.000000	100.243793
1882.000000	100.242860
1881.000000	100.243647
1880.000000	100.244390
1879.000000	100.243021
1878.000000	100.239089
1877.000000	100.234384
1876.000000	100.231366
1875.000000	100.231074
1874.000000	100.232707
1873.000000	100.234815
1872.000000	100.236599
1871.000000	100.238222
1870.000000	100.240135
1869.000000	100.241888
1868.000000	100.241914
1867.000000	100.239666
1866.000000	100.237030
1865.000000	100.236663
1864.000000	100.239494
1863.000000	100.243930
1862.000000	100.247461
1861.000000	100.249110
1860.000000	100.249969
1859.000000	100.251396
1858.000000	100.253445
1857.000000	100.255346
1856.000000	100.256971
1855.000000	100.259328
1854.000000	100.263718
1853.000000	100.270289
1852.000000	100.277611
1851.000000	100.283655
1850.000000	100.287352
1849.000000	100.289323
1848.000000	100.291068
1847.000000	100.293653
1846.000000	100.297349
1845.000000	100.301896
1844.000000	100.306130
1843.000000	100.308403
1842.000000	100.308621
1841.000000	100.308378
1840.000000	100.309048
1839.000000	100.310404
1838.000000	100.311156
1837.000000	100.310694
1836.000000	100.309827
1835.000000	100.309469
1834.000000	100.309399
1833.000000	100.308939
1832.000000	100.308343
1831.000000	100.308783
1830.000000	100.310910
1829.000000	100.313678
1828.000000	100.315462
1827.000000	100.315492
1826.000000	100.314012
1825.000000	100.312417
1824.000000	100.312434
1823.000000	100.314311
1822.000000	100.316565
1821.000000	100.317542
1820.000000	100.316872
1819.000000	100.315492
1818.000000	100.314737
1817.000000	100.315498
1816.000000	100.317848
1815.000000	100.320869
1814.000000	100.322876
1813.000000	100.322675
1812.000000	100.320850
1811.000000	100.319506
1810.000000	100.319948
1809.000000	100.321081
1808.000000	100.320935
1807.000000	100.319009
1806.000000	100.316529
1805.000000	100.314986
1804.000000	100.314872
1803.000000	100.315805
1802.000000	100.317133
1801.000000	100.318230
1800.000000	100.318455
1799.000000	100.317505
1798.000000	100.315839
1797.000000	100.314486
1796.000000	100.314289
1795.000000	100.315230
1794.000000	100.316391
1793.000000	100.316910
1792.000000	100.317165
1791.000000	100.318459
1790.000000	100.321245
1789.000000	100.324543
1788.000000	100.326986
1787.000000	100.327937
1786.000000	100.327916
1785.000000	100.328189
1784.000000	100.329550
1783.000000	100.331637
1782.000000	100.333366
1781.000000	100.334246
1780.000000	100.335123
1779.000000	100.337383
1778.000000	100.341359
1777.000000	100.345701
1776.000000	100.348529
1775.000000	100.349027
1774.000000	100.348172
1773.000000	100.348506
1772.000000	100.352006
1771.000000	100.357962
1770.000000	100.364429
1769.000000	100.369848
1768.000000	100.373044
1767.000000	100.373752
1766.000000	100.372904
1765.000000	100.371815
1764.000000	100.371470
1763.000000	100.372968
1762.000000	100.377317
1761.000000	100.383859
1760.000000	100.390141
1759.000000	100.394134
1758.000000	100.395527
1757.000000	100.395769
1756.000000	100.397150
1755.000000	100.400659
1754.000000	100.405351
1753.000000	100.409619
1752.000000	100.412865
1751.000000	100.416393
1750.000000	100.422308
1749.000000	100.431022
1748.000000	100.440628
1747.000000	100.448589
1746.000000	100.453238
1745.000000	100.454041
1744.000000	100.451256
1743.000000	100.446241
1742.000000	100.441336
1741.000000	100.438380
1740.000000	100.437246
1739.000000	100.436515
1738.000000	100.435728
1737.000000	100.435789
1736.000000	100.437512
1735.000000	100.441212
1734.000000	100.445335
1733.000000	100.446429
1732.000000	100.444450
1731.000000	100.441320
1730.000000	100.437657
1729.000000	100.433506
1728.000000	100.429157
1727.000000	100.424806
1726.000000	100.420291
1725.000000	100.415920
1724.000000	100.412561
1723.000000	100.410768
1722.000000	100.410156
1721.000000	100.409661
1720.000000	100.408451
1719.000000	100.406700
1718.000000	100.405385
1717.000000	100.404146
1716.000000	100.402430
1715.000000	100.401243
1714.000000	100.401019
1713.000000	100.400258
1712.000000	100.396850
1711.000000	100.390207
1710.000000	100.382193
1709.000000	100.375838
1708.000000	100.372671
1707.000000	100.371374
1706.000000	100.369567
1705.000000	100.366568
1704.000000	100.363826
1703.000000	100.362264
1702.000000	100.360925
1701.000000	100.359197
1700.000000	100.357823
1699.000000	100.356807
1698.000000	100.355464
1697.000000	100.352805
1696.000000	100.348507
1695.000000	100.343884
1694.000000	100.340257
1693.000000	100.337256
1692.000000	100.333762
1691.000000	100.329397
1690.000000	100.324981
1689.000000	100.321700
1688.000000	100.320056
1687.000000	100.319096
1686.000000	100.317053
1685.000000	100.313823
1684.000000	100.311945
1683.000000	100.312926
1682.000000	100.315452
1681.000000	100.317526
1680.000000	100.318348
1679.000000	100.318251
1678.000000	100.317505
1677.000000	100.315815
1676.000000	100.313287
1675.000000	100.311356
1674.000000	100.311224
1673.000000	100.312274
1672.000000	100.312996
1671.000000	100.312453
1670.000000	100.310862
1669.000000	100.309118
1668.000000	100.307783
1667.000000	100.306685
1666.000000	100.305328
1665.000000	100.303388
1664.000000	100.301044
1663.000000	100.299205
1662.000000	100.298611
1661.000000	100.298788
1660.000000	100.298637
1659.000000	100.297634
1658.000000	100.296294
1657.000000	100.295618
1656.000000	100.295857
1655.000000	100.295778
1654.000000	100.293804
1653.000000	100.290166
1652.000000	100.287824
1651.000000	100.289153
1650.000000	100.292808
1649.000000	100.295848
1648.000000	100.295342
1647.000000	100.290261
1646.000000	100.284026
1645.000000	100.281191
1644.000000	100.281380
1643.000000	100.281127
1642.000000	100.278206
1641.000000	100.273397
1640.000000	100.269382
1639.000000	100.267383
1638.000000	100.266181
1637.000000	100.264455
1636.000000	100.263296
1635.000000	100.263696
1634.000000	100.264999
1633.000000	100.266718
1632.000000	100.268865
1631.000000	100.271044
1630.000000	100.272050
1629.000000	100.270862
1628.000000	100.268044
1627.000000	100.265021
1626.000000	100.261796
1625.000000	100.257381
1624.000000	100.252898
1623.000000	100.252025
1622.000000	100.256168
1621.000000	100.262244
1620.000000	100.266659
1619.000000	100.268316
1618.000000	100.268514
1617.000000	100.269521
1616.000000	100.271960
1615.000000	100.275304
1614.000000	100.279708
1613.000000	100.285544
1612.000000	100.293006
1611.000000	100.302120
1610.000000	100.312001
1609.000000	100.320866
1608.000000	100.327276
1607.000000	100.331308
1606.000000	100.333984
1605.000000	100.336022
1604.000000	100.337807
1603.000000	100.340266
1602.000000	100.344745
1601.000000	100.351238
1600.000000	100.357737
1599.000000	100.362401
1598.000000	100.365916
1597.000000	100.370681
1596.000000	100.377582
1595.000000	100.384562
1594.000000	100.389026
1593.000000	100.391048
1592.000000	100.393291
1591.000000	100.398369
1590.000000	100.406813
1589.000000	100.416719
1588.000000	100.424841
1587.000000	100.428666
1586.000000	100.428523
1585.000000	100.427705
1584.000000	100.429724
1583.000000	100.435099
1582.000000	100.441596
1581.000000	100.447445
1580.000000	100.453038
1579.000000	100.459103
1578.000000	100.464869
1577.000000	100.468989
1576.000000	100.471265
1575.000000	100.472753
1574.000000	100.474263
1573.000000	100.475285
1572.000000	100.475343
1571.000000	100.475590
1570.000000	100.478169
1569.000000	100.482517
1568.000000	100.485804
1567.000000	100.486823
1566.000000	100.486509
1565.000000	100.486524
1564.000000	100.488192
1563.000000	100.491476
1562.000000	100.495177
1561.000000	100.498192
1560.000000	100.502984
1559.000000	100.511890
1558.000000	100.515186
1557.000000	100.511720
1556.000000	100.507911
1555.000000	100.505783
1554.000000	100.505442
1553.000000	100.505938
1552.000000	100.506398
1551.000000	100.506539
1550.000000	100.507043
1549.000000	100.508311
1548.000000	100.509684
1547.000000	100.510236
1546.000000	100.509625
1545.000000	100.508543
1544.000000	100.508382
1543.000000	100.509810
1542.000000	100.512445
1541.000000	100.514349
1540.000000	100.511018
1539.000000	100.500881
1538.000000	100.490190
1537.000000	100.482846
1536.000000	100.476928
1535.000000	100.470371
1534.000000	100.464409
1533.000000	100.461708
1532.000000	100.461080
1531.000000	100.458955
1530.000000	100.454032
1529.000000	100.447707
1528.000000	100.441739
1527.000000	100.436402
1526.000000	100.431410
1525.000000	100.427791
1524.000000	100.426711
1523.000000	100.427316
1522.000000	100.427463
1521.000000	100.426176
1520.000000	100.425108
1519.000000	100.425795
1518.000000	100.427610
1517.000000	100.429419
1516.000000	100.430664
1515.000000	100.431379
1514.000000	100.431303
1513.000000	100.429853
1512.000000	100.427114
1511.000000	100.424053
1510.000000	100.421039
1509.000000	100.417639
1508.000000	100.415096
1507.000000	100.417464
1506.000000	100.422633
1505.000000	100.424893
1504.000000	100.423900
1503.000000	100.421401
1502.000000	100.418504
1501.000000	100.415845
1500.000000	100.413462
1499.000000	100.411171
1498.000000	100.409621
1497.000000	100.410496
1496.000000	100.414126
1495.000000	100.418756
1494.000000	100.422928
1493.000000	100.426488
1492.000000	100.429531
1491.000000	100.431908
1490.000000	100.433269
1489.000000	100.432998
1488.000000	100.431006
1487.000000	100.428320
1486.000000	100.426421
1485.000000	100.425929
1484.000000	100.426492
1483.000000	100.427705
1482.000000	100.429973
1481.000000	100.433749
1480.000000	100.438206
1479.000000	100.442104
1478.000000	100.445549
1477.000000	100.449769
1476.000000	100.454509
1475.000000	100.457429
1474.000000	100.457572
1473.000000	100.458601
1472.000000	100.464319
1471.000000	100.472208
1470.000000	100.477492
1469.000000	100.479134
1468.000000	100.478928
1467.000000	100.478936
1466.000000	100.479907
1465.000000	100.481120
1464.000000	100.481444
1463.000000	100.480381
1462.000000	100.478206
1461.000000	100.475582
1460.000000	100.473093
1459.000000	100.470560
1458.000000	100.467307
1457.000000	100.464383
1456.000000	100.464536
1455.000000	100.468243
1454.000000	100.472806
1453.000000	100.475543
1452.000000	100.475330
1451.000000	100.472151
1450.000000	100.466202
1449.000000	100.458283
1448.000000	100.451171
1447.000000	100.448258
1446.000000	100.449691
1445.000000	100.452404
1444.000000	100.453552
1443.000000	100.452453
1442.000000	100.450228
1441.000000	100.448243
1440.000000	100.447087
1439.000000	100.446637
1438.000000	100.446667
1437.000000	100.446983
1436.000000	100.446613
1435.000000	100.444374
1434.000000	100.440420
1433.000000	100.435988
1432.000000	100.432686
1431.000000	100.431799
1430.000000	100.433185
1429.000000	100.435314
1428.000000	100.436661
1427.000000	100.436917
1426.000000	100.436649
1425.000000	100.436645
1424.000000	100.437246
1423.000000	100.437667
1422.000000	100.436927
1421.000000	100.435261
1420.000000	100.434460
1419.000000	100.436164
1418.000000	100.439187
1417.000000	100.441270
1416.000000	100.442068
1415.000000	100.442012
1414.000000	100.440966
1413.000000	100.438986
1412.000000	100.437284
1411.000000	100.437395
1410.000000	100.439509
1409.000000	100.442385
1408.000000	100.444704
1407.000000	100.445994
1406.000000	100.446644
1405.000000	100.448005
1404.000000	100.451706
1403.000000	100.457614
1402.000000	100.463539
1401.000000	100.467309
1400.000000	100.468606
1399.000000	100.469021
1398.000000	100.470135
1397.000000	100.472047
1396.000000	100.474191
1395.000000	100.476308
1394.000000	100.478158
1393.000000	100.479599
1392.000000	100.481198
1391.000000	100.483902
1390.000000	100.487981
1389.000000	100.492496
1388.000000	100.495832
1387.000000	100.497021
1386.000000	100.496470
1385.000000	100.495391
1384.000000	100.494962
1383.000000	100.495970
1382.000000	100.498448
1381.000000	100.501412
1380.000000	100.503556
1379.000000	100.504434
1378.000000	100.504583
1377.000000	100.504519
1376.000000	100.504139
1375.000000	100.503460
1374.000000	100.503360
1373.000000	100.504741
1372.000000	100.507124
1371.000000	100.508967
1370.000000	100.509228
1369.000000	100.508320
1368.000000	100.507725
1367.000000	100.508450
1366.000000	100.510027
1365.000000	100.511065
1364.000000	100.510519
1363.000000	100.508572
1362.000000	100.506624
1361.000000	100.505987
1360.000000	100.506760
1359.000000	100.508078
1358.000000	100.508943
1357.000000	100.508924
1356.000000	100.508338
1355.000000	100.507843
1354.000000	100.507870
1353.000000	100.508420
1352.000000	100.509241
1351.000000	100.510050
1350.000000	100.510614
1349.000000	100.510861
1348.000000	100.510943
1347.000000	100.510929
1346.000000	100.510391
1345.000000	100.508687
1344.000000	100.505912
1343.000000	100.503337
1342.000000	100.502564
1341.000000	100.504219
1340.000000	100.507337
1339.000000	100.510014
1338.000000	100.510963
1337.000000	100.510405
1336.000000	100.509570
1335.000000	100.509513
1334.000000	100.510067
1333.000000	100.509903
1332.000000	100.508080
1331.000000	100.505625
1330.000000	100.504905
1329.000000	100.507009
1328.000000	100.510486
1327.000000	100.513109
1326.000000	100.514068
1325.000000	100.513610
1324.000000	100.511644
1323.000000	100.508325
1322.000000	100.505576
1321.000000	100.505997
1320.000000	100.509442
1319.000000	100.512203
1318.000000	100.511086
1317.000000	100.507215
1316.000000	100.504192
1315.000000	100.503627
1314.000000	100.504324
1313.000000	100.505139
1312.000000	100.506569
1311.000000	100.509070
1310.000000	100.511459
1309.000000	100.512070
1308.000000	100.510724
1307.000000	100.509058
1306.000000	100.509151
1305.000000	100.511766
1304.000000	100.515250
1303.000000	100.516249
1302.000000	100.512587
1301.000000	100.505776
1300.000000	100.499931
1299.000000	100.497634
1298.000000	100.497841
1297.000000	100.498282
1296.000000	100.498423
1295.000000	100.498933
1294.000000	100.499425
1293.000000	100.498552
1292.000000	100.496048
1291.000000	100.493073
1290.000000	100.490251
1289.000000	100.486457
1288.000000	100.480105
1287.000000	100.471297
1286.000000	100.462551
1285.000000	100.457216
1284.000000	100.456585
1283.000000	100.458294
1282.000000	100.458586
1281.000000	100.456794
1280.000000	100.456130
1279.000000	100.458951
1278.000000	100.462910
1277.000000	100.463601
1276.000000	100.459659
1275.000000	100.453090
1274.000000	100.445825
1273.000000	100.438756
1272.000000	100.433695
1271.000000	100.432903
1270.000000	100.435729
1269.000000	100.438334
1268.000000	100.438027
1267.000000	100.436058
1266.000000	100.435159
1265.000000	100.435858
1264.000000	100.436381
1263.000000	100.435189
1262.000000	100.432538
1261.000000	100.429862
1260.000000	100.428004
1259.000000	100.425952
1258.000000	100.421808
1257.000000	100.415397
1256.000000	100.408878
1255.000000	100.403715
1254.000000	100.398126
1253.000000	100.389275
1252.000000	100.377155
1251.000000	100.364182
1250.000000	100.351456
1249.000000	100.337873
1248.000000	100.322850
1247.000000	100.307281
1246.000000	100.291161
1245.000000	100.272825
1244.000000	100.251918
1243.000000	100.231243
1242.000000	100.214100
1241.000000	100.200903
1240.000000	100.189655
1239.000000	100.178701
1238.000000	100.167860
1237.000000	100.157389
1236.000000	100.146673
1235.000000	100.134003
1234.000000	100.117782
1233.000000	100.098167
1232.000000	100.076737
1231.000000	100.053826
1230.000000	100.027235
1229.000000	99.994949
1228.000000	99.958162
1227.000000	99.919821
1226.000000	99.880713
1225.000000	99.838831
1224.000000	99.792159
1223.000000	99.739888
1222.000000	99.681192
1221.000000	99.615233
1220.000000	99.542705
1219.000000	99.465475
1218.000000	99.384743
1217.000000	99.301609
1216.000000	99.219150
1215.000000	99.141005
1214.000000	99.067164
1213.000000	98.993264
1212.000000	98.914224
1211.000000	98.826963
1210.000000	98.731252
1209.000000	98.631289
1208.000000	98.535155
1207.000000	98.448032
1206.000000	98.366092
1205.000000	98.281674
1204.000000	98.193823
1203.000000	98.108402
1202.000000	98.028369
1201.000000	97.950074
1200.000000	97.869756
1199.000000	97.787699
1198.000000	97.704713
1197.000000	97.620284
1196.000000	97.535919
1195.000000	97.454997
1194.000000	97.377239
1193.000000	97.297873
1192.000000	97.213740
1191.000000	97.125965
1190.000000	97.036154
1189.000000	96.945088
1188.000000	96.855695
1187.000000	96.771218
1186.000000	96.688956
1185.000000	96.601838
1184.000000	96.507662
1183.000000	96.410652
1182.000000	96.312538
1181.000000	96.209221
1180.000000	96.098972
1179.000000	95.986834
1178.000000	95.876765
1177.000000	95.765330
1176.000000	95.647433
1175.000000	95.523356
1174.000000	95.396577
1173.000000	95.269466
1172.000000	95.144369
1171.000000	95.023733
1170.000000	94.905725
1169.000000	94.784858
1168.000000	94.660499
1167.000000	94.540618
1166.000000	94.435334
1165.000000	94.352429
1164.000000	94.300588
1163.000000	94.288743
1162.000000	94.317098
1161.000000	94.373217
1160.000000	94.439391
1159.000000	94.499525
1158.000000	94.538904
1157.000000	94.545401
1156.000000	94.515204
1155.000000	94.453971
1154.000000	94.370716
1153.000000	94.273627
1152.000000	94.171494
1151.000000	94.072636
1150.000000	93.979665
1149.000000	93.889760
1148.000000	93.800842
1147.000000	93.712147
1146.000000	93.619501
1145.000000	93.518382
1144.000000	93.413217
1143.000000	93.315523
1142.000000	93.229762
1141.000000	93.147711
1140.000000	93.059145
1139.000000	92.961284
1138.000000	92.856222
1137.000000	92.746722
1136.000000	92.637245
1135.000000	92.532297
1134.000000	92.430990
1133.000000	92.328800
1132.000000	92.225240
1131.000000	92.123048
1130.000000	92.020269
1129.000000	91.911886
1128.000000	91.799497
1127.000000	91.689997
1126.000000	91.584039
1125.000000	91.475838
1124.000000	91.365199
1123.000000	91.258665
1122.000000	91.157059
1121.000000	91.053404
1120.000000	90.945732
1119.000000	90.840242
1118.000000	90.738675
1117.000000	90.634717
1116.000000	90.526388
1115.000000	90.420049
1114.000000	90.318305
1113.000000	90.216070
1112.000000	90.112454
1111.000000	90.013856
1110.000000	89.921234
1109.000000	89.826986
1108.000000	89.728166
1107.000000	89.630324
1106.000000	89.535050
1105.000000	89.437189
1104.000000	89.338101
1103.000000	89.247560
1102.000000	89.167634
1101.000000	89.087882
1100.000000	89.001259
1099.000000	88.911983
1098.000000	88.823664
1097.000000	88.733488
1096.000000	88.642909
1095.000000	88.560376
1094.000000	88.487740
1093.000000	88.416355
1092.000000	88.341690
1091.000000	88.270053
1090.000000	88.207069
1089.000000	88.151425
1088.000000	88.102413
1087.000000	88.060595
1086.000000	88.019108
1085.000000	87.968939
1084.000000	87.915362
1083.000000	87.874503
1082.000000	87.850787
1081.000000	87.832333
1080.000000	87.810594
1079.000000	87.788160
1078.000000	87.764469
1077.000000	87.731124
1076.000000	87.686014
1075.000000	87.635853
1074.000000	87.579958
1073.000000	87.507028
1072.000000	87.412231
1071.000000	87.301668
1070.000000	87.175621
1069.000000	87.023581
1068.000000	86.842070
1067.000000	86.642677
1066.000000	86.436502
1065.000000	86.224817
1064.000000	86.010881
1063.000000	85.805340
1062.000000	85.612544
1061.000000	85.425735
1060.000000	85.242226
1059.000000	85.069398
1058.000000	84.910138
1057.000000	84.756493
1056.000000	84.602791
1055.000000	84.451188
1054.000000	84.300498
1053.000000	84.144353
1052.000000	83.984074
1051.000000	83.826869
1050.000000	83.667505
1049.000000	83.491077
1048.000000	83.297738
1047.000000	83.104033
1046.000000	82.917372
1045.000000	82.729808
1044.000000	82.537690
1043.000000	82.346264
1042.000000	82.153434
1041.000000	81.950760
1040.000000	81.744295
1039.000000	81.552919
1038.000000	81.381240
1037.000000	81.215326
1036.000000	81.049969
1035.000000	80.898216
1034.000000	80.767857
1033.000000	80.650810
1032.000000	80.542569
1031.000000	80.450609
1030.000000	80.375672
1029.000000	80.304860
1028.000000	80.231061
1027.000000	80.160864
1026.000000	80.097233
1025.000000	80.033506
1024.000000	79.969906
1023.000000	79.916587
1022.000000	79.874685
1021.000000	79.832687
1020.000000	79.785548
1019.000000	79.738720
1018.000000	79.690654
1017.000000	79.631792
1016.000000	79.563939
1015.000000	79.500143
1014.000000	79.442967
1013.000000	79.384055
1012.000000	79.326894
1011.000000	79.286479
1010.000000	79.262859
1009.000000	79.238384
1008.000000	79.205416
1007.000000	79.173784
1006.000000	79.146862
1005.000000	79.115022
1004.000000	79.078881
1003.000000	79.054617
1002.000000	79.048062
1001.000000	79.045722
1000.000000	79.039210
999.000000	79.037504
998.000000	79.047178
997.000000	79.061183
996.000000	79.075189
995.000000	79.095750
994.000000	79.124804
993.000000	79.154190
992.000000	79.181574
991.000000	79.214325
990.000000	79.253427
989.000000	79.292361
988.000000	79.335566
987.000000	79.397905
986.000000	79.481600
985.000000	79.573732
984.000000	79.670526
983.000000	79.783368
982.000000	79.916168
981.000000	80.058237
980.000000	80.205577
979.000000	80.368873
978.000000	80.553599
977.000000	80.750984
976.000000	80.954353
975.000000	81.166572
974.000000	81.386571
973.000000	81.606944
972.000000	81.829728
971.000000	82.066257
970.000000	82.316418
969.000000	82.565740
968.000000	82.807689
967.000000	83.051153
966.000000	83.300812
965.000000	83.547528
964.000000	83.783869
963.000000	84.013110
962.000000	84.237545
961.000000	84.453321
960.000000	84.661870
959.000000	84.871502
958.000000	85.082449
957.000000	85.284256
956.000000	85.472446
955.000000	85.654112
954.000000	85.833243
953.000000	86.004190
952.000000	86.163566
951.000000	86.315090
950.000000	86.459284
949.000000	86.592043
948.000000	86.716701
947.000000	86.843332
946.000000	86.971807
945.000000	87.089147
944.000000	87.188018
943.000000	87.275296
942.000000	87.359424
941.000000	87.442277
940.000000	87.526984
939.000000	87.619886
938.000000	87.719578
937.000000	87.816221
936.000000	87.906090
935.000000	87.995756
934.000000	88.089452
933.000000	88.184411
932.000000	88.280821
931.000000	88.383122
930.000000	88.488619
929.000000	88.587991
928.000000	88.680137
927.000000	88.773932
926.000000	88.872655
925.000000	88.969385
924.000000	89.060032
923.000000	89.147736
922.000000	89.232375
921.000000	89.309770
920.000000	89.383985
919.000000	89.466064
918.000000	89.557136
917.000000	89.646645
916.000000	89.730387
915.000000	89.815669
914.000000	89.905109
913.000000	89.991334
912.000000	90.073799
911.000000	90.166203
910.000000	90.279774
909.000000	90.411801
908.000000	90.556268
907.000000	90.713130
906.000000	90.881493
905.000000	91.056864
904.000000	91.241669
903.000000	91.446005
902.000000	91.670959
901.000000	91.901680
900.000000	92.123252
899.000000	92.333985
898.000000	92.537885
897.000000	92.734525
896.000000	92.922520
895.000000	93.104517
894.000000	93.283030
893.000000	93.457799
892.000000	93.630379
891.000000	93.803915
890.000000	93.975888
889.000000	94.139016
888.000000	94.291471
887.000000	94.438151
886.000000	94.580840
885.000000	94.716973
884.000000	94.849909
883.000000	94.988992
882.000000	95.135067
881.000000	95.276447
880.000000	95.404808
879.000000	95.526522
878.000000	95.653641
877.000000	95.791419
876.000000	95.938244
875.000000	96.089006
874.000000	96.234959
873.000000	96.369457
872.000000	96.497136
871.000000	96.628877
870.000000	96.765693
869.000000	96.897432
868.000000	97.019607
867.000000	97.140644
866.000000	97.268690
865.000000	97.400968
864.000000	97.530558
863.000000	97.654157
862.000000	97.768315
861.000000	97.867894
860.000000	97.955244
859.000000	98.042993
858.000000	98.139628
857.000000	98.238255
856.000000	98.327367
855.000000	98.407069
854.000000	98.486619
853.000000	98.569912
852.000000	98.651651
851.000000	98.725643
850.000000	98.789284
849.000000	98.841108
848.000000	98.881183
847.000000	98.914675
846.000000	98.948793
845.000000	98.983278
844.000000	99.006738
843.000000	99.005115
842.000000	98.974367
841.000000	98.924769
840.000000	98.872128
839.000000	98.823932
838.000000	98.774840
837.000000	98.716713
836.000000	98.650135
835.000000	98.582288
834.000000	98.516834
833.000000	98.453936
832.000000	98.400506
831.000000	98.370940
830.000000	98.372586
829.000000	98.396510
828.000000	98.427184
827.000000	98.456192
826.000000	98.482882
825.000000	98.508171
824.000000	98.533555
823.000000	98.561124
822.000000	98.588442
821.000000	98.606535
820.000000	98.606637
819.000000	98.586257
818.000000	98.547189
817.000000	98.490794
816.000000	98.416021
815.000000	98.318201
814.000000	98.187921
813.000000	98.013635
812.000000	97.786686
811.000000	97.502370
810.000000	97.157185
809.000000	96.748577
808.000000	96.277040
807.000000	95.744932
806.000000	95.155886
805.000000	94.523884
804.000000	93.882958
803.000000	93.276757
802.000000	92.734413
801.000000	92.266185
800.000000	91.883294
799.000000	91.605396
798.000000	91.442988
797.000000	91.387883
796.000000	91.426243
795.000000	91.544334
794.000000	91.715443
793.000000	91.898954
792.000000	92.062859
791.000000	92.197134
790.000000	92.300638
789.000000	92.367228
788.000000	92.389636
787.000000	92.364159
786.000000	92.284470
785.000000	92.142261
784.000000	91.942715
783.000000	91.711253
782.000000	91.478098
781.000000	91.264592
780.000000	91.090229
779.000000	90.980531
778.000000	90.956250
777.000000	91.020537
776.000000	91.162235
775.000000	91.363960
774.000000	91.603333
773.000000	91.856405
772.000000	92.106136
771.000000	92.342848
770.000000	92.556514
769.000000	92.737278
768.000000	92.884659
767.000000	93.007160
766.000000	93.110337
765.000000	93.193248
764.000000	93.258892
763.000000	93.319522
762.000000	93.387692
761.000000	93.468087
760.000000	93.559706
759.000000	93.658782
758.000000	93.758647
757.000000	93.855016
756.000000	93.952907
755.000000	94.060593
754.000000	94.176138
753.000000	94.288431
752.000000	94.391898
751.000000	94.490751
750.000000	94.587754
749.000000	94.679031
748.000000	94.763252
747.000000	94.847698
746.000000	94.941815
745.000000	95.050994
744.000000	95.177657
743.000000	95.320858
742.000000	95.474064
741.000000	95.631200
740.000000	95.794550
739.000000	95.967581
738.000000	96.140670
737.000000	96.295421
736.000000	96.424909
735.000000	96.539075
734.000000	96.648226
733.000000	96.750751
732.000000	96.839540
731.000000	96.911008
730.000000	96.963948
729.000000	96.998139
728.000000	97.019829
727.000000	97.043041
726.000000	97.080316
725.000000	97.134714
724.000000	97.201532
723.000000	97.272747
722.000000	97.340415
721.000000	97.403815
720.000000	97.474576
719.000000	97.566316
718.000000	97.676308
717.000000	97.784685
716.000000	97.873854
715.000000	97.942384
714.000000	97.998952
713.000000	98.049868
712.000000	98.095242
711.000000	98.131459
710.000000	98.154674
709.000000	98.166371
708.000000	98.176045
707.000000	98.191774
706.000000	98.206527
705.000000	98.200323
704.000000	98.157040
703.000000	98.071667
702.000000	97.939507
701.000000	97.747434
700.000000	97.482087
699.000000	97.145461
698.000000	96.765368
697.000000	96.397457
696.000000	96.111739
695.000000	95.959943
694.000000	95.947914
693.000000	96.042691
692.000000	96.204571
691.000000	96.405286
690.000000	96.620698
689.000000	96.826386
688.000000	97.010597
687.000000	97.179007
686.000000	97.335176
685.000000	97.465898
684.000000	97.556377
683.000000	97.611866
682.000000	97.654618
681.000000	97.703846
680.000000	97.764981
679.000000	97.833585
678.000000	97.903298
677.000000	97.971264
676.000000	98.040576
675.000000	98.117742
674.000000	98.203383
673.000000	98.287726
672.000000	98.357701
671.000000	98.408040
670.000000	98.444520
669.000000	98.485372
668.000000	98.553322
667.000000	98.635680
666.000000	98.697844
665.000000	98.737255
664.000000	98.771726
663.000000	98.814634
662.000000	98.861074
661.000000	98.894776
660.000000	98.910834
659.000000	98.918378
658.000000	98.919871
657.000000	98.903276
656.000000	98.863228
655.000000	98.819096
654.000000	98.797862
653.000000	98.804836
652.000000	98.822967
651.000000	98.835417
650.000000	98.839686
649.000000	98.844231
648.000000	98.858625
647.000000	98.885836
646.000000	98.920434
645.000000	98.957458
644.000000	99.003485
643.000000	99.070807
642.000000	99.159241
641.000000	99.253472
640.000000	99.339205
639.000000	99.412775
638.000000	99.479866
637.000000	99.553743
636.000000	99.646900
635.000000	99.750970
634.000000	99.833716
633.000000	99.875234
632.000000	99.898278
631.000000	99.943734
630.000000	100.020949
629.000000	100.102083
628.000000	100.164394
627.000000	100.215384
626.000000	100.272759
625.000000	100.338955
624.000000	100.405768
623.000000	100.469231
622.000000	100.528547
621.000000	100.578631
620.000000	100.608506
619.000000	100.603580
618.000000	100.557611
617.000000	100.492275
616.000000	100.453864
615.000000	100.473350
614.000000	100.533882
613.000000	100.593117
612.000000	100.624878
611.000000	100.618823
610.000000	100.558596
609.000000	100.433563
608.000000	100.273509
607.000000	100.143402
606.000000	100.085437
605.000000	100.080923
604.000000	100.078267
603.000000	100.040488
602.000000	99.969647
601.000000	99.908729
600.000000	99.914602
599.000000	99.998747
598.000000	100.093922
597.000000	100.118296
596.000000	100.069693
595.000000	100.020885
594.000000	100.025417
593.000000	100.066273
592.000000	100.105756
591.000000	100.138758
590.000000	100.175655
589.000000	100.214610
588.000000	100.256152
587.000000	100.310759
586.000000	100.368440
585.000000	100.393680
584.000000	100.373848
583.000000	100.342350
582.000000	100.331451
581.000000	100.331629
580.000000	100.325802
579.000000	100.334843
578.000000	100.392530
577.000000	100.493738
576.000000	100.593511
575.000000	100.638396
574.000000	100.602622
573.000000	100.518447
572.000000	100.460890
571.000000	100.471298
570.000000	100.485761
569.000000	100.389300
568.000000	100.149769
567.000000	99.853321
566.000000	99.599534
565.000000	99.404683
564.000000	99.244268
563.000000	99.118222
562.000000	99.032298
561.000000	98.976103
560.000000	98.952278
559.000000	98.968670
558.000000	98.974219
557.000000	98.874449
556.000000	98.641295
555.000000	98.354812
554.000000	98.116137
553.000000	97.955772
552.000000	97.870308
551.000000	97.871705
550.000000	97.939383
