PE IR       SUBTECH     SPECTRUM    ASCII       PEDS        4.00        
   -1
BH1 8-1 1 45_1.asc
24/05/17
15:31:28.00
24/05/17
15:32:05.00
Administrator
?品 031 用? Administrator 日期 Friday, May 17 2024
550.000000
#HDR
-1
-1
#GR
cm-1
%T
1.0
0.0
4000.000000
-1.000000
3451
8
100.033097
88.720173
#DATA
4000.000000	99.742613
3999.000000	99.741190
3998.000000	99.739292
3997.000000	99.737424
3996.000000	99.735762
3995.000000	99.734070
3994.000000	99.732103
3993.000000	99.730034
3992.000000	99.728357
3991.000000	99.727333
3990.000000	99.726678
3989.000000	99.725859
3988.000000	99.724623
3987.000000	99.723155
3986.000000	99.721793
3985.000000	99.720727
3984.000000	99.719925
3983.000000	99.719187
3982.000000	99.718229
3981.000000	99.716818
3980.000000	99.714965
3979.000000	99.713081
3978.000000	99.711772
3977.000000	99.711331
3976.000000	99.711516
3975.000000	99.711696
3974.000000	99.711351
3973.000000	99.710377
3972.000000	99.709083
3971.000000	99.707933
3970.000000	99.707134
3969.000000	99.706537
3968.000000	99.705911
3967.000000	99.705227
3966.000000	99.704628
3965.000000	99.704133
3964.000000	99.703492
3963.000000	99.702421
3962.000000	99.700931
3961.000000	99.699376
3960.000000	99.698169
3959.000000	99.697446
3958.000000	99.696996
3957.000000	99.696525
3956.000000	99.695991
3955.000000	99.695619
3954.000000	99.695543
3953.000000	99.695559
3952.000000	99.695301
3951.000000	99.694648
3950.000000	99.693884
3949.000000	99.693415
3948.000000	99.693358
3947.000000	99.693466
3946.000000	99.693418
3945.000000	99.693175
3944.000000	99.692976
3943.000000	99.692999
3942.000000	99.693119
3941.000000	99.693073
3940.000000	99.692824
3939.000000	99.692679
3938.000000	99.692914
3937.000000	99.693353
3936.000000	99.693464
3935.000000	99.692857
3934.000000	99.691634
3933.000000	99.690259
3932.000000	99.689219
3931.000000	99.688856
3930.000000	99.689295
3929.000000	99.690362
3928.000000	99.691536
3927.000000	99.692248
3926.000000	99.692336
3925.000000	99.692139
3924.000000	99.691990
3923.000000	99.691797
3922.000000	99.691285
3921.000000	99.690331
3920.000000	99.689038
3919.000000	99.687881
3918.000000	99.687685
3917.000000	99.689004
3916.000000	99.691395
3915.000000	99.693677
3914.000000	99.695077
3913.000000	99.695687
3912.000000	99.695816
3911.000000	99.695535
3910.000000	99.694866
3909.000000	99.694193
3908.000000	99.694136
3907.000000	99.694976
3906.000000	99.696204
3905.000000	99.696609
3904.000000	99.695107
3903.000000	99.691413
3902.000000	99.686401
3901.000000	99.682022
3900.000000	99.680102
3899.000000	99.680804
3898.000000	99.682523
3897.000000	99.683641
3896.000000	99.684128
3895.000000	99.684909
3894.000000	99.686311
3893.000000	99.687893
3892.000000	99.689320
3891.000000	99.690814
3890.000000	99.692131
3889.000000	99.692710
3888.000000	99.692998
3887.000000	99.693935
3886.000000	99.695728
3885.000000	99.697446
3884.000000	99.697513
3883.000000	99.695632
3882.000000	99.693223
3881.000000	99.691795
3880.000000	99.692040
3879.000000	99.693350
3878.000000	99.694055
3877.000000	99.693108
3876.000000	99.690740
3875.000000	99.688096
3874.000000	99.686381
3873.000000	99.685663
3872.000000	99.685233
3871.000000	99.684773
3870.000000	99.684526
3869.000000	99.684401
3868.000000	99.683808
3867.000000	99.683181
3866.000000	99.683686
3865.000000	99.685289
3864.000000	99.686795
3863.000000	99.687299
3862.000000	99.686870
3861.000000	99.686056
3860.000000	99.685308
3859.000000	99.684975
3858.000000	99.685213
3857.000000	99.685824
3856.000000	99.686349
3855.000000	99.686441
3854.000000	99.686309
3853.000000	99.686320
3852.000000	99.686137
3851.000000	99.685510
3850.000000	99.684840
3849.000000	99.684432
3848.000000	99.684180
3847.000000	99.683888
3846.000000	99.683463
3845.000000	99.682935
3844.000000	99.682391
3843.000000	99.681911
3842.000000	99.681499
3841.000000	99.681119
3840.000000	99.680737
3839.000000	99.680343
3838.000000	99.679943
3837.000000	99.679549
3836.000000	99.679162
3835.000000	99.678782
3834.000000	99.678398
3833.000000	99.677999
3832.000000	99.677580
3831.000000	99.677141
3830.000000	99.676687
3829.000000	99.676224
3828.000000	99.675757
3827.000000	99.675293
3826.000000	99.674837
3825.000000	99.674386
3824.000000	99.673935
3823.000000	99.673479
3822.000000	99.673027
3821.000000	99.672596
3820.000000	99.672191
3819.000000	99.671800
3818.000000	99.671411
3817.000000	99.671024
3816.000000	99.670651
3815.000000	99.670304
3814.000000	99.669989
3813.000000	99.669703
3812.000000	99.669445
3811.000000	99.669201
3810.000000	99.668956
3809.000000	99.668700
3808.000000	99.668433
3807.000000	99.668159
3806.000000	99.667879
3805.000000	99.667592
3804.000000	99.667300
3803.000000	99.667018
3802.000000	99.666759
3801.000000	99.666523
3800.000000	99.666297
3799.000000	99.666066
3798.000000	99.665826
3797.000000	99.665584
3796.000000	99.665339
3795.000000	99.665087
3794.000000	99.664819
3793.000000	99.664536
3792.000000	99.664247
3791.000000	99.663968
3790.000000	99.663708
3789.000000	99.663462
3788.000000	99.663216
3787.000000	99.662959
3786.000000	99.662693
3785.000000	99.662430
3784.000000	99.662175
3783.000000	99.661918
3782.000000	99.661653
3781.000000	99.661379
3780.000000	99.661098
3779.000000	99.660808
3778.000000	99.660505
3777.000000	99.660186
3776.000000	99.659849
3775.000000	99.659489
3774.000000	99.659100
3773.000000	99.658677
3772.000000	99.658221
3771.000000	99.657739
3770.000000	99.657237
3769.000000	99.656718
3768.000000	99.656190
3767.000000	99.655664
3766.000000	99.655153
3765.000000	99.654659
3764.000000	99.654176
3763.000000	99.653696
3762.000000	99.653212
3761.000000	99.652719
3760.000000	99.652208
3759.000000	99.651673
3758.000000	99.651111
3757.000000	99.650527
3756.000000	99.649922
3755.000000	99.649292
3754.000000	99.648624
3753.000000	99.647918
3752.000000	99.647175
3751.000000	99.646395
3750.000000	99.645599
3749.000000	99.644784
3748.000000	99.643873
3747.000000	99.642797
3746.000000	99.641625
3745.000000	99.640579
3744.000000	99.639900
3743.000000	99.639363
3742.000000	99.638374
3741.000000	99.636870
3740.000000	99.635284
3739.000000	99.633769
3738.000000	99.632176
3737.000000	99.630487
3736.000000	99.628864
3735.000000	99.627296
3734.000000	99.625601
3733.000000	99.623840
3732.000000	99.622250
3731.000000	99.620678
3730.000000	99.618668
3729.000000	99.616142
3728.000000	99.613538
3727.000000	99.611330
3726.000000	99.609629
3725.000000	99.608058
3724.000000	99.606103
3723.000000	99.603521
3722.000000	99.600371
3721.000000	99.596954
3720.000000	99.593615
3719.000000	99.590653
3718.000000	99.588212
3717.000000	99.586177
3716.000000	99.584048
3715.000000	99.581148
3714.000000	99.576941
3713.000000	99.571139
3712.000000	99.564241
3711.000000	99.557751
3710.000000	99.553062
3709.000000	99.550482
3708.000000	99.549172
3707.000000	99.547572
3706.000000	99.544111
3705.000000	99.537923
3704.000000	99.529507
3703.000000	99.520906
3702.000000	99.514794
3701.000000	99.512273
3700.000000	99.511587
3699.000000	99.509980
3698.000000	99.506571
3697.000000	99.502535
3696.000000	99.498936
3695.000000	99.495331
3694.000000	99.490574
3693.000000	99.483998
3692.000000	99.475669
3691.000000	99.466763
3690.000000	99.459939
3689.000000	99.457725
3688.000000	99.459018
3687.000000	99.458755
3686.000000	99.453458
3685.000000	99.444883
3684.000000	99.437023
3683.000000	99.431705
3682.000000	99.428195
3681.000000	99.425527
3680.000000	99.423601
3679.000000	99.421333
3678.000000	99.415907
3677.000000	99.405229
3676.000000	99.391952
3675.000000	99.381786
3674.000000	99.374128
3673.000000	99.364073
3672.000000	99.350725
3671.000000	99.335960
3670.000000	99.322964
3669.000000	99.314047
3668.000000	99.306688
3667.000000	99.297457
3666.000000	99.285761
3665.000000	99.273054
3664.000000	99.261984
3663.000000	99.254875
3662.000000	99.251958
3661.000000	99.251029
3660.000000	99.248878
3659.000000	99.243163
3658.000000	99.234035
3657.000000	99.224267
3656.000000	99.217011
3655.000000	99.211397
3654.000000	99.203733
3653.000000	99.192817
3652.000000	99.179233
3651.000000	99.162600
3650.000000	99.143411
3649.000000	99.125358
3648.000000	99.112984
3647.000000	99.108136
3646.000000	99.108171
3645.000000	99.107865
3644.000000	99.103318
3643.000000	99.094295
3642.000000	99.083980
3641.000000	99.076085
3640.000000	99.071502
3639.000000	99.067741
3638.000000	99.061317
3637.000000	99.050429
3636.000000	99.036735
3635.000000	99.024596
3634.000000	99.017726
3633.000000	99.016339
3632.000000	99.018181
3631.000000	99.020730
3630.000000	99.021361
3629.000000	99.019400
3628.000000	99.015577
3627.000000	99.008457
3626.000000	98.999791
3625.000000	98.994932
3624.000000	98.995334
3623.000000	98.997936
3622.000000	98.998967
3621.000000	98.996206
3620.000000	98.989934
3619.000000	98.983725
3618.000000	98.982054
3617.000000	98.986135
3616.000000	98.993733
3615.000000	99.001738
3614.000000	99.008724
3613.000000	99.015978
3612.000000	99.025220
3611.000000	99.035323
3610.000000	99.042267
3609.000000	99.043002
3608.000000	99.039520
3607.000000	99.037594
3606.000000	99.041082
3605.000000	99.048822
3604.000000	99.056411
3603.000000	99.060048
3602.000000	99.059128
3601.000000	99.055613
3600.000000	99.051704
3599.000000	99.048924
3598.000000	99.048970
3597.000000	99.052927
3596.000000	99.059446
3595.000000	99.064914
3594.000000	99.066425
3593.000000	99.064127
3592.000000	99.060671
3591.000000	99.058702
3590.000000	99.058908
3589.000000	99.060409
3588.000000	99.062448
3587.000000	99.064923
3586.000000	99.067235
3585.000000	99.068546
3584.000000	99.068948
3583.000000	99.068928
3582.000000	99.068397
3581.000000	99.066806
3580.000000	99.064059
3579.000000	99.060935
3578.000000	99.058770
3577.000000	99.058414
3576.000000	99.059329
3575.000000	99.059774
3574.000000	99.058212
3573.000000	99.054940
3572.000000	99.052039
3571.000000	99.051230
3570.000000	99.051460
3569.000000	99.049188
3568.000000	99.042164
3567.000000	99.032911
3566.000000	99.026454
3565.000000	99.024338
3564.000000	99.024237
3563.000000	99.023617
3562.000000	99.021954
3561.000000	99.019916
3560.000000	99.017634
3559.000000	99.014417
3558.000000	99.009980
3557.000000	99.005297
3556.000000	99.001988
3555.000000	99.001293
3554.000000	99.003471
3553.000000	99.007492
3552.000000	99.011135
3551.000000	99.012199
3550.000000	99.010093
3549.000000	99.006041
3548.000000	99.001764
3547.000000	98.998117
3546.000000	98.995034
3545.000000	98.992302
3544.000000	98.989880
3543.000000	98.987728
3542.000000	98.985896
3541.000000	98.984838
3540.000000	98.985237
3539.000000	98.987251
3538.000000	98.989998
3537.000000	98.992020
3536.000000	98.992460
3535.000000	98.991511
3534.000000	98.989713
3533.000000	98.987026
3532.000000	98.982975
3531.000000	98.977614
3530.000000	98.972072
3529.000000	98.967821
3528.000000	98.965488
3527.000000	98.964632
3526.000000	98.964545
3525.000000	98.964812
3524.000000	98.965051
3523.000000	98.964771
3522.000000	98.963844
3521.000000	98.962924
3520.000000	98.962907
3519.000000	98.963909
3518.000000	98.965027
3517.000000	98.965255
3516.000000	98.964547
3515.000000	98.963750
3514.000000	98.963478
3513.000000	98.963244
3512.000000	98.961960
3511.000000	98.959249
3510.000000	98.956143
3509.000000	98.954318
3508.000000	98.954588
3507.000000	98.956302
3506.000000	98.958045
3505.000000	98.958694
3504.000000	98.957825
3503.000000	98.955585
3502.000000	98.952438
3501.000000	98.948989
3500.000000	98.945952
3499.000000	98.943960
3498.000000	98.943188
3497.000000	98.943033
3496.000000	98.942399
3495.000000	98.940690
3494.000000	98.938499
3493.000000	98.937017
3492.000000	98.936662
3491.000000	98.936567
3490.000000	98.935568
3489.000000	98.933648
3488.000000	98.932059
3487.000000	98.931908
3486.000000	98.932930
3485.000000	98.933808
3484.000000	98.933527
3483.000000	98.932124
3482.000000	98.930326
3481.000000	98.928741
3480.000000	98.927435
3479.000000	98.926142
3478.000000	98.924589
3477.000000	98.922494
3476.000000	98.919492
3475.000000	98.915403
3474.000000	98.910610
3473.000000	98.905903
3472.000000	98.901807
3471.000000	98.898300
3470.000000	98.895282
3469.000000	98.892976
3468.000000	98.891512
3467.000000	98.890429
3466.000000	98.889222
3465.000000	98.888233
3464.000000	98.888260
3463.000000	98.889129
3462.000000	98.889302
3461.000000	98.887443
3460.000000	98.883933
3459.000000	98.880551
3458.000000	98.878681
3457.000000	98.878071
3456.000000	98.877417
3455.000000	98.875748
3454.000000	98.873232
3453.000000	98.870745
3452.000000	98.868913
3451.000000	98.867612
3450.000000	98.866352
3449.000000	98.864926
3448.000000	98.863475
3447.000000	98.862080
3446.000000	98.860583
3445.000000	98.858923
3444.000000	98.857381
3443.000000	98.856280
3442.000000	98.855597
3441.000000	98.855001
3440.000000	98.854197
3439.000000	98.853141
3438.000000	98.851947
3437.000000	98.850737
3436.000000	98.849573
3435.000000	98.848461
3434.000000	98.847380
3433.000000	98.846308
3432.000000	98.845241
3431.000000	98.844208
3430.000000	98.843251
3429.000000	98.842390
3428.000000	98.841602
3427.000000	98.840825
3426.000000	98.840001
3425.000000	98.839110
3424.000000	98.838165
3423.000000	98.837207
3422.000000	98.836302
3421.000000	98.835540
3420.000000	98.834977
3419.000000	98.834592
3418.000000	98.834288
3417.000000	98.833941
3416.000000	98.833482
3415.000000	98.832903
3414.000000	98.832265
3413.000000	98.831680
3412.000000	98.831232
3411.000000	98.830913
3410.000000	98.830607
3409.000000	98.830171
3408.000000	98.829555
3407.000000	98.828864
3406.000000	98.828290
3405.000000	98.827936
3404.000000	98.827738
3403.000000	98.827537
3402.000000	98.827246
3401.000000	98.826902
3400.000000	98.826575
3399.000000	98.826245
3398.000000	98.825791
3397.000000	98.825164
3396.000000	98.824553
3395.000000	98.824239
3394.000000	98.824275
3393.000000	98.824424
3392.000000	98.824543
3391.000000	98.824884
3390.000000	98.825769
3389.000000	98.827030
3388.000000	98.828013
3387.000000	98.828238
3386.000000	98.827919
3385.000000	98.827744
3384.000000	98.828186
3383.000000	98.829171
3382.000000	98.830352
3381.000000	98.831459
3380.000000	98.832286
3379.000000	98.832461
3378.000000	98.831525
3377.000000	98.829418
3376.000000	98.826868
3375.000000	98.825001
3374.000000	98.824479
3373.000000	98.825059
3372.000000	98.825952
3371.000000	98.826601
3370.000000	98.826899
3369.000000	98.826886
3368.000000	98.826672
3367.000000	98.826632
3366.000000	98.827291
3365.000000	98.828826
3364.000000	98.830845
3363.000000	98.832681
3362.000000	98.833899
3361.000000	98.834545
3360.000000	98.834980
3359.000000	98.835456
3358.000000	98.835836
3357.000000	98.835843
3356.000000	98.835628
3355.000000	98.835865
3354.000000	98.837079
3353.000000	98.839056
3352.000000	98.841043
3351.000000	98.842461
3350.000000	98.843287
3349.000000	98.843795
3348.000000	98.844222
3347.000000	98.844722
3346.000000	98.845407
3345.000000	98.846309
3344.000000	98.847386
3343.000000	98.848630
3342.000000	98.850057
3341.000000	98.851541
3340.000000	98.852772
3339.000000	98.853484
3338.000000	98.853644
3337.000000	98.853445
3336.000000	98.853268
3335.000000	98.853652
3334.000000	98.854996
3333.000000	98.857150
3332.000000	98.859416
3331.000000	98.861223
3330.000000	98.862722
3329.000000	98.864504
3328.000000	98.866834
3327.000000	98.869300
3326.000000	98.871159
3325.000000	98.871918
3324.000000	98.871643
3323.000000	98.871038
3322.000000	98.871105
3321.000000	98.872365
3320.000000	98.874354
3319.000000	98.875970
3318.000000	98.876520
3317.000000	98.876238
3316.000000	98.875912
3315.000000	98.876198
3314.000000	98.877291
3313.000000	98.878933
3312.000000	98.880582
3311.000000	98.881868
3310.000000	98.883099
3309.000000	98.885088
3308.000000	98.888278
3307.000000	98.892102
3306.000000	98.895304
3305.000000	98.896883
3304.000000	98.896656
3303.000000	98.895277
3302.000000	98.893908
3301.000000	98.893445
3300.000000	98.893844
3299.000000	98.894311
3298.000000	98.894280
3297.000000	98.894107
3296.000000	98.894598
3295.000000	98.895986
3294.000000	98.897672
3293.000000	98.898914
3292.000000	98.899578
3291.000000	98.900152
3290.000000	98.901149
3289.000000	98.902600
3288.000000	98.904096
3287.000000	98.905295
3286.000000	98.906297
3285.000000	98.907385
3284.000000	98.908525
3283.000000	98.909466
3282.000000	98.910351
3281.000000	98.911782
3280.000000	98.914020
3279.000000	98.916436
3278.000000	98.918083
3277.000000	98.918732
3276.000000	98.918971
3275.000000	98.919534
3274.000000	98.920740
3273.000000	98.922612
3272.000000	98.925065
3271.000000	98.927735
3270.000000	98.929973
3269.000000	98.931331
3268.000000	98.931961
3267.000000	98.932454
3266.000000	98.933304
3265.000000	98.934623
3264.000000	98.936336
3263.000000	98.938342
3262.000000	98.940450
3261.000000	98.942418
3260.000000	98.944202
3259.000000	98.946079
3258.000000	98.948357
3257.000000	98.951007
3256.000000	98.953674
3255.000000	98.956008
3254.000000	98.957864
3253.000000	98.959180
3252.000000	98.959842
3251.000000	98.959817
3250.000000	98.959412
3249.000000	98.959290
3248.000000	98.960053
3247.000000	98.961825
3246.000000	98.964230
3245.000000	98.966694
3244.000000	98.968735
3243.000000	98.970135
3242.000000	98.971119
3241.000000	98.972334
3240.000000	98.974304
3239.000000	98.976797
3238.000000	98.979066
3237.000000	98.980859
3236.000000	98.982858
3235.000000	98.985737
3234.000000	98.989091
3233.000000	98.991678
3232.000000	98.992532
3231.000000	98.991666
3230.000000	98.989919
3229.000000	98.988242
3228.000000	98.987021
3227.000000	98.986027
3226.000000	98.985155
3225.000000	98.984989
3224.000000	98.986213
3223.000000	98.988487
3222.000000	98.990399
3221.000000	98.990795
3220.000000	98.989922
3219.000000	98.989061
3218.000000	98.989368
3217.000000	98.991210
3216.000000	98.994175
3215.000000	98.997252
3214.000000	98.999362
3213.000000	99.000207
3212.000000	99.000453
3211.000000	99.000840
3210.000000	99.001369
3209.000000	99.001747
3208.000000	99.002308
3207.000000	99.003829
3206.000000	99.006462
3205.000000	99.009364
3204.000000	99.011567
3203.000000	99.012973
3202.000000	99.014262
3201.000000	99.016077
3200.000000	99.018532
3199.000000	99.021448
3198.000000	99.024709
3197.000000	99.028146
3196.000000	99.031160
3195.000000	99.032891
3194.000000	99.033009
3193.000000	99.032217
3192.000000	99.031798
3191.000000	99.032414
3190.000000	99.033676
3189.000000	99.034935
3188.000000	99.036216
3187.000000	99.038122
3186.000000	99.040968
3185.000000	99.044383
3184.000000	99.047674
3183.000000	99.050357
3182.000000	99.052303
3181.000000	99.053676
3180.000000	99.054879
3179.000000	99.056360
3178.000000	99.058291
3177.000000	99.060484
3176.000000	99.062631
3175.000000	99.064536
3174.000000	99.066121
3173.000000	99.067346
3172.000000	99.068269
3171.000000	99.069198
3170.000000	99.070634
3169.000000	99.072934
3168.000000	99.075937
3167.000000	99.078920
3166.000000	99.081196
3165.000000	99.082760
3164.000000	99.084189
3163.000000	99.085838
3162.000000	99.087343
3161.000000	99.088246
3160.000000	99.088882
3159.000000	99.090165
3158.000000	99.092491
3157.000000	99.095372
3156.000000	99.098131
3155.000000	99.100686
3154.000000	99.103280
3153.000000	99.105840
3152.000000	99.108013
3151.000000	99.109680
3150.000000	99.111004
3149.000000	99.112080
3148.000000	99.112949
3147.000000	99.113832
3146.000000	99.114943
3145.000000	99.116152
3144.000000	99.117150
3143.000000	99.117960
3142.000000	99.119031
3141.000000	99.120733
3140.000000	99.123007
3139.000000	99.125503
3138.000000	99.127850
3137.000000	99.129769
3136.000000	99.131168
3135.000000	99.132264
3134.000000	99.133527
3133.000000	99.135277
3132.000000	99.137407
3131.000000	99.139521
3130.000000	99.141298
3129.000000	99.142723
3128.000000	99.143994
3127.000000	99.145326
3126.000000	99.146831
3125.000000	99.148496
3124.000000	99.150227
3123.000000	99.151896
3122.000000	99.153404
3121.000000	99.154730
3120.000000	99.155934
3119.000000	99.157138
3118.000000	99.158450
3117.000000	99.159888
3116.000000	99.161371
3115.000000	99.162788
3114.000000	99.164095
3113.000000	99.165334
3112.000000	99.166581
3111.000000	99.167859
3110.000000	99.169112
3109.000000	99.170275
3108.000000	99.171342
3107.000000	99.172378
3106.000000	99.173470
3105.000000	99.174647
3104.000000	99.175863
3103.000000	99.177037
3102.000000	99.178129
3101.000000	99.179140
3100.000000	99.180054
3099.000000	99.180835
3098.000000	99.181513
3097.000000	99.182243
3096.000000	99.183214
3095.000000	99.184501
3094.000000	99.185968
3093.000000	99.187330
3092.000000	99.188374
3091.000000	99.189044
3090.000000	99.189413
3089.000000	99.189651
3088.000000	99.189956
3087.000000	99.190485
3086.000000	99.191292
3085.000000	99.192333
3084.000000	99.193557
3083.000000	99.194912
3082.000000	99.196272
3081.000000	99.197426
3080.000000	99.198247
3079.000000	99.198814
3078.000000	99.199332
3077.000000	99.199894
3076.000000	99.200414
3075.000000	99.200754
3074.000000	99.200853
3073.000000	99.200799
3072.000000	99.200857
3071.000000	99.201379
3070.000000	99.202526
3069.000000	99.204094
3068.000000	99.205621
3067.000000	99.206775
3066.000000	99.207582
3065.000000	99.208208
3064.000000	99.208712
3063.000000	99.209069
3062.000000	99.209373
3061.000000	99.209858
3060.000000	99.210691
3059.000000	99.211792
3058.000000	99.212903
3057.000000	99.213790
3056.000000	99.214375
3055.000000	99.214730
3054.000000	99.215030
3053.000000	99.215501
3052.000000	99.216304
3051.000000	99.217396
3050.000000	99.218536
3049.000000	99.219467
3048.000000	99.220165
3047.000000	99.220861
3046.000000	99.221791
3045.000000	99.222948
3044.000000	99.224123
3043.000000	99.225123
3042.000000	99.225876
3041.000000	99.226337
3040.000000	99.226460
3039.000000	99.226315
3038.000000	99.226193
3037.000000	99.226448
3036.000000	99.227193
3035.000000	99.228195
3034.000000	99.229092
3033.000000	99.229762
3032.000000	99.230469
3031.000000	99.231570
3030.000000	99.232988
3029.000000	99.234036
3028.000000	99.234003
3027.000000	99.233021
3026.000000	99.232307
3025.000000	99.233167
3024.000000	99.235734
3023.000000	99.238679
3022.000000	99.240436
3021.000000	99.240479
3020.000000	99.239276
3019.000000	99.237476
3018.000000	99.235424
3017.000000	99.233229
3016.000000	99.230923
3015.000000	99.228754
3014.000000	99.227500
3013.000000	99.228032
3012.000000	99.230279
3011.000000	99.233084
3010.000000	99.235593
3009.000000	99.238305
3008.000000	99.241999
3007.000000	99.245861
3006.000000	99.247546
3005.000000	99.245379
3004.000000	99.240063
3003.000000	99.234161
3002.000000	99.230147
3001.000000	99.229054
3000.000000	99.230606
2999.000000	99.234138
2998.000000	99.239233
2997.000000	99.245524
2996.000000	99.252115
2995.000000	99.257692
2994.000000	99.261443
2993.000000	99.263532
2992.000000	99.264294
2991.000000	99.263401
2990.000000	99.260510
2989.000000	99.256525
2988.000000	99.253294
2987.000000	99.251788
2986.000000	99.251234
2985.000000	99.250499
2984.000000	99.249928
2983.000000	99.251205
2982.000000	99.255363
2981.000000	99.261400
2980.000000	99.267206
2979.000000	99.271683
2978.000000	99.275620
2977.000000	99.280381
2976.000000	99.286026
2975.000000	99.291282
2974.000000	99.295453
2973.000000	99.299679
2972.000000	99.305852
2971.000000	99.314811
2970.000000	99.326044
2969.000000	99.338415
2968.000000	99.350443
2967.000000	99.360420
2966.000000	99.367670
2965.000000	99.373989
2964.000000	99.382476
2963.000000	99.394246
2962.000000	99.407080
2961.000000	99.417786
2960.000000	99.424928
2959.000000	99.428772
2958.000000	99.430007
2957.000000	99.429948
2956.000000	99.431105
2955.000000	99.435656
2954.000000	99.442980
2953.000000	99.449719
2952.000000	99.452611
2951.000000	99.450905
2950.000000	99.446414
2949.000000	99.442309
2948.000000	99.441926
2947.000000	99.447407
2946.000000	99.458423
2945.000000	99.472295
2944.000000	99.485790
2943.000000	99.497220
2942.000000	99.507372
2941.000000	99.518925
2940.000000	99.534464
2939.000000	99.553967
2938.000000	99.574153
2937.000000	99.591196
2936.000000	99.604468
2935.000000	99.617172
2934.000000	99.633160
2933.000000	99.653410
2932.000000	99.675041
2931.000000	99.693030
2930.000000	99.703611
2929.000000	99.707893
2928.000000	99.712530
2927.000000	99.724706
2926.000000	99.744850
2925.000000	99.764841
2924.000000	99.774456
2923.000000	99.769072
2922.000000	99.751334
2921.000000	99.727431
2920.000000	99.702758
2919.000000	99.679840
2918.000000	99.658537
2917.000000	99.637851
2916.000000	99.617856
2915.000000	99.599515
2914.000000	99.582556
2913.000000	99.565088
2912.000000	99.546439
2911.000000	99.529037
2910.000000	99.515566
2909.000000	99.504964
2908.000000	99.493430
2907.000000	99.479508
2906.000000	99.466185
2905.000000	99.457449
2904.000000	99.454489
2903.000000	99.455732
2902.000000	99.458702
2901.000000	99.460645
2900.000000	99.458817
2899.000000	99.452124
2898.000000	99.442322
2897.000000	99.432666
2896.000000	99.425614
2895.000000	99.422100
2894.000000	99.421902
2893.000000	99.423482
2892.000000	99.424085
2891.000000	99.421320
2890.000000	99.414807
2889.000000	99.405919
2888.000000	99.396481
2887.000000	99.388249
2886.000000	99.382869
2885.000000	99.381263
2884.000000	99.383262
2883.000000	99.388313
2882.000000	99.395879
2881.000000	99.404431
2880.000000	99.411157
2879.000000	99.414380
2878.000000	99.415627
2877.000000	99.417773
2876.000000	99.421623
2875.000000	99.425944
2874.000000	99.430337
2873.000000	99.435718
2872.000000	99.441634
2871.000000	99.445439
2870.000000	99.445526
2869.000000	99.444025
2868.000000	99.444942
2867.000000	99.450485
2866.000000	99.460100
2865.000000	99.472120
2864.000000	99.485038
2863.000000	99.497664
2862.000000	99.509371
2861.000000	99.520444
2860.000000	99.531860
2859.000000	99.544862
2858.000000	99.560477
2857.000000	99.578251
2856.000000	99.594967
2855.000000	99.605845
2854.000000	99.607956
2853.000000	99.602087
2852.000000	99.591054
2851.000000	99.577203
2850.000000	99.562192
2849.000000	99.547677
2848.000000	99.534470
2847.000000	99.521534
2846.000000	99.507366
2845.000000	99.492131
2844.000000	99.477254
2843.000000	99.463314
2842.000000	99.449869
2841.000000	99.437410
2840.000000	99.427990
2839.000000	99.423237
2838.000000	99.422479
2837.000000	99.423232
2836.000000	99.423162
2835.000000	99.421501
2834.000000	99.418940
2833.000000	99.416231
2832.000000	99.412810
2831.000000	99.407355
2830.000000	99.400090
2829.000000	99.393668
2828.000000	99.390752
2827.000000	99.391369
2826.000000	99.393735
2825.000000	99.396808
2824.000000	99.400248
2823.000000	99.402536
2822.000000	99.401860
2821.000000	99.399399
2820.000000	99.399095
2819.000000	99.402623
2818.000000	99.406495
2817.000000	99.406158
2816.000000	99.401889
2815.000000	99.398488
2814.000000	99.399578
2813.000000	99.404258
2812.000000	99.409264
2811.000000	99.412493
2810.000000	99.413875
2809.000000	99.414144
2808.000000	99.413895
2807.000000	99.413447
2806.000000	99.412992
2805.000000	99.412929
2804.000000	99.413951
2803.000000	99.416313
2802.000000	99.418942
2801.000000	99.420055
2800.000000	99.419174
2799.000000	99.418033
2798.000000	99.418894
2797.000000	99.422169
2796.000000	99.426151
2795.000000	99.428997
2794.000000	99.430425
2793.000000	99.431297
2792.000000	99.432062
2791.000000	99.432199
2790.000000	99.431274
2789.000000	99.429995
2788.000000	99.429665
2787.000000	99.430663
2786.000000	99.432099
2785.000000	99.433037
2784.000000	99.433501
2783.000000	99.434050
2782.000000	99.434919
2781.000000	99.435882
2780.000000	99.436716
2779.000000	99.437480
2778.000000	99.438330
2777.000000	99.439279
2776.000000	99.440218
2775.000000	99.441078
2774.000000	99.441896
2773.000000	99.442752
2772.000000	99.443668
2771.000000	99.444621
2770.000000	99.445564
2769.000000	99.446447
2768.000000	99.447244
2767.000000	99.447961
2766.000000	99.448621
2765.000000	99.449257
2764.000000	99.449916
2763.000000	99.450655
2762.000000	99.451507
2761.000000	99.452437
2760.000000	99.453342
2759.000000	99.454135
2758.000000	99.454812
2757.000000	99.455445
2756.000000	99.456109
2755.000000	99.456815
2754.000000	99.457553
2753.000000	99.458338
2752.000000	99.459175
2751.000000	99.460008
2750.000000	99.460767
2749.000000	99.461448
2748.000000	99.462123
2747.000000	99.462869
2746.000000	99.463729
2745.000000	99.464720
2744.000000	99.465789
2743.000000	99.466776
2742.000000	99.467532
2741.000000	99.468106
2740.000000	99.468721
2739.000000	99.469465
2738.000000	99.470138
2737.000000	99.470530
2736.000000	99.470739
2735.000000	99.471085
2734.000000	99.471739
2733.000000	99.472614
2732.000000	99.473557
2731.000000	99.474528
2730.000000	99.475504
2729.000000	99.476349
2728.000000	99.476931
2727.000000	99.477284
2726.000000	99.477530
2725.000000	99.477679
2724.000000	99.477623
2723.000000	99.477331
2722.000000	99.477010
2721.000000	99.477034
2720.000000	99.477674
2719.000000	99.478862
2718.000000	99.480180
2717.000000	99.481179
2716.000000	99.481744
2715.000000	99.482104
2714.000000	99.482541
2713.000000	99.483167
2712.000000	99.483939
2711.000000	99.484718
2710.000000	99.485242
2709.000000	99.485252
2708.000000	99.484792
2707.000000	99.484342
2706.000000	99.484432
2705.000000	99.485171
2704.000000	99.486278
2703.000000	99.487462
2702.000000	99.488622
2701.000000	99.489599
2700.000000	99.490094
2699.000000	99.490038
2698.000000	99.489844
2697.000000	99.490047
2696.000000	99.490696
2695.000000	99.491336
2694.000000	99.491518
2693.000000	99.491209
2692.000000	99.490735
2691.000000	99.490478
2690.000000	99.490589
2689.000000	99.490953
2688.000000	99.491419
2687.000000	99.492073
2686.000000	99.493160
2685.000000	99.494714
2684.000000	99.496407
2683.000000	99.497842
2682.000000	99.498911
2681.000000	99.499723
2680.000000	99.500282
2679.000000	99.500427
2678.000000	99.500085
2677.000000	99.499477
2676.000000	99.499044
2675.000000	99.499202
2674.000000	99.500081
2673.000000	99.501418
2672.000000	99.502723
2671.000000	99.503671
2670.000000	99.504244
2669.000000	99.504425
2668.000000	99.503966
2667.000000	99.502698
2666.000000	99.500961
2665.000000	99.499476
2664.000000	99.498725
2663.000000	99.498778
2662.000000	99.499643
2661.000000	99.501353
2660.000000	99.503506
2659.000000	99.505118
2658.000000	99.505452
2657.000000	99.504888
2656.000000	99.504694
2655.000000	99.505757
2654.000000	99.507728
2653.000000	99.509452
2652.000000	99.510107
2651.000000	99.509733
2650.000000	99.508845
2649.000000	99.507906
2648.000000	99.507226
2647.000000	99.507047
2646.000000	99.507465
2645.000000	99.508299
2644.000000	99.509198
2643.000000	99.509874
2642.000000	99.510147
2641.000000	99.509859
2640.000000	99.508940
2639.000000	99.507600
2638.000000	99.506327
2637.000000	99.505571
2636.000000	99.505456
2635.000000	99.505757
2634.000000	99.506040
2633.000000	99.505887
2632.000000	99.505260
2631.000000	99.504718
2630.000000	99.505022
2629.000000	99.506430
2628.000000	99.508511
2627.000000	99.510678
2626.000000	99.512682
2625.000000	99.514381
2624.000000	99.515278
2623.000000	99.514784
2622.000000	99.512909
2621.000000	99.510430
2620.000000	99.508323
2619.000000	99.507158
2618.000000	99.507009
2617.000000	99.507607
2616.000000	99.508514
2615.000000	99.509317
2614.000000	99.509739
2613.000000	99.509613
2612.000000	99.508954
2611.000000	99.508239
2610.000000	99.508323
2609.000000	99.509683
2608.000000	99.511758
2607.000000	99.513297
2606.000000	99.513485
2605.000000	99.512460
2604.000000	99.510858
2603.000000	99.509246
2602.000000	99.508041
2601.000000	99.507577
2600.000000	99.507982
2599.000000	99.509107
2598.000000	99.510706
2597.000000	99.512564
2596.000000	99.514410
2595.000000	99.515955
2594.000000	99.517081
2593.000000	99.517801
2592.000000	99.518020
2591.000000	99.517574
2590.000000	99.516507
2589.000000	99.515024
2588.000000	99.513182
2587.000000	99.511071
2586.000000	99.509376
2585.000000	99.509168
2584.000000	99.510870
2583.000000	99.513785
2582.000000	99.516702
2581.000000	99.518855
2580.000000	99.520044
2579.000000	99.520302
2578.000000	99.519927
2577.000000	99.519586
2576.000000	99.519892
2575.000000	99.520871
2574.000000	99.522104
2573.000000	99.523297
2572.000000	99.524431
2571.000000	99.525434
2570.000000	99.526053
2569.000000	99.526082
2568.000000	99.525534
2567.000000	99.524587
2566.000000	99.523626
2565.000000	99.523239
2564.000000	99.523900
2563.000000	99.525538
2562.000000	99.527440
2561.000000	99.528757
2560.000000	99.529131
2559.000000	99.528834
2558.000000	99.528452
2557.000000	99.528384
2556.000000	99.528579
2555.000000	99.528765
2554.000000	99.528866
2553.000000	99.529082
2552.000000	99.529503
2551.000000	99.529849
2550.000000	99.529782
2549.000000	99.529388
2548.000000	99.529172
2547.000000	99.529586
2546.000000	99.530684
2545.000000	99.532176
2544.000000	99.533687
2543.000000	99.534986
2542.000000	99.536051
2541.000000	99.536923
2540.000000	99.537490
2539.000000	99.537531
2538.000000	99.537115
2537.000000	99.536794
2536.000000	99.537081
2535.000000	99.537898
2534.000000	99.538721
2533.000000	99.539065
2532.000000	99.538716
2531.000000	99.537714
2530.000000	99.536426
2529.000000	99.535470
2528.000000	99.535214
2527.000000	99.535425
2526.000000	99.535658
2525.000000	99.535851
2524.000000	99.536220
2523.000000	99.536763
2522.000000	99.537323
2521.000000	99.538003
2520.000000	99.538995
2519.000000	99.540012
2518.000000	99.540386
2517.000000	99.539868
2516.000000	99.538981
2515.000000	99.538468
2514.000000	99.538699
2513.000000	99.539689
2512.000000	99.541258
2511.000000	99.542975
2510.000000	99.544252
2509.000000	99.544792
2508.000000	99.544901
2507.000000	99.545197
2506.000000	99.546007
2505.000000	99.547106
2504.000000	99.548008
2503.000000	99.548488
2502.000000	99.548807
2501.000000	99.549296
2500.000000	99.549719
2499.000000	99.549358
2498.000000	99.547903
2497.000000	99.546082
2496.000000	99.545096
2495.000000	99.545515
2494.000000	99.547123
2493.000000	99.549530
2492.000000	99.552410
2491.000000	99.555180
2490.000000	99.557056
2489.000000	99.557778
2488.000000	99.557910
2487.000000	99.558143
2486.000000	99.558486
2485.000000	99.558448
2484.000000	99.557819
2483.000000	99.556920
2482.000000	99.556205
2481.000000	99.555899
2480.000000	99.556086
2479.000000	99.556949
2478.000000	99.558681
2477.000000	99.561119
2476.000000	99.563613
2475.000000	99.565528
2474.000000	99.566908
2473.000000	99.568345
2472.000000	99.570081
2471.000000	99.571518
2470.000000	99.571921
2469.000000	99.571319
2468.000000	99.570431
2467.000000	99.569929
2466.000000	99.570081
2465.000000	99.570961
2464.000000	99.572495
2463.000000	99.574244
2462.000000	99.575565
2461.000000	99.576157
2460.000000	99.576239
2459.000000	99.576218
2458.000000	99.576374
2457.000000	99.576833
2456.000000	99.577571
2455.000000	99.578386
2454.000000	99.579131
2453.000000	99.579924
2452.000000	99.580883
2451.000000	99.581757
2450.000000	99.582199
2449.000000	99.582360
2448.000000	99.582822
2447.000000	99.583808
2446.000000	99.584865
2445.000000	99.585520
2444.000000	99.585890
2443.000000	99.586401
2442.000000	99.587204
2441.000000	99.588128
2440.000000	99.589053
2439.000000	99.590025
2438.000000	99.591052
2437.000000	99.592000
2436.000000	99.592698
2435.000000	99.593056
2434.000000	99.593124
2433.000000	99.593130
2432.000000	99.593388
2431.000000	99.594069
2430.000000	99.595096
2429.000000	99.596315
2428.000000	99.597661
2427.000000	99.599071
2426.000000	99.600377
2425.000000	99.601460
2424.000000	99.602433
2423.000000	99.603435
2422.000000	99.604295
2421.000000	99.604667
2420.000000	99.604493
2419.000000	99.604186
2418.000000	99.604243
2417.000000	99.604827
2416.000000	99.605764
2415.000000	99.606769
2414.000000	99.607683
2413.000000	99.608517
2412.000000	99.609391
2411.000000	99.610436
2410.000000	99.611647
2409.000000	99.612795
2408.000000	99.613563
2407.000000	99.613850
2406.000000	99.613901
2405.000000	99.614126
2404.000000	99.614730
2403.000000	99.615597
2402.000000	99.616467
2401.000000	99.617188
2400.000000	99.617756
2399.000000	99.618203
2398.000000	99.618564
2397.000000	99.618917
2396.000000	99.619360
2395.000000	99.619900
2394.000000	99.620475
2393.000000	99.621064
2392.000000	99.621724
2391.000000	99.622490
2390.000000	99.623306
2389.000000	99.624082
2388.000000	99.624767
2387.000000	99.625336
2386.000000	99.625776
2385.000000	99.626102
2384.000000	99.626378
2383.000000	99.626686
2382.000000	99.627093
2381.000000	99.627630
2380.000000	99.628268
2379.000000	99.628876
2378.000000	99.629272
2377.000000	99.629382
2376.000000	99.629306
2375.000000	99.629230
2374.000000	99.629279
2373.000000	99.629461
2372.000000	99.629716
2371.000000	99.629945
2370.000000	99.630060
2369.000000	99.630041
2368.000000	99.629930
2367.000000	99.629790
2366.000000	99.629669
2365.000000	99.629588
2364.000000	99.629559
2363.000000	99.629577
2362.000000	99.629609
2361.000000	99.629612
2360.000000	99.629563
2359.000000	99.629470
2358.000000	99.629361
2357.000000	99.629262
2356.000000	99.629167
2355.000000	99.629044
2354.000000	99.628867
2353.000000	99.628645
2352.000000	99.628411
2351.000000	99.628193
2350.000000	99.627991
2349.000000	99.627782
2348.000000	99.627546
2347.000000	99.627280
2346.000000	99.627009
2345.000000	99.626772
2344.000000	99.626587
2343.000000	99.626441
2342.000000	99.626301
2341.000000	99.626136
2340.000000	99.625920
2339.000000	99.625625
2338.000000	99.625246
2337.000000	99.624826
2336.000000	99.624427
2335.000000	99.624088
2334.000000	99.623820
2333.000000	99.623614
2332.000000	99.623436
2331.000000	99.623242
2330.000000	99.623016
2329.000000	99.622782
2328.000000	99.622591
2327.000000	99.622459
2326.000000	99.622357
2325.000000	99.622237
2324.000000	99.622073
2323.000000	99.621876
2322.000000	99.621675
2321.000000	99.621482
2320.000000	99.621285
2319.000000	99.621069
2318.000000	99.620847
2317.000000	99.620645
2316.000000	99.620472
2315.000000	99.620295
2314.000000	99.620077
2313.000000	99.619828
2312.000000	99.619596
2311.000000	99.619402
2310.000000	99.619222
2309.000000	99.619026
2308.000000	99.618818
2307.000000	99.618622
2306.000000	99.618427
2305.000000	99.618198
2304.000000	99.617909
2303.000000	99.617561
2302.000000	99.617178
2301.000000	99.616818
2300.000000	99.616535
2299.000000	99.616331
2298.000000	99.616165
2297.000000	99.616008
2296.000000	99.615865
2295.000000	99.615739
2294.000000	99.615600
2293.000000	99.615425
2292.000000	99.615217
2291.000000	99.614980
2290.000000	99.614683
2289.000000	99.614307
2288.000000	99.613895
2287.000000	99.613521
2286.000000	99.613206
2285.000000	99.612926
2284.000000	99.612664
2283.000000	99.612413
2282.000000	99.612155
2281.000000	99.611859
2280.000000	99.611523
2279.000000	99.611181
2278.000000	99.610879
2277.000000	99.610630
2276.000000	99.610414
2275.000000	99.610196
2274.000000	99.609941
2273.000000	99.609649
2272.000000	99.609340
2271.000000	99.609037
2270.000000	99.608752
2269.000000	99.608483
2268.000000	99.608227
2267.000000	99.607988
2266.000000	99.607763
2265.000000	99.607546
2264.000000	99.607335
2263.000000	99.607127
2262.000000	99.606923
2261.000000	99.606727
2260.000000	99.606542
2259.000000	99.606368
2258.000000	99.606204
2257.000000	99.606046
2256.000000	99.605890
2255.000000	99.605736
2254.000000	99.605581
2253.000000	99.605426
2252.000000	99.605274
2251.000000	99.605130
2250.000000	99.604995
2249.000000	99.604872
2248.000000	99.604759
2247.000000	99.604657
2246.000000	99.604562
2245.000000	99.604469
2244.000000	99.604374
2243.000000	99.604275
2242.000000	99.604175
2241.000000	99.604093
2240.000000	99.604056
2239.000000	99.604077
2238.000000	99.604136
2237.000000	99.604187
2236.000000	99.604200
2235.000000	99.604179
2234.000000	99.604159
2233.000000	99.604190
2232.000000	99.604323
2231.000000	99.604572
2230.000000	99.604859
2229.000000	99.605068
2228.000000	99.605164
2227.000000	99.605217
2226.000000	99.605291
2225.000000	99.605368
2224.000000	99.605445
2223.000000	99.605603
2222.000000	99.605896
2221.000000	99.606250
2220.000000	99.606579
2219.000000	99.606916
2218.000000	99.607251
2217.000000	99.607356
2216.000000	99.607023
2215.000000	99.606423
2214.000000	99.606027
2213.000000	99.606109
2212.000000	99.606511
2211.000000	99.606889
2210.000000	99.607066
2209.000000	99.607051
2208.000000	99.606887
2207.000000	99.606631
2206.000000	99.606401
2205.000000	99.606312
2204.000000	99.606410
2203.000000	99.606748
2202.000000	99.607460
2201.000000	99.608649
2200.000000	99.610221
2199.000000	99.611821
2198.000000	99.612930
2197.000000	99.613176
2196.000000	99.612635
2195.000000	99.611805
2194.000000	99.611256
2193.000000	99.611270
2192.000000	99.611815
2191.000000	99.612698
2190.000000	99.613609
2189.000000	99.614180
2188.000000	99.614214
2187.000000	99.613875
2186.000000	99.613500
2185.000000	99.613231
2184.000000	99.612949
2183.000000	99.612617
2182.000000	99.612469
2181.000000	99.612766
2180.000000	99.613487
2179.000000	99.614413
2178.000000	99.615398
2177.000000	99.616423
2176.000000	99.617476
2175.000000	99.618536
2174.000000	99.619635
2173.000000	99.620748
2172.000000	99.621619
2171.000000	99.621895
2170.000000	99.621528
2169.000000	99.620945
2168.000000	99.620720
2167.000000	99.621111
2166.000000	99.621974
2165.000000	99.622957
2164.000000	99.623687
2163.000000	99.623903
2162.000000	99.623561
2161.000000	99.622917
2160.000000	99.622480
2159.000000	99.622672
2158.000000	99.623564
2157.000000	99.624868
2156.000000	99.626138
2155.000000	99.627082
2154.000000	99.627724
2153.000000	99.628333
2152.000000	99.629132
2151.000000	99.630025
2150.000000	99.630689
2149.000000	99.630976
2148.000000	99.631081
2147.000000	99.631280
2146.000000	99.631623
2145.000000	99.631990
2144.000000	99.632371
2143.000000	99.632909
2142.000000	99.633697
2141.000000	99.634646
2140.000000	99.635567
2139.000000	99.636321
2138.000000	99.636865
2137.000000	99.637240
2136.000000	99.637553
2135.000000	99.637919
2134.000000	99.638372
2133.000000	99.638869
2132.000000	99.639374
2131.000000	99.639933
2130.000000	99.640602
2129.000000	99.641368
2128.000000	99.642148
2127.000000	99.642856
2126.000000	99.643469
2125.000000	99.644040
2124.000000	99.644632
2123.000000	99.645271
2122.000000	99.645975
2121.000000	99.646768
2120.000000	99.647625
2119.000000	99.648452
2118.000000	99.649167
2117.000000	99.649755
2116.000000	99.650232
2115.000000	99.650624
2114.000000	99.651005
2113.000000	99.651522
2112.000000	99.652290
2111.000000	99.653223
2110.000000	99.654061
2109.000000	99.654619
2108.000000	99.654959
2107.000000	99.655342
2106.000000	99.656016
2105.000000	99.657014
2104.000000	99.658128
2103.000000	99.659080
2102.000000	99.659779
2101.000000	99.660387
2100.000000	99.661056
2099.000000	99.661661
2098.000000	99.661984
2097.000000	99.662130
2096.000000	99.662529
2095.000000	99.663440
2094.000000	99.664655
2093.000000	99.665784
2092.000000	99.666706
2091.000000	99.667583
2090.000000	99.668578
2089.000000	99.669729
2088.000000	99.670981
2087.000000	99.672141
2086.000000	99.672868
2085.000000	99.672891
2084.000000	99.672244
2083.000000	99.671222
2082.000000	99.670198
2081.000000	99.669581
2080.000000	99.669770
2079.000000	99.670916
2078.000000	99.672708
2077.000000	99.674512
2076.000000	99.675812
2075.000000	99.676437
2074.000000	99.676447
2073.000000	99.676028
2072.000000	99.675494
2071.000000	99.675125
2070.000000	99.674905
2069.000000	99.674626
2068.000000	99.674301
2067.000000	99.674292
2066.000000	99.674872
2065.000000	99.675761
2064.000000	99.676268
2063.000000	99.675971
2062.000000	99.675067
2061.000000	99.674138
2060.000000	99.673613
2059.000000	99.673491
2058.000000	99.673529
2057.000000	99.673578
2056.000000	99.673711
2055.000000	99.674027
2054.000000	99.674407
2053.000000	99.674550
2052.000000	99.674295
2051.000000	99.673817
2050.000000	99.673405
2049.000000	99.673113
2048.000000	99.672722
2047.000000	99.672060
2046.000000	99.671221
2045.000000	99.670456
2044.000000	99.669898
2043.000000	99.669458
2042.000000	99.668967
2041.000000	99.668392
2040.000000	99.667852
2039.000000	99.667387
2038.000000	99.666742
2037.000000	99.665507
2036.000000	99.663551
2035.000000	99.661361
2034.000000	99.659828
2033.000000	99.659572
2032.000000	99.660453
2031.000000	99.661639
2030.000000	99.662285
2029.000000	99.662217
2028.000000	99.661925
2027.000000	99.661942
2026.000000	99.662240
2025.000000	99.662272
2024.000000	99.661591
2023.000000	99.660323
2022.000000	99.658977
2021.000000	99.657903
2020.000000	99.657090
2019.000000	99.656440
2018.000000	99.656083
2017.000000	99.656214
2016.000000	99.656599
2015.000000	99.656460
2014.000000	99.655107
2013.000000	99.652637
2012.000000	99.649976
2011.000000	99.648104
2010.000000	99.647244
2009.000000	99.646781
2008.000000	99.645846
2007.000000	99.644028
2006.000000	99.641717
2005.000000	99.639815
2004.000000	99.639010
2003.000000	99.639281
2002.000000	99.640013
2001.000000	99.640625
2000.000000	99.640855
1999.000000	99.640679
1998.000000	99.640267
1997.000000	99.640036
1996.000000	99.640575
1995.000000	99.642238
1994.000000	99.644706
1993.000000	99.646976
1992.000000	99.648009
1991.000000	99.647483
1990.000000	99.646013
1989.000000	99.644694
1988.000000	99.644254
1987.000000	99.644520
1986.000000	99.644656
1985.000000	99.644011
1984.000000	99.642738
1983.000000	99.641559
1982.000000	99.640969
1981.000000	99.640854
1980.000000	99.640776
1979.000000	99.640483
1978.000000	99.639988
1977.000000	99.639342
1976.000000	99.638635
1975.000000	99.638121
1974.000000	99.638071
1973.000000	99.638431
1972.000000	99.638796
1971.000000	99.638799
1970.000000	99.638444
1969.000000	99.638053
1968.000000	99.637962
1967.000000	99.638271
1966.000000	99.638776
1965.000000	99.639147
1964.000000	99.639185
1963.000000	99.638925
1962.000000	99.638563
1961.000000	99.638311
1960.000000	99.638242
1959.000000	99.638243
1958.000000	99.638084
1957.000000	99.637621
1956.000000	99.636958
1955.000000	99.636367
1954.000000	99.636035
1953.000000	99.635883
1952.000000	99.635656
1951.000000	99.635114
1950.000000	99.634145
1949.000000	99.632854
1948.000000	99.631601
1947.000000	99.630848
1946.000000	99.630849
1945.000000	99.631370
1944.000000	99.631780
1943.000000	99.631595
1942.000000	99.630885
1941.000000	99.630047
1940.000000	99.629223
1939.000000	99.628149
1938.000000	99.626624
1937.000000	99.624987
1936.000000	99.623947
1935.000000	99.623879
1934.000000	99.624354
1933.000000	99.624442
1932.000000	99.623688
1931.000000	99.622524
1930.000000	99.621738
1929.000000	99.621667
1928.000000	99.621875
1927.000000	99.621799
1926.000000	99.621356
1925.000000	99.620879
1924.000000	99.620576
1923.000000	99.620195
1922.000000	99.619418
1921.000000	99.618237
1920.000000	99.616751
1919.000000	99.614845
1918.000000	99.612416
1917.000000	99.609793
1916.000000	99.607600
1915.000000	99.606304
1914.000000	99.605985
1913.000000	99.606228
1912.000000	99.606214
1911.000000	99.605098
1910.000000	99.602650
1909.000000	99.599552
1908.000000	99.596813
1907.000000	99.595114
1906.000000	99.594435
1905.000000	99.594114
1904.000000	99.593242
1903.000000	99.591257
1902.000000	99.588576
1901.000000	99.586141
1900.000000	99.584234
1899.000000	99.582503
1898.000000	99.580872
1897.000000	99.579641
1896.000000	99.578535
1895.000000	99.576563
1894.000000	99.573708
1893.000000	99.571679
1892.000000	99.571997
1891.000000	99.574087
1890.000000	99.575816
1889.000000	99.575737
1888.000000	99.574165
1887.000000	99.572023
1886.000000	99.569618
1885.000000	99.566814
1884.000000	99.563688
1883.000000	99.560609
1882.000000	99.558113
1881.000000	99.556657
1880.000000	99.556175
1879.000000	99.556372
1878.000000	99.557265
1877.000000	99.558887
1876.000000	99.560594
1875.000000	99.561224
1874.000000	99.560493
1873.000000	99.559751
1872.000000	99.560542
1871.000000	99.562971
1870.000000	99.565933
1869.000000	99.568379
1868.000000	99.569464
1867.000000	99.568312
1866.000000	99.565001
1865.000000	99.561052
1864.000000	99.558330
1863.000000	99.557668
1862.000000	99.558780
1861.000000	99.561152
1860.000000	99.564198
1859.000000	99.566784
1858.000000	99.567837
1857.000000	99.567709
1856.000000	99.568142
1855.000000	99.570564
1854.000000	99.574875
1853.000000	99.579889
1852.000000	99.584071
1851.000000	99.586582
1850.000000	99.587644
1849.000000	99.588066
1848.000000	99.588680
1847.000000	99.589753
1846.000000	99.591099
1845.000000	99.592369
1844.000000	99.593294
1843.000000	99.593749
1842.000000	99.594096
1841.000000	99.594766
1840.000000	99.595344
1839.000000	99.595165
1838.000000	99.594346
1837.000000	99.594061
1836.000000	99.595383
1835.000000	99.597951
1834.000000	99.600405
1833.000000	99.601822
1832.000000	99.602363
1831.000000	99.602836
1830.000000	99.603505
1829.000000	99.603508
1828.000000	99.602390
1827.000000	99.601066
1826.000000	99.600712
1825.000000	99.601690
1824.000000	99.603326
1823.000000	99.604595
1822.000000	99.605105
1821.000000	99.604995
1820.000000	99.604470
1819.000000	99.603785
1818.000000	99.603323
1817.000000	99.603699
1816.000000	99.605129
1815.000000	99.606728
1814.000000	99.607353
1813.000000	99.606769
1812.000000	99.605900
1811.000000	99.605657
1810.000000	99.605948
1809.000000	99.606578
1808.000000	99.607634
1807.000000	99.608728
1806.000000	99.609158
1805.000000	99.609017
1804.000000	99.609284
1803.000000	99.610443
1802.000000	99.611985
1801.000000	99.613092
1800.000000	99.613625
1799.000000	99.613923
1798.000000	99.614279
1797.000000	99.615177
1796.000000	99.616693
1795.000000	99.617747
1794.000000	99.616815
1793.000000	99.613821
1792.000000	99.611330
1791.000000	99.611393
1790.000000	99.613159
1789.000000	99.615181
1788.000000	99.617080
1787.000000	99.619257
1786.000000	99.622279
1785.000000	99.626416
1784.000000	99.631092
1783.000000	99.634922
1782.000000	99.637402
1781.000000	99.638777
1780.000000	99.639687
1779.000000	99.640723
1778.000000	99.641960
1777.000000	99.643491
1776.000000	99.644881
1775.000000	99.645822
1774.000000	99.646815
1773.000000	99.648842
1772.000000	99.652272
1771.000000	99.655838
1770.000000	99.658402
1769.000000	99.660400
1768.000000	99.662569
1767.000000	99.664629
1766.000000	99.665730
1765.000000	99.665680
1764.000000	99.665381
1763.000000	99.665855
1762.000000	99.667612
1761.000000	99.670216
1760.000000	99.674255
1759.000000	99.681154
1758.000000	99.690784
1757.000000	99.701037
1756.000000	99.709107
1755.000000	99.714720
1754.000000	99.719624
1753.000000	99.724624
1752.000000	99.729263
1751.000000	99.733658
1750.000000	99.737487
1749.000000	99.739854
1748.000000	99.740758
1747.000000	99.741180
1746.000000	99.742116
1745.000000	99.742629
1744.000000	99.741560
1743.000000	99.739426
1742.000000	99.737531
1741.000000	99.736556
1740.000000	99.736698
1739.000000	99.737711
1738.000000	99.739290
1737.000000	99.741459
1736.000000	99.743653
1735.000000	99.744139
1734.000000	99.743395
1733.000000	99.742587
1732.000000	99.741623
1731.000000	99.739717
1730.000000	99.735230
1729.000000	99.729264
1728.000000	99.725263
1727.000000	99.724615
1726.000000	99.725200
1725.000000	99.723835
1724.000000	99.720609
1723.000000	99.718018
1722.000000	99.717267
1721.000000	99.717879
1720.000000	99.718788
1719.000000	99.718538
1718.000000	99.715558
1717.000000	99.710773
1716.000000	99.707610
1715.000000	99.706998
1714.000000	99.706194
1713.000000	99.703263
1712.000000	99.698960
1711.000000	99.694420
1710.000000	99.689838
1709.000000	99.685203
1708.000000	99.680711
1707.000000	99.676677
1706.000000	99.673095
1705.000000	99.670297
1704.000000	99.668389
1703.000000	99.667052
1702.000000	99.665728
1701.000000	99.664210
1700.000000	99.663038
1699.000000	99.660038
1698.000000	99.654247
1697.000000	99.647805
1696.000000	99.642450
1695.000000	99.637666
1694.000000	99.631890
1693.000000	99.625658
1692.000000	99.620081
1691.000000	99.615465
1690.000000	99.611872
1689.000000	99.609019
1688.000000	99.605948
1687.000000	99.602108
1686.000000	99.596884
1685.000000	99.590858
1684.000000	99.587761
1683.000000	99.586804
1682.000000	99.585378
1681.000000	99.584008
1680.000000	99.582569
1679.000000	99.581475
1678.000000	99.581520
1677.000000	99.582476
1676.000000	99.584049
1675.000000	99.586080
1674.000000	99.586882
1673.000000	99.583638
1672.000000	99.575735
1671.000000	99.565330
1670.000000	99.557378
1669.000000	99.554387
1668.000000	99.552606
1667.000000	99.549339
1666.000000	99.545462
1665.000000	99.541950
1664.000000	99.539369
1663.000000	99.537667
1662.000000	99.535804
1661.000000	99.531842
1660.000000	99.525158
1659.000000	99.517738
1658.000000	99.512617
1657.000000	99.510712
1656.000000	99.509129
1655.000000	99.503880
1654.000000	99.492431
1653.000000	99.480588
1652.000000	99.471154
1651.000000	99.463297
1650.000000	99.457965
1649.000000	99.453039
1648.000000	99.449299
1647.000000	99.450155
1646.000000	99.453040
1645.000000	99.453720
1644.000000	99.454541
1643.000000	99.457717
1642.000000	99.461989
1641.000000	99.465162
1640.000000	99.465937
1639.000000	99.464792
1638.000000	99.462839
1637.000000	99.461809
1636.000000	99.463923
1635.000000	99.467965
1634.000000	99.470203
1633.000000	99.471566
1632.000000	99.474414
1631.000000	99.478128
1630.000000	99.480959
1629.000000	99.481648
1628.000000	99.481452
1627.000000	99.483516
1626.000000	99.490076
1625.000000	99.500331
1624.000000	99.511567
1623.000000	99.521298
1622.000000	99.528675
1621.000000	99.534590
1620.000000	99.539887
1619.000000	99.544472
1618.000000	99.547461
1617.000000	99.548679
1616.000000	99.548844
1615.000000	99.549899
1614.000000	99.553984
1613.000000	99.560509
1612.000000	99.566844
1611.000000	99.570987
1610.000000	99.572897
1609.000000	99.573305
1608.000000	99.572984
1607.000000	99.573433
1606.000000	99.576577
1605.000000	99.582192
1604.000000	99.587649
1603.000000	99.591028
1602.000000	99.592890
1601.000000	99.595158
1600.000000	99.598853
1599.000000	99.603568
1598.000000	99.608501
1597.000000	99.613387
1596.000000	99.618618
1595.000000	99.624358
1594.000000	99.629819
1593.000000	99.633692
1592.000000	99.635353
1591.000000	99.635580
1590.000000	99.636104
1589.000000	99.638119
1588.000000	99.641327
1587.000000	99.644622
1586.000000	99.647312
1585.000000	99.649581
1584.000000	99.651559
1583.000000	99.653307
1582.000000	99.655070
1581.000000	99.656902
1580.000000	99.658522
1579.000000	99.659917
1578.000000	99.661487
1577.000000	99.663722
1576.000000	99.666761
1575.000000	99.669491
1574.000000	99.671453
1573.000000	99.673040
1572.000000	99.674456
1571.000000	99.676547
1570.000000	99.680604
1569.000000	99.685602
1568.000000	99.688476
1567.000000	99.688828
1566.000000	99.688476
1565.000000	99.689139
1564.000000	99.691088
1563.000000	99.693541
1562.000000	99.694920
1561.000000	99.694515
1560.000000	99.691791
1559.000000	99.691118
1558.000000	99.692422
1557.000000	99.692396
1556.000000	99.693025
1555.000000	99.694380
1554.000000	99.695353
1553.000000	99.695474
1552.000000	99.694775
1551.000000	99.693474
1550.000000	99.690919
1549.000000	99.686954
1548.000000	99.682682
1547.000000	99.679730
1546.000000	99.679033
1545.000000	99.680529
1544.000000	99.683569
1543.000000	99.687359
1542.000000	99.690788
1541.000000	99.691574
1540.000000	99.687358
1539.000000	99.679009
1538.000000	99.671340
1537.000000	99.666909
1536.000000	99.664290
1535.000000	99.661727
1534.000000	99.659627
1533.000000	99.659272
1532.000000	99.660193
1531.000000	99.661007
1530.000000	99.660770
1529.000000	99.659332
1528.000000	99.657478
1527.000000	99.656192
1526.000000	99.655496
1525.000000	99.653993
1524.000000	99.650375
1523.000000	99.644801
1522.000000	99.639714
1521.000000	99.638131
1520.000000	99.639253
1519.000000	99.640249
1518.000000	99.640013
1517.000000	99.639028
1516.000000	99.638066
1515.000000	99.636865
1514.000000	99.635219
1513.000000	99.633841
1512.000000	99.634061
1511.000000	99.636296
1510.000000	99.639032
1509.000000	99.640864
1508.000000	99.642216
1507.000000	99.644976
1506.000000	99.646700
1505.000000	99.645586
1504.000000	99.645269
1503.000000	99.647145
1502.000000	99.649442
1501.000000	99.650369
1500.000000	99.649094
1499.000000	99.646117
1498.000000	99.642479
1497.000000	99.640110
1496.000000	99.641454
1495.000000	99.645724
1494.000000	99.649274
1493.000000	99.649896
1492.000000	99.648894
1491.000000	99.649889
1490.000000	99.654340
1489.000000	99.658728
1488.000000	99.660265
1487.000000	99.660203
1486.000000	99.660201
1485.000000	99.660612
1484.000000	99.660703
1483.000000	99.660834
1482.000000	99.661810
1481.000000	99.663081
1480.000000	99.663529
1479.000000	99.663580
1478.000000	99.665263
1477.000000	99.669705
1476.000000	99.675784
1475.000000	99.681462
1474.000000	99.687670
1473.000000	99.697151
1472.000000	99.708676
1471.000000	99.717941
1470.000000	99.724341
1469.000000	99.729746
1468.000000	99.734578
1467.000000	99.738140
1466.000000	99.740391
1465.000000	99.742390
1464.000000	99.744228
1463.000000	99.745259
1462.000000	99.745107
1461.000000	99.743832
1460.000000	99.741350
1459.000000	99.737771
1458.000000	99.733012
1457.000000	99.727132
1456.000000	99.720726
1455.000000	99.716398
1454.000000	99.715749
1453.000000	99.716858
1452.000000	99.718122
1451.000000	99.719686
1450.000000	99.722031
1449.000000	99.724546
1448.000000	99.725424
1447.000000	99.722772
1446.000000	99.717540
1445.000000	99.712470
1444.000000	99.709169
1443.000000	99.707355
1442.000000	99.705972
1441.000000	99.705432
1440.000000	99.706999
1439.000000	99.710482
1438.000000	99.712484
1437.000000	99.709490
1436.000000	99.702949
1435.000000	99.698059
1434.000000	99.696839
1433.000000	99.697439
1432.000000	99.698033
1431.000000	99.698491
1430.000000	99.699071
1429.000000	99.699226
1428.000000	99.698543
1427.000000	99.696891
1426.000000	99.694385
1425.000000	99.691188
1424.000000	99.688124
1423.000000	99.686230
1422.000000	99.685282
1421.000000	99.684619
1420.000000	99.684744
1419.000000	99.686979
1418.000000	99.690051
1417.000000	99.691438
1416.000000	99.691341
1415.000000	99.691283
1414.000000	99.691918
1413.000000	99.692845
1412.000000	99.693712
1411.000000	99.694850
1410.000000	99.696182
1409.000000	99.696925
1408.000000	99.696951
1407.000000	99.696975
1406.000000	99.697490
1405.000000	99.697758
1404.000000	99.696795
1403.000000	99.695151
1402.000000	99.694313
1401.000000	99.695348
1400.000000	99.698560
1399.000000	99.703248
1398.000000	99.707401
1397.000000	99.709424
1396.000000	99.709724
1395.000000	99.710058
1394.000000	99.711556
1393.000000	99.713360
1392.000000	99.714382
1391.000000	99.714741
1390.000000	99.715134
1389.000000	99.716024
1388.000000	99.717431
1387.000000	99.719116
1386.000000	99.720824
1385.000000	99.722455
1384.000000	99.723982
1383.000000	99.725464
1382.000000	99.727073
1381.000000	99.729067
1380.000000	99.731417
1379.000000	99.733549
1378.000000	99.734703
1377.000000	99.734612
1376.000000	99.733800
1375.000000	99.733249
1374.000000	99.733587
1373.000000	99.734417
1372.000000	99.735054
1371.000000	99.735364
1370.000000	99.735740
1369.000000	99.736475
1368.000000	99.737356
1367.000000	99.737999
1366.000000	99.738429
1365.000000	99.739244
1364.000000	99.740987
1363.000000	99.743094
1362.000000	99.743904
1361.000000	99.742677
1360.000000	99.740820
1359.000000	99.740299
1358.000000	99.741468
1357.000000	99.742940
1356.000000	99.743245
1355.000000	99.742201
1354.000000	99.740673
1353.000000	99.739565
1352.000000	99.739456
1351.000000	99.740414
1350.000000	99.741845
1349.000000	99.742550
1348.000000	99.741947
1347.000000	99.741036
1346.000000	99.741195
1345.000000	99.742216
1344.000000	99.742496
1343.000000	99.741256
1342.000000	99.739543
1341.000000	99.738757
1340.000000	99.738838
1339.000000	99.738618
1338.000000	99.737543
1337.000000	99.736052
1336.000000	99.734524
1335.000000	99.733065
1334.000000	99.732296
1333.000000	99.733293
1332.000000	99.736331
1331.000000	99.740080
1330.000000	99.742642
1329.000000	99.743317
1328.000000	99.743014
1327.000000	99.743000
1326.000000	99.743652
1325.000000	99.744288
1324.000000	99.744155
1323.000000	99.743329
1322.000000	99.742428
1321.000000	99.741700
1320.000000	99.740850
1319.000000	99.739911
1318.000000	99.739738
1317.000000	99.741043
1316.000000	99.743108
1315.000000	99.744155
1314.000000	99.743272
1313.000000	99.741591
1312.000000	99.741075
1311.000000	99.742089
1310.000000	99.742981
1309.000000	99.742199
1308.000000	99.740115
1307.000000	99.738370
1306.000000	99.738006
1305.000000	99.738694
1304.000000	99.739595
1303.000000	99.740208
1302.000000	99.740358
1301.000000	99.740122
1300.000000	99.739956
1299.000000	99.740434
1298.000000	99.741575
1297.000000	99.742747
1296.000000	99.743292
1295.000000	99.742972
1294.000000	99.741855
1293.000000	99.740294
1292.000000	99.739159
1291.000000	99.739516
1290.000000	99.741503
1289.000000	99.743635
1288.000000	99.743494
1287.000000	99.739271
1286.000000	99.731025
1285.000000	99.721003
1284.000000	99.712567
1283.000000	99.708049
1282.000000	99.707230
1281.000000	99.707950
1280.000000	99.708179
1279.000000	99.707273
1278.000000	99.705408
1277.000000	99.702780
1276.000000	99.699805
1275.000000	99.697550
1274.000000	99.697351
1273.000000	99.699835
1272.000000	99.704220
1271.000000	99.708435
1270.000000	99.710436
1269.000000	99.709971
1268.000000	99.708702
1267.000000	99.708069
1266.000000	99.707457
1265.000000	99.705455
1264.000000	99.702615
1263.000000	99.701456
1262.000000	99.703315
1261.000000	99.706318
1260.000000	99.707233
1259.000000	99.704938
1258.000000	99.701361
1257.000000	99.698983
1256.000000	99.697760
1255.000000	99.694885
1254.000000	99.688109
1253.000000	99.679021
1252.000000	99.671646
1251.000000	99.667300
1250.000000	99.662614
1249.000000	99.654171
1248.000000	99.643549
1247.000000	99.635458
1246.000000	99.631497
1245.000000	99.628377
1244.000000	99.622446
1243.000000	99.613492
1242.000000	99.603550
1241.000000	99.594273
1240.000000	99.586657
1239.000000	99.581606
1238.000000	99.579045
1237.000000	99.576894
1236.000000	99.571815
1235.000000	99.561195
1234.000000	99.545068
1233.000000	99.526806
1232.000000	99.511223
1231.000000	99.500774
1230.000000	99.493927
1229.000000	99.487938
1228.000000	99.481626
1227.000000	99.473667
1226.000000	99.460165
1225.000000	99.437496
1224.000000	99.407367
1223.000000	99.376091
1222.000000	99.348316
1221.000000	99.323763
1220.000000	99.299987
1219.000000	99.275055
1218.000000	99.247019
1217.000000	99.214241
1216.000000	99.177666
1215.000000	99.140125
1214.000000	99.102273
1213.000000	99.062080
1212.000000	99.019384
1211.000000	98.977400
1210.000000	98.937686
1209.000000	98.896953
1208.000000	98.851900
1207.000000	98.804978
1206.000000	98.762442
1205.000000	98.727719
1204.000000	98.698650
1203.000000	98.670105
1202.000000	98.637788
1201.000000	98.600790
1200.000000	98.561970
1199.000000	98.525187
1198.000000	98.491464
1197.000000	98.458664
1196.000000	98.424418
1195.000000	98.387376
1194.000000	98.346224
1193.000000	98.300679
1192.000000	98.253847
1191.000000	98.210395
1190.000000	98.171178
1189.000000	98.132341
1188.000000	98.090500
1187.000000	98.045769
1186.000000	97.998892
1185.000000	97.949177
1184.000000	97.897389
1183.000000	97.847424
1182.000000	97.802084
1181.000000	97.758957
1180.000000	97.713027
1179.000000	97.662313
1178.000000	97.609267
1177.000000	97.557441
1176.000000	97.507824
1175.000000	97.457714
1174.000000	97.402832
1173.000000	97.341564
1172.000000	97.276878
1171.000000	97.212972
1170.000000	97.151354
1169.000000	97.092293
1168.000000	97.038177
1167.000000	96.991729
1166.000000	96.952377
1165.000000	96.919001
1164.000000	96.895672
1163.000000	96.889478
1162.000000	96.902069
1161.000000	96.927185
1160.000000	96.955859
1159.000000	96.979702
1158.000000	96.990467
1157.000000	96.982949
1156.000000	96.959572
1155.000000	96.927733
1154.000000	96.891595
1153.000000	96.850234
1152.000000	96.803652
1151.000000	96.755004
1150.000000	96.705938
1149.000000	96.655246
1148.000000	96.603596
1147.000000	96.554499
1146.000000	96.509170
1145.000000	96.465441
1144.000000	96.422844
1143.000000	96.383113
1142.000000	96.344247
1141.000000	96.300227
1140.000000	96.248991
1139.000000	96.195375
1138.000000	96.144043
1137.000000	96.094883
1136.000000	96.047736
1135.000000	96.005584
1134.000000	95.969295
1133.000000	95.933901
1132.000000	95.893762
1131.000000	95.848149
1130.000000	95.799642
1129.000000	95.750477
1128.000000	95.701974
1127.000000	95.653810
1126.000000	95.602974
1125.000000	95.547873
1124.000000	95.493723
1123.000000	95.448201
1122.000000	95.410698
1121.000000	95.371876
1120.000000	95.325483
1119.000000	95.274712
1118.000000	95.225055
1117.000000	95.177453
1116.000000	95.131204
1115.000000	95.086884
1114.000000	95.042476
1113.000000	94.992583
1112.000000	94.935888
1111.000000	94.878396
1110.000000	94.825602
1109.000000	94.776819
1108.000000	94.730576
1107.000000	94.689030
1106.000000	94.652463
1105.000000	94.615545
1104.000000	94.574328
1103.000000	94.531951
1102.000000	94.492524
1101.000000	94.453848
1100.000000	94.410965
1099.000000	94.363173
1098.000000	94.314081
1097.000000	94.267703
1096.000000	94.226651
1095.000000	94.190594
1094.000000	94.155307
1093.000000	94.117875
1092.000000	94.082903
1091.000000	94.056937
1090.000000	94.035995
1089.000000	94.006755
1088.000000	93.962856
1087.000000	93.912988
1086.000000	93.870053
1085.000000	93.838699
1084.000000	93.815997
1083.000000	93.796901
1082.000000	93.775395
1081.000000	93.747025
1080.000000	93.714612
1079.000000	93.686832
1078.000000	93.668174
1077.000000	93.654299
1076.000000	93.638128
1075.000000	93.614975
1074.000000	93.581762
1073.000000	93.537979
1072.000000	93.487665
1071.000000	93.433363
1070.000000	93.368134
1069.000000	93.281905
1068.000000	93.176134
1067.000000	93.064073
1066.000000	92.955448
1065.000000	92.849559
1064.000000	92.745091
1063.000000	92.645988
1062.000000	92.554132
1061.000000	92.465619
1060.000000	92.377835
1059.000000	92.291819
1058.000000	92.205563
1057.000000	92.114536
1056.000000	92.021376
1055.000000	91.935117
1054.000000	91.857370
1053.000000	91.778688
1052.000000	91.692130
1051.000000	91.600355
1050.000000	91.505716
1049.000000	91.405321
1048.000000	91.300662
1047.000000	91.199443
1046.000000	91.102960
1045.000000	91.003470
1044.000000	90.897824
1043.000000	90.792485
1042.000000	90.691283
1041.000000	90.589299
1040.000000	90.483682
1039.000000	90.380267
1038.000000	90.284383
1037.000000	90.194723
1036.000000	90.110765
1035.000000	90.036440
1034.000000	89.971951
1033.000000	89.911213
1032.000000	89.851121
1031.000000	89.794498
1030.000000	89.741688
1029.000000	89.689711
1028.000000	89.641801
1027.000000	89.605882
1026.000000	89.580381
1025.000000	89.553263
1024.000000	89.518959
1023.000000	89.484288
1022.000000	89.453607
1021.000000	89.420718
1020.000000	89.380663
1019.000000	89.338180
1018.000000	89.298624
1017.000000	89.260296
1016.000000	89.220579
1015.000000	89.180464
1014.000000	89.139314
1013.000000	89.094400
1012.000000	89.048322
1011.000000	89.007261
1010.000000	88.970338
1009.000000	88.931664
1008.000000	88.894076
1007.000000	88.868045
1006.000000	88.854686
1005.000000	88.842939
1004.000000	88.826529
1003.000000	88.810321
1002.000000	88.796386
1001.000000	88.778522
1000.000000	88.756088
999.000000	88.739221
998.000000	88.733313
997.000000	88.730746
996.000000	88.724830
995.000000	88.720173
994.000000	88.721764
993.000000	88.725053
992.000000	88.724880
991.000000	88.724868
990.000000	88.730359
989.000000	88.740124
988.000000	88.751365
987.000000	88.765313
986.000000	88.782859
985.000000	88.802726
984.000000	88.828434
983.000000	88.868562
982.000000	88.925525
981.000000	88.992008
980.000000	89.062265
979.000000	89.138474
978.000000	89.222107
977.000000	89.308198
976.000000	89.392961
975.000000	89.479403
974.000000	89.571172
973.000000	89.667793
972.000000	89.768935
971.000000	89.876269
970.000000	89.988546
969.000000	90.101651
968.000000	90.214773
967.000000	90.329105
966.000000	90.440514
965.000000	90.543208
964.000000	90.641723
963.000000	90.748775
962.000000	90.868259
961.000000	90.989608
960.000000	91.101698
959.000000	91.203084
958.000000	91.296336
957.000000	91.382712
956.000000	91.466350
955.000000	91.553886
954.000000	91.644516
953.000000	91.728467
952.000000	91.799938
951.000000	91.863964
950.000000	91.926824
949.000000	91.987732
948.000000	92.044542
947.000000	92.099361
946.000000	92.152970
945.000000	92.201046
944.000000	92.241883
943.000000	92.281723
942.000000	92.326624
941.000000	92.373882
940.000000	92.416636
939.000000	92.452634
938.000000	92.484278
937.000000	92.514225
936.000000	92.544513
935.000000	92.576340
934.000000	92.608135
933.000000	92.637552
932.000000	92.666617
931.000000	92.700248
930.000000	92.739176
929.000000	92.780087
928.000000	92.822802
927.000000	92.869998
926.000000	92.919177
925.000000	92.963357
924.000000	93.001666
923.000000	93.040919
922.000000	93.083960
921.000000	93.124657
920.000000	93.157961
919.000000	93.187135
918.000000	93.216975
917.000000	93.247062
916.000000	93.275930
915.000000	93.305476
914.000000	93.337143
913.000000	93.369697
912.000000	93.404480
911.000000	93.447027
910.000000	93.500087
909.000000	93.560596
908.000000	93.626031
907.000000	93.697819
906.000000	93.776207
905.000000	93.858638
904.000000	93.945690
903.000000	94.041644
902.000000	94.146535
901.000000	94.254421
900.000000	94.361752
899.000000	94.470611
898.000000	94.581962
897.000000	94.693408
896.000000	94.805618
895.000000	94.922131
894.000000	95.039287
893.000000	95.145066
892.000000	95.232987
891.000000	95.310170
890.000000	95.386940
889.000000	95.464837
888.000000	95.540161
887.000000	95.612896
886.000000	95.685557
885.000000	95.757726
884.000000	95.827642
883.000000	95.896028
882.000000	95.964064
881.000000	96.031320
880.000000	96.099649
879.000000	96.174463
878.000000	96.257476
877.000000	96.342606
876.000000	96.423795
875.000000	96.502448
874.000000	96.582578
873.000000	96.663145
872.000000	96.740420
871.000000	96.814133
870.000000	96.886228
869.000000	96.956509
868.000000	97.023889
867.000000	97.089550
866.000000	97.155600
865.000000	97.223199
864.000000	97.294487
863.000000	97.372228
862.000000	97.453727
861.000000	97.529404
860.000000	97.592728
859.000000	97.648899
858.000000	97.708247
857.000000	97.772643
856.000000	97.834275
855.000000	97.887043
854.000000	97.932888
853.000000	97.976027
852.000000	98.016964
851.000000	98.055491
850.000000	98.095088
849.000000	98.138779
848.000000	98.181194
847.000000	98.209731
846.000000	98.216812
845.000000	98.209915
844.000000	98.206715
843.000000	98.218595
842.000000	98.239424
841.000000	98.251469
840.000000	98.241052
839.000000	98.207658
838.000000	98.160738
837.000000	98.111354
836.000000	98.066945
835.000000	98.030583
834.000000	98.002556
833.000000	97.982641
832.000000	97.970571
831.000000	97.963772
830.000000	97.957450
829.000000	97.950908
828.000000	97.952105
827.000000	97.970009
826.000000	98.001666
825.000000	98.032337
824.000000	98.049676
823.000000	98.052817
822.000000	98.047843
821.000000	98.040985
820.000000	98.036718
819.000000	98.034931
818.000000	98.027666
817.000000	98.004644
816.000000	97.964632
815.000000	97.916936
814.000000	97.868972
813.000000	97.815695
812.000000	97.742999
811.000000	97.637359
810.000000	97.490796
809.000000	97.302310
808.000000	97.078810
807.000000	96.831122
806.000000	96.565470
805.000000	96.282867
804.000000	95.990655
803.000000	95.709631
802.000000	95.463947
801.000000	95.266988
800.000000	95.120178
799.000000	95.019520
798.000000	94.959283
797.000000	94.935254
796.000000	94.948156
795.000000	94.997824
794.000000	95.070850
793.000000	95.141549
792.000000	95.190881
791.000000	95.219881
790.000000	95.240577
789.000000	95.258573
788.000000	95.268649
787.000000	95.262341
786.000000	95.233952
785.000000	95.181609
784.000000	95.107671
783.000000	95.018512
782.000000	94.922599
781.000000	94.830283
780.000000	94.755264
779.000000	94.711253
778.000000	94.704213
777.000000	94.730465
776.000000	94.782675
775.000000	94.853565
774.000000	94.934648
773.000000	95.018432
772.000000	95.103627
771.000000	95.192488
770.000000	95.281215
769.000000	95.358228
768.000000	95.413992
767.000000	95.448431
766.000000	95.468056
765.000000	95.480950
764.000000	95.495590
763.000000	95.518141
762.000000	95.547091
761.000000	95.574445
760.000000	95.595287
759.000000	95.614169
758.000000	95.641677
757.000000	95.687383
756.000000	95.754241
755.000000	95.833611
754.000000	95.906580
753.000000	95.958207
752.000000	95.992252
751.000000	96.026182
750.000000	96.071138
749.000000	96.123264
748.000000	96.174971
747.000000	96.225623
746.000000	96.277675
745.000000	96.330948
744.000000	96.386685
743.000000	96.450732
742.000000	96.526009
741.000000	96.606427
740.000000	96.684160
739.000000	96.759155
738.000000	96.836200
737.000000	96.916013
736.000000	96.994874
735.000000	97.070525
734.000000	97.142416
733.000000	97.206916
732.000000	97.257696
731.000000	97.292021
730.000000	97.313899
729.000000	97.330602
728.000000	97.347969
727.000000	97.368667
726.000000	97.392610
725.000000	97.418598
724.000000	97.446443
723.000000	97.477333
722.000000	97.511653
721.000000	97.547441
720.000000	97.582313
719.000000	97.616681
718.000000	97.654154
717.000000	97.698299
716.000000	97.748613
715.000000	97.799295
714.000000	97.843078
713.000000	97.877401
712.000000	97.905711
711.000000	97.931683
710.000000	97.953901
709.000000	97.968348
708.000000	97.973919
707.000000	97.972365
706.000000	97.964151
705.000000	97.947654
704.000000	97.921687
703.000000	97.884777
702.000000	97.831260
701.000000	97.751557
700.000000	97.638537
699.000000	97.493873
698.000000	97.330460
697.000000	97.171545
696.000000	97.045289
695.000000	96.973889
694.000000	96.964006
693.000000	97.006420
692.000000	97.083146
691.000000	97.175379
690.000000	97.269901
689.000000	97.361693
688.000000	97.448466
687.000000	97.522232
686.000000	97.572747
685.000000	97.602550
684.000000	97.630470
683.000000	97.673092
682.000000	97.727429
681.000000	97.778066
680.000000	97.817448
679.000000	97.851602
678.000000	97.888294
677.000000	97.928448
676.000000	97.969614
675.000000	98.009885
674.000000	98.048293
673.000000	98.085622
672.000000	98.122540
671.000000	98.153069
670.000000	98.164306
669.000000	98.150898
668.000000	98.136817
667.000000	98.159593
666.000000	98.215567
665.000000	98.272216
664.000000	98.316829
663.000000	98.357732
662.000000	98.400615
661.000000	98.436986
660.000000	98.456253
659.000000	98.460027
658.000000	98.458936
657.000000	98.460931
656.000000	98.468064
655.000000	98.480003
654.000000	98.495548
653.000000	98.513707
652.000000	98.535620
651.000000	98.562102
650.000000	98.588828
649.000000	98.610366
648.000000	98.630418
647.000000	98.660181
646.000000	98.702938
645.000000	98.747868
644.000000	98.785020
643.000000	98.820522
642.000000	98.869913
641.000000	98.938901
640.000000	99.016037
639.000000	99.081705
638.000000	99.120744
637.000000	99.128736
636.000000	99.111906
635.000000	99.085730
634.000000	99.070509
633.000000	99.082928
632.000000	99.129839
631.000000	99.204014
630.000000	99.282521
629.000000	99.336595
628.000000	99.349622
627.000000	99.329308
626.000000	99.306171
625.000000	99.315303
624.000000	99.372808
623.000000	99.465476
622.000000	99.561537
621.000000	99.635298
620.000000	99.680065
619.000000	99.701107
618.000000	99.709064
617.000000	99.720581
616.000000	99.751195
615.000000	99.798405
614.000000	99.838255
613.000000	99.846125
612.000000	99.814421
611.000000	99.751276
610.000000	99.676196
609.000000	99.617660
608.000000	99.600779
607.000000	99.624256
606.000000	99.652829
605.000000	99.649761
604.000000	99.613898
603.000000	99.571717
602.000000	99.539898
601.000000	99.513175
600.000000	99.487297
599.000000	99.472996
598.000000	99.481348
597.000000	99.511261
596.000000	99.557547
595.000000	99.614353
594.000000	99.663526
593.000000	99.676272
592.000000	99.639506
591.000000	99.577787
590.000000	99.538597
589.000000	99.551374
588.000000	99.608175
587.000000	99.674465
586.000000	99.712969
585.000000	99.708108
584.000000	99.670838
583.000000	99.623701
582.000000	99.587333
581.000000	99.578869
580.000000	99.610587
579.000000	99.677166
578.000000	99.751962
577.000000	99.814700
576.000000	99.873621
575.000000	99.943127
574.000000	100.008079
573.000000	100.033097
572.000000	100.000286
571.000000	99.921718
570.000000	99.828604
569.000000	99.755274
568.000000	99.725181
567.000000	99.736208
566.000000	99.761004
565.000000	99.784422
564.000000	99.825554
563.000000	99.893890
562.000000	99.944251
561.000000	99.919996
560.000000	99.824243
559.000000	99.717289
558.000000	99.645364
557.000000	99.600741
556.000000	99.566498
555.000000	99.550619
554.000000	99.558915
553.000000	99.576833
552.000000	99.600717
551.000000	99.648767
550.000000	99.718242
