PE IR       SUBTECH     SPECTRUM    ASCII       PEDS        4.00        
   -1
BH1 8-5 19 50_1.asc
24/05/14
13:54:52.00
24/05/14
13:57:09.00
Administrator
?品 057 用? Administrator 日期 Tuesday, May 14 2024
550.000000
#HDR
-1
-1
#GR
cm-1
%T
1.0
0.0
4000.000000
-1.000000
3451
8
100.210804
78.712505
#DATA
4000.000000	100.016614
3999.000000	100.018107
3998.000000	100.015812
3997.000000	100.008563
3996.000000	99.998026
3995.000000	99.988428
3994.000000	99.982839
3993.000000	99.981959
3992.000000	99.984604
3991.000000	99.988470
3990.000000	99.991459
3989.000000	99.992668
3988.000000	99.992452
3987.000000	99.991714
3986.000000	99.990934
3985.000000	99.989797
3984.000000	99.987760
3983.000000	99.984928
3982.000000	99.982231
3981.000000	99.980785
3980.000000	99.981199
3979.000000	99.983336
3978.000000	99.986364
3977.000000	99.989033
3976.000000	99.990324
3975.000000	99.990065
3974.000000	99.988874
3973.000000	99.987455
3972.000000	99.985924
3971.000000	99.983880
3970.000000	99.981140
3969.000000	99.978382
3968.000000	99.976841
3967.000000	99.977185
3966.000000	99.978734
3965.000000	99.979852
3964.000000	99.979311
3963.000000	99.977196
3962.000000	99.974488
3961.000000	99.972060
3960.000000	99.970330
3959.000000	99.969540
3958.000000	99.970012
3957.000000	99.971995
3956.000000	99.975187
3955.000000	99.978497
3954.000000	99.980492
3953.000000	99.980336
3952.000000	99.978280
3951.000000	99.975501
3950.000000	99.973347
3949.000000	99.972442
3948.000000	99.972456
3947.000000	99.972613
3946.000000	99.972318
3945.000000	99.971355
3944.000000	99.969861
3943.000000	99.968475
3942.000000	99.968217
3941.000000	99.969666
3940.000000	99.972317
3939.000000	99.974857
3938.000000	99.976108
3937.000000	99.975931
3936.000000	99.975366
3935.000000	99.975891
3934.000000	99.978253
3933.000000	99.981845
3932.000000	99.985153
3931.000000	99.987002
3930.000000	99.987306
3929.000000	99.986764
3928.000000	99.986274
3927.000000	99.986523
3926.000000	99.987446
3925.000000	99.988068
3924.000000	99.987503
3923.000000	99.985938
3922.000000	99.984404
3921.000000	99.983663
3920.000000	99.983551
3919.000000	99.983368
3918.000000	99.982721
3917.000000	99.981956
3916.000000	99.981778
3915.000000	99.982470
3914.000000	99.983555
3913.000000	99.984174
3912.000000	99.983902
3911.000000	99.982965
3910.000000	99.981892
3909.000000	99.981051
3908.000000	99.980572
3907.000000	99.980544
3906.000000	99.981023
3905.000000	99.981776
3904.000000	99.982306
3903.000000	99.982218
3902.000000	99.981512
3901.000000	99.980599
3900.000000	99.979998
3899.000000	99.980060
3898.000000	99.980798
3897.000000	99.981786
3896.000000	99.982454
3895.000000	99.982490
3894.000000	99.982032
3893.000000	99.981388
3892.000000	99.980629
3891.000000	99.979532
3890.000000	99.978100
3889.000000	99.976933
3888.000000	99.976901
3887.000000	99.978275
3886.000000	99.980298
3885.000000	99.981893
3884.000000	99.982655
3883.000000	99.982629
3882.000000	99.981807
3881.000000	99.980462
3880.000000	99.979578
3879.000000	99.980160
3878.000000	99.982198
3877.000000	99.984653
3876.000000	99.986031
3875.000000	99.985096
3874.000000	99.981653
3873.000000	99.976963
3872.000000	99.972865
3871.000000	99.970252
3870.000000	99.968883
3869.000000	99.968549
3868.000000	99.969749
3867.000000	99.972782
3866.000000	99.976676
3865.000000	99.979732
3864.000000	99.981486
3863.000000	99.982825
3862.000000	99.984356
3861.000000	99.985552
3860.000000	99.985594
3859.000000	99.984018
3858.000000	99.981005
3857.000000	99.977429
3856.000000	99.974764
3855.000000	99.973847
3854.000000	99.973914
3853.000000	99.974375
3852.000000	99.975958
3851.000000	99.978833
3850.000000	99.982248
3849.000000	99.985086
3848.000000	99.986547
3847.000000	99.986473
3846.000000	99.985359
3845.000000	99.984293
3844.000000	99.984403
3843.000000	99.985760
3842.000000	99.987558
3841.000000	99.988935
3840.000000	99.989455
3839.000000	99.989154
3838.000000	99.988468
3837.000000	99.987745
3836.000000	99.987018
3835.000000	99.986237
3834.000000	99.985576
3833.000000	99.985195
3832.000000	99.985035
3831.000000	99.985153
3830.000000	99.985961
3829.000000	99.987880
3828.000000	99.990695
3827.000000	99.993113
3826.000000	99.993629
3825.000000	99.991841
3824.000000	99.988646
3823.000000	99.985387
3822.000000	99.982879
3821.000000	99.981379
3820.000000	99.981027
3819.000000	99.981711
3818.000000	99.982946
3817.000000	99.983991
3816.000000	99.984271
3815.000000	99.984081
3814.000000	99.984184
3813.000000	99.984684
3812.000000	99.984980
3811.000000	99.984685
3810.000000	99.984128
3809.000000	99.983962
3808.000000	99.984336
3807.000000	99.984699
3806.000000	99.984624
3805.000000	99.984312
3804.000000	99.984164
3803.000000	99.984076
3802.000000	99.983494
3801.000000	99.982313
3800.000000	99.981176
3799.000000	99.980645
3798.000000	99.980721
3797.000000	99.981033
3796.000000	99.981125
3795.000000	99.980823
3794.000000	99.980274
3793.000000	99.979661
3792.000000	99.979035
3791.000000	99.978447
3790.000000	99.978012
3789.000000	99.977856
3788.000000	99.977984
3787.000000	99.978285
3786.000000	99.978512
3785.000000	99.978360
3784.000000	99.977833
3783.000000	99.977495
3782.000000	99.978009
3781.000000	99.979306
3780.000000	99.980572
3779.000000	99.981159
3778.000000	99.981279
3777.000000	99.981380
3776.000000	99.981316
3775.000000	99.980393
3774.000000	99.978497
3773.000000	99.976860
3772.000000	99.977117
3771.000000	99.979322
3770.000000	99.981644
3769.000000	99.982235
3768.000000	99.980582
3767.000000	99.977236
3766.000000	99.973204
3765.000000	99.969755
3764.000000	99.968412
3763.000000	99.970453
3762.000000	99.975864
3761.000000	99.982698
3760.000000	99.988582
3759.000000	99.992845
3758.000000	99.996015
3757.000000	99.997806
3756.000000	99.997346
3755.000000	99.994645
3754.000000	99.990788
3753.000000	99.986904
3752.000000	99.983494
3751.000000	99.980704
3750.000000	99.978040
3749.000000	99.974108
3748.000000	99.968895
3747.000000	99.965304
3746.000000	99.965920
3745.000000	99.968931
3744.000000	99.969938
3743.000000	99.968404
3742.000000	99.967302
3741.000000	99.967857
3740.000000	99.968799
3739.000000	99.969101
3738.000000	99.968993
3737.000000	99.968470
3736.000000	99.966520
3735.000000	99.962776
3734.000000	99.958538
3733.000000	99.955044
3732.000000	99.952622
3731.000000	99.951539
3730.000000	99.952155
3729.000000	99.954195
3728.000000	99.955581
3727.000000	99.953368
3726.000000	99.947036
3725.000000	99.940058
3724.000000	99.936344
3723.000000	99.936160
3722.000000	99.936930
3721.000000	99.936170
3720.000000	99.933485
3719.000000	99.930250
3718.000000	99.927425
3717.000000	99.924690
3716.000000	99.921927
3715.000000	99.920083
3714.000000	99.919829
3713.000000	99.919596
3712.000000	99.916888
3711.000000	99.911846
3710.000000	99.907152
3709.000000	99.903922
3708.000000	99.899605
3707.000000	99.890426
3706.000000	99.875211
3705.000000	99.857031
3704.000000	99.841244
3703.000000	99.831365
3702.000000	99.826649
3701.000000	99.823562
3700.000000	99.819770
3699.000000	99.816378
3698.000000	99.815655
3697.000000	99.817498
3696.000000	99.819539
3695.000000	99.819901
3694.000000	99.818403
3693.000000	99.815617
3692.000000	99.812114
3691.000000	99.808074
3690.000000	99.803373
3689.000000	99.798436
3688.000000	99.794252
3687.000000	99.791128
3686.000000	99.788871
3685.000000	99.787004
3684.000000	99.785207
3683.000000	99.784270
3682.000000	99.785224
3681.000000	99.786844
3680.000000	99.785144
3679.000000	99.778241
3678.000000	99.769727
3677.000000	99.763536
3676.000000	99.756473
3675.000000	99.742972
3674.000000	99.723473
3673.000000	99.703177
3672.000000	99.686797
3671.000000	99.673861
3670.000000	99.660502
3669.000000	99.646549
3668.000000	99.635605
3667.000000	99.629195
3666.000000	99.625378
3665.000000	99.620488
3664.000000	99.611898
3663.000000	99.600147
3662.000000	99.588006
3661.000000	99.577945
3660.000000	99.570447
3659.000000	99.564404
3658.000000	99.557781
3657.000000	99.548717
3656.000000	99.537582
3655.000000	99.527472
3654.000000	99.521662
3653.000000	99.521508
3652.000000	99.525654
3651.000000	99.529347
3650.000000	99.526408
3649.000000	99.514468
3648.000000	99.496602
3647.000000	99.477585
3646.000000	99.461075
3645.000000	99.448777
3644.000000	99.440317
3643.000000	99.433893
3642.000000	99.427250
3641.000000	99.419179
3640.000000	99.409454
3639.000000	99.397574
3638.000000	99.382750
3637.000000	99.365633
3636.000000	99.348668
3635.000000	99.333717
3634.000000	99.320365
3633.000000	99.308065
3632.000000	99.298888
3631.000000	99.295715
3630.000000	99.296521
3629.000000	99.294904
3628.000000	99.290420
3627.000000	99.288584
3626.000000	99.291785
3625.000000	99.297390
3624.000000	99.301126
3623.000000	99.301147
3622.000000	99.300031
3621.000000	99.301842
3620.000000	99.308044
3619.000000	99.316838
3618.000000	99.325135
3617.000000	99.330598
3616.000000	99.333480
3615.000000	99.336164
3614.000000	99.341383
3613.000000	99.350581
3612.000000	99.362537
3611.000000	99.373467
3610.000000	99.379594
3609.000000	99.380246
3608.000000	99.379419
3607.000000	99.382705
3606.000000	99.391953
3605.000000	99.404762
3604.000000	99.417930
3603.000000	99.429725
3602.000000	99.439661
3601.000000	99.447202
3600.000000	99.452161
3599.000000	99.455623
3598.000000	99.458501
3597.000000	99.460337
3596.000000	99.460417
3595.000000	99.459562
3594.000000	99.460402
3593.000000	99.464956
3592.000000	99.472286
3591.000000	99.479877
3590.000000	99.485864
3589.000000	99.489478
3588.000000	99.490851
3587.000000	99.491411
3586.000000	99.492424
3585.000000	99.493444
3584.000000	99.492928
3583.000000	99.489677
3582.000000	99.483549
3581.000000	99.475976
3580.000000	99.469661
3579.000000	99.466980
3578.000000	99.468324
3577.000000	99.472020
3576.000000	99.475895
3575.000000	99.478517
3574.000000	99.479319
3573.000000	99.478381
3572.000000	99.476404
3571.000000	99.474701
3570.000000	99.474474
3569.000000	99.475095
3568.000000	99.473867
3567.000000	99.469487
3566.000000	99.464748
3565.000000	99.463482
3564.000000	99.466530
3563.000000	99.471457
3562.000000	99.474830
3561.000000	99.474935
3560.000000	99.472638
3559.000000	99.470012
3558.000000	99.468331
3557.000000	99.467416
3556.000000	99.466576
3555.000000	99.465639
3554.000000	99.465017
3553.000000	99.465184
3552.000000	99.466167
3551.000000	99.467407
3550.000000	99.468092
3549.000000	99.467730
3548.000000	99.466463
3547.000000	99.464935
3546.000000	99.463825
3545.000000	99.463401
3544.000000	99.463505
3543.000000	99.463811
3542.000000	99.464047
3541.000000	99.464101
3540.000000	99.464011
3539.000000	99.463927
3538.000000	99.464033
3537.000000	99.464427
3536.000000	99.465050
3535.000000	99.465685
3534.000000	99.466089
3533.000000	99.466141
3532.000000	99.465925
3531.000000	99.465693
3530.000000	99.465648
3529.000000	99.465800
3528.000000	99.466072
3527.000000	99.466513
3526.000000	99.467256
3525.000000	99.468197
3524.000000	99.468870
3523.000000	99.468861
3522.000000	99.468262
3521.000000	99.467681
3520.000000	99.467662
3519.000000	99.468188
3518.000000	99.468721
3517.000000	99.468788
3516.000000	99.468585
3515.000000	99.468884
3514.000000	99.470331
3513.000000	99.472783
3512.000000	99.475265
3511.000000	99.476661
3510.000000	99.476540
3509.000000	99.475237
3508.000000	99.473306
3507.000000	99.471118
3506.000000	99.469072
3505.000000	99.467847
3504.000000	99.467994
3503.000000	99.469254
3502.000000	99.470575
3501.000000	99.471161
3500.000000	99.471344
3499.000000	99.472083
3498.000000	99.473827
3497.000000	99.476126
3496.000000	99.478300
3495.000000	99.480017
3494.000000	99.481003
3493.000000	99.480724
3492.000000	99.478929
3491.000000	99.476251
3490.000000	99.473844
3489.000000	99.472345
3488.000000	99.471623
3487.000000	99.471419
3486.000000	99.471685
3485.000000	99.472186
3484.000000	99.472281
3483.000000	99.471407
3482.000000	99.469621
3481.000000	99.467493
3480.000000	99.465671
3479.000000	99.464703
3478.000000	99.464936
3477.000000	99.466208
3476.000000	99.467700
3475.000000	99.468497
3474.000000	99.468401
3473.000000	99.467878
3472.000000	99.467324
3471.000000	99.466665
3470.000000	99.465774
3469.000000	99.464950
3468.000000	99.464708
3467.000000	99.465163
3466.000000	99.465865
3465.000000	99.466144
3464.000000	99.465547
3463.000000	99.464068
3462.000000	99.462165
3461.000000	99.460488
3460.000000	99.459396
3459.000000	99.458781
3458.000000	99.458436
3457.000000	99.458463
3456.000000	99.459069
3455.000000	99.459978
3454.000000	99.460415
3453.000000	99.459837
3452.000000	99.458482
3451.000000	99.457047
3450.000000	99.455965
3449.000000	99.455181
3448.000000	99.454558
3447.000000	99.454186
3446.000000	99.454179
3445.000000	99.454340
3444.000000	99.454257
3443.000000	99.453684
3442.000000	99.452830
3441.000000	99.452324
3440.000000	99.452808
3439.000000	99.454284
3438.000000	99.455779
3437.000000	99.455948
3436.000000	99.454242
3435.000000	99.451306
3434.000000	99.448119
3433.000000	99.444866
3432.000000	99.441189
3431.000000	99.437518
3430.000000	99.435413
3429.000000	99.436114
3428.000000	99.439095
3427.000000	99.442225
3426.000000	99.443584
3425.000000	99.442838
3424.000000	99.440857
3423.000000	99.438618
3422.000000	99.436560
3421.000000	99.434760
3420.000000	99.433364
3419.000000	99.432765
3418.000000	99.433363
3417.000000	99.435126
3416.000000	99.437315
3415.000000	99.438870
3414.000000	99.439343
3413.000000	99.439343
3412.000000	99.439857
3411.000000	99.441129
3410.000000	99.442373
3409.000000	99.442635
3408.000000	99.441814
3407.000000	99.440751
3406.000000	99.440383
3405.000000	99.440906
3404.000000	99.441780
3403.000000	99.442356
3402.000000	99.442405
3401.000000	99.442090
3400.000000	99.441678
3399.000000	99.441434
3398.000000	99.441651
3397.000000	99.442543
3396.000000	99.444011
3395.000000	99.445625
3394.000000	99.446903
3393.000000	99.447610
3392.000000	99.447811
3391.000000	99.447748
3390.000000	99.447701
3389.000000	99.447854
3388.000000	99.448157
3387.000000	99.448369
3386.000000	99.448317
3385.000000	99.448135
3384.000000	99.448209
3383.000000	99.448816
3382.000000	99.449851
3381.000000	99.450930
3380.000000	99.451735
3379.000000	99.452238
3378.000000	99.452617
3377.000000	99.453072
3376.000000	99.453665
3375.000000	99.454291
3374.000000	99.454776
3373.000000	99.455019
3372.000000	99.455074
3371.000000	99.455140
3370.000000	99.455422
3369.000000	99.456001
3368.000000	99.456827
3367.000000	99.457764
3366.000000	99.458660
3365.000000	99.459416
3364.000000	99.460021
3363.000000	99.460554
3362.000000	99.461122
3361.000000	99.461784
3360.000000	99.462512
3359.000000	99.463224
3358.000000	99.463850
3357.000000	99.464381
3356.000000	99.464859
3355.000000	99.465336
3354.000000	99.465852
3353.000000	99.466432
3352.000000	99.467085
3351.000000	99.467799
3350.000000	99.468548
3349.000000	99.469310
3348.000000	99.470070
3347.000000	99.470804
3346.000000	99.471487
3345.000000	99.472119
3344.000000	99.472754
3343.000000	99.473467
3342.000000	99.474278
3341.000000	99.475140
3340.000000	99.475979
3339.000000	99.476770
3338.000000	99.477544
3337.000000	99.478351
3336.000000	99.479228
3335.000000	99.480186
3334.000000	99.481216
3333.000000	99.482275
3332.000000	99.483306
3331.000000	99.484265
3330.000000	99.485152
3329.000000	99.486022
3328.000000	99.486946
3327.000000	99.487963
3326.000000	99.489039
3325.000000	99.490080
3324.000000	99.491006
3323.000000	99.491813
3322.000000	99.492581
3321.000000	99.493397
3320.000000	99.494325
3319.000000	99.495400
3318.000000	99.496600
3317.000000	99.497822
3316.000000	99.498916
3315.000000	99.499791
3314.000000	99.500474
3313.000000	99.501117
3312.000000	99.501913
3311.000000	99.502978
3310.000000	99.504322
3309.000000	99.505865
3308.000000	99.507459
3307.000000	99.508930
3306.000000	99.510147
3305.000000	99.511083
3304.000000	99.511846
3303.000000	99.512589
3302.000000	99.513394
3301.000000	99.514257
3300.000000	99.515151
3299.000000	99.516076
3298.000000	99.517035
3297.000000	99.518000
3296.000000	99.518927
3295.000000	99.519808
3294.000000	99.520668
3293.000000	99.521531
3292.000000	99.522390
3291.000000	99.523224
3290.000000	99.524021
3289.000000	99.524788
3288.000000	99.525549
3287.000000	99.526342
3286.000000	99.527158
3285.000000	99.527913
3284.000000	99.528534
3283.000000	99.529052
3282.000000	99.529575
3281.000000	99.530200
3280.000000	99.530925
3279.000000	99.531686
3278.000000	99.532418
3277.000000	99.533097
3276.000000	99.533734
3275.000000	99.534354
3274.000000	99.534978
3273.000000	99.535613
3272.000000	99.536249
3271.000000	99.536856
3270.000000	99.537415
3269.000000	99.537919
3268.000000	99.538378
3267.000000	99.538808
3266.000000	99.539228
3265.000000	99.539649
3264.000000	99.540074
3263.000000	99.540496
3262.000000	99.540915
3261.000000	99.541338
3260.000000	99.541785
3259.000000	99.542270
3258.000000	99.542790
3257.000000	99.543327
3256.000000	99.543858
3255.000000	99.544367
3254.000000	99.544848
3253.000000	99.545313
3252.000000	99.545788
3251.000000	99.546293
3250.000000	99.546837
3249.000000	99.547415
3248.000000	99.548009
3247.000000	99.548574
3246.000000	99.549061
3245.000000	99.549459
3244.000000	99.549808
3243.000000	99.550188
3242.000000	99.550665
3241.000000	99.551266
3240.000000	99.551951
3239.000000	99.552618
3238.000000	99.553185
3237.000000	99.553648
3236.000000	99.554060
3235.000000	99.554439
3234.000000	99.554762
3233.000000	99.555037
3232.000000	99.555366
3231.000000	99.555871
3230.000000	99.556563
3229.000000	99.557327
3228.000000	99.558038
3227.000000	99.558669
3226.000000	99.559281
3225.000000	99.559956
3224.000000	99.560730
3223.000000	99.561578
3222.000000	99.562433
3221.000000	99.563226
3220.000000	99.563928
3219.000000	99.564604
3218.000000	99.565385
3217.000000	99.566328
3216.000000	99.567289
3215.000000	99.568020
3214.000000	99.568419
3213.000000	99.568674
3212.000000	99.569134
3211.000000	99.569989
3210.000000	99.571171
3209.000000	99.572495
3208.000000	99.573815
3207.000000	99.575053
3206.000000	99.576136
3205.000000	99.577006
3204.000000	99.577660
3203.000000	99.578165
3202.000000	99.578633
3201.000000	99.579170
3200.000000	99.579817
3199.000000	99.580543
3198.000000	99.581303
3197.000000	99.582078
3196.000000	99.582820
3195.000000	99.583451
3194.000000	99.584016
3193.000000	99.584767
3192.000000	99.585904
3191.000000	99.587315
3190.000000	99.588635
3189.000000	99.589619
3188.000000	99.590346
3187.000000	99.591071
3186.000000	99.591936
3185.000000	99.592852
3184.000000	99.593682
3183.000000	99.594462
3182.000000	99.595394
3181.000000	99.596603
3180.000000	99.597900
3179.000000	99.598861
3178.000000	99.599228
3177.000000	99.599165
3176.000000	99.599185
3175.000000	99.599675
3174.000000	99.600607
3173.000000	99.601668
3172.000000	99.602591
3171.000000	99.603302
3170.000000	99.603809
3169.000000	99.604095
3168.000000	99.604222
3167.000000	99.604417
3166.000000	99.604912
3165.000000	99.605757
3164.000000	99.606784
3163.000000	99.607741
3162.000000	99.608444
3161.000000	99.608850
3160.000000	99.609066
3159.000000	99.609310
3158.000000	99.609799
3157.000000	99.610610
3156.000000	99.611646
3155.000000	99.612709
3154.000000	99.613589
3153.000000	99.614093
3152.000000	99.614101
3151.000000	99.613685
3150.000000	99.613216
3149.000000	99.613174
3148.000000	99.613785
3147.000000	99.614878
3146.000000	99.616110
3145.000000	99.617245
3144.000000	99.618201
3143.000000	99.619000
3142.000000	99.619839
3141.000000	99.621017
3140.000000	99.622605
3139.000000	99.624249
3138.000000	99.625468
3137.000000	99.626158
3136.000000	99.626624
3135.000000	99.627186
3134.000000	99.627919
3133.000000	99.628818
3132.000000	99.629978
3131.000000	99.631430
3130.000000	99.632938
3129.000000	99.634162
3128.000000	99.635018
3127.000000	99.635707
3126.000000	99.636493
3125.000000	99.637441
3124.000000	99.638434
3123.000000	99.639345
3122.000000	99.640157
3121.000000	99.640943
3120.000000	99.641784
3119.000000	99.642698
3118.000000	99.643645
3117.000000	99.644581
3116.000000	99.645495
3115.000000	99.646397
3114.000000	99.647296
3113.000000	99.648189
3112.000000	99.649076
3111.000000	99.649958
3110.000000	99.650837
3109.000000	99.651712
3108.000000	99.652582
3107.000000	99.653439
3106.000000	99.654276
3105.000000	99.655091
3104.000000	99.655888
3103.000000	99.656679
3102.000000	99.657470
3101.000000	99.658263
3100.000000	99.659052
3099.000000	99.659832
3098.000000	99.660602
3097.000000	99.661362
3096.000000	99.662117
3095.000000	99.662868
3094.000000	99.663616
3093.000000	99.664365
3092.000000	99.665125
3091.000000	99.665908
3090.000000	99.666713
3089.000000	99.667523
3088.000000	99.668309
3087.000000	99.669042
3086.000000	99.669722
3085.000000	99.670395
3084.000000	99.671119
3083.000000	99.671907
3082.000000	99.672714
3081.000000	99.673516
3080.000000	99.674341
3079.000000	99.675191
3078.000000	99.675987
3077.000000	99.676660
3076.000000	99.677243
3075.000000	99.677816
3074.000000	99.678406
3073.000000	99.679037
3072.000000	99.679812
3071.000000	99.680822
3070.000000	99.681991
3069.000000	99.683111
3068.000000	99.684055
3067.000000	99.684888
3066.000000	99.685766
3065.000000	99.686790
3064.000000	99.687965
3063.000000	99.689248
3062.000000	99.690560
3061.000000	99.691764
3060.000000	99.692695
3059.000000	99.693300
3058.000000	99.693791
3057.000000	99.694540
3056.000000	99.695701
3055.000000	99.696948
3054.000000	99.697736
3053.000000	99.697860
3052.000000	99.697636
3051.000000	99.697643
3050.000000	99.698187
3049.000000	99.699183
3048.000000	99.700333
3047.000000	99.701403
3046.000000	99.702334
3045.000000	99.703188
3044.000000	99.704081
3043.000000	99.705082
3042.000000	99.706096
3041.000000	99.706883
3040.000000	99.707281
3039.000000	99.707402
3038.000000	99.707603
3037.000000	99.708219
3036.000000	99.709339
3035.000000	99.710749
3034.000000	99.712022
3033.000000	99.712735
3032.000000	99.712782
3031.000000	99.712637
3030.000000	99.713142
3029.000000	99.714795
3028.000000	99.717281
3027.000000	99.719748
3026.000000	99.721572
3025.000000	99.722653
3024.000000	99.723143
3023.000000	99.723324
3022.000000	99.723726
3021.000000	99.724815
3020.000000	99.726332
3019.000000	99.727506
3018.000000	99.728341
3017.000000	99.729995
3016.000000	99.733073
3015.000000	99.736191
3014.000000	99.737327
3013.000000	99.736340
3012.000000	99.735062
3011.000000	99.735011
3010.000000	99.736236
3009.000000	99.738365
3008.000000	99.741347
3007.000000	99.744683
3006.000000	99.747400
3005.000000	99.749519
3004.000000	99.752355
3003.000000	99.756451
3002.000000	99.760144
3001.000000	99.761257
3000.000000	99.759828
2999.000000	99.758179
2998.000000	99.758409
2997.000000	99.760663
2996.000000	99.763785
2995.000000	99.767024
2994.000000	99.770678
2993.000000	99.775287
2992.000000	99.780700
2991.000000	99.786143
2990.000000	99.791095
2989.000000	99.795813
2988.000000	99.800861
2987.000000	99.806549
2986.000000	99.813079
2985.000000	99.820707
2984.000000	99.829063
2983.000000	99.836682
2982.000000	99.842089
2981.000000	99.845152
2980.000000	99.846733
2979.000000	99.847334
2978.000000	99.847089
2977.000000	99.846810
2976.000000	99.847682
2975.000000	99.849710
2974.000000	99.851616
2973.000000	99.852528
2972.000000	99.852747
2971.000000	99.852767
2970.000000	99.852839
2969.000000	99.853735
2968.000000	99.856323
2967.000000	99.859631
2966.000000	99.860806
2965.000000	99.858193
2964.000000	99.853470
2963.000000	99.849790
2962.000000	99.848803
2961.000000	99.850613
2960.000000	99.855054
2959.000000	99.860939
2958.000000	99.865111
2957.000000	99.864965
2956.000000	99.862124
2955.000000	99.861427
2954.000000	99.865587
2953.000000	99.872305
2952.000000	99.876976
2951.000000	99.876939
2950.000000	99.872677
2949.000000	99.866465
2948.000000	99.860958
2947.000000	99.858181
2946.000000	99.858746
2945.000000	99.862099
2944.000000	99.867598
2943.000000	99.874868
2942.000000	99.883188
2941.000000	99.891647
2940.000000	99.900178
2939.000000	99.909417
2938.000000	99.919022
2937.000000	99.927194
2936.000000	99.932667
2935.000000	99.936447
2934.000000	99.940795
2933.000000	99.947221
2932.000000	99.956201
2931.000000	99.968090
2930.000000	99.982752
2929.000000	99.998177
2928.000000	100.010714
2927.000000	100.017680
2926.000000	100.019565
2925.000000	100.019340
2924.000000	100.019448
2923.000000	100.019679
2922.000000	100.018115
2921.000000	100.013564
2920.000000	100.006328
2919.000000	99.997042
2918.000000	99.986049
2917.000000	99.974540
2916.000000	99.965192
2915.000000	99.960240
2914.000000	99.959071
2913.000000	99.958852
2912.000000	99.957486
2911.000000	99.955011
2910.000000	99.952013
2909.000000	99.947874
2908.000000	99.941375
2907.000000	99.932369
2906.000000	99.922323
2905.000000	99.913545
2904.000000	99.908095
2903.000000	99.906628
2902.000000	99.907619
2901.000000	99.908089
2900.000000	99.906487
2899.000000	99.904197
2898.000000	99.903852
2897.000000	99.906036
2896.000000	99.908415
2895.000000	99.908239
2894.000000	99.904972
2893.000000	99.900274
2892.000000	99.896102
2891.000000	99.893345
2890.000000	99.891720
2889.000000	99.890085
2888.000000	99.886988
2887.000000	99.881732
2886.000000	99.875170
2885.000000	99.868997
2884.000000	99.864144
2883.000000	99.860498
2882.000000	99.858414
2881.000000	99.859485
2880.000000	99.864792
2879.000000	99.872745
2878.000000	99.879682
2877.000000	99.883067
2876.000000	99.883509
2875.000000	99.883455
2874.000000	99.884534
2873.000000	99.886358
2872.000000	99.887269
2871.000000	99.885884
2870.000000	99.882422
2869.000000	99.879011
2868.000000	99.878237
2867.000000	99.880825
2866.000000	99.884954
2865.000000	99.888251
2864.000000	99.890134
2863.000000	99.891810
2862.000000	99.894562
2861.000000	99.898879
2860.000000	99.904898
2859.000000	99.912547
2858.000000	99.920924
2857.000000	99.928224
2856.000000	99.932744
2855.000000	99.933761
2854.000000	99.931559
2853.000000	99.927113
2852.000000	99.921771
2851.000000	99.916609
2850.000000	99.911619
2849.000000	99.905699
2848.000000	99.897825
2847.000000	99.888419
2846.000000	99.879499
2845.000000	99.873126
2844.000000	99.869404
2843.000000	99.866221
2842.000000	99.861421
2841.000000	99.855161
2840.000000	99.849596
2839.000000	99.846293
2838.000000	99.844831
2837.000000	99.844088
2836.000000	99.843738
2835.000000	99.843557
2834.000000	99.842197
2833.000000	99.838247
2832.000000	99.832573
2831.000000	99.828212
2830.000000	99.827421
2829.000000	99.829580
2828.000000	99.832189
2827.000000	99.833341
2826.000000	99.832890
2825.000000	99.831825
2824.000000	99.831172
2823.000000	99.831402
2822.000000	99.832403
2821.000000	99.833800
2820.000000	99.835240
2819.000000	99.836213
2818.000000	99.835918
2817.000000	99.833910
2816.000000	99.830999
2815.000000	99.828969
2814.000000	99.829042
2813.000000	99.830764
2812.000000	99.832500
2811.000000	99.832870
2810.000000	99.831665
2809.000000	99.829735
2808.000000	99.828227
2807.000000	99.827736
2806.000000	99.827992
2805.000000	99.828416
2804.000000	99.828984
2803.000000	99.830243
2802.000000	99.832324
2801.000000	99.834336
2800.000000	99.835215
2799.000000	99.834990
2798.000000	99.834708
2797.000000	99.835044
2796.000000	99.835447
2795.000000	99.835033
2794.000000	99.833871
2793.000000	99.832942
2792.000000	99.832957
2791.000000	99.833637
2790.000000	99.834238
2789.000000	99.834410
2788.000000	99.834327
2787.000000	99.834211
2786.000000	99.834073
2785.000000	99.833935
2784.000000	99.834025
2783.000000	99.834567
2782.000000	99.835463
2781.000000	99.836328
2780.000000	99.836846
2779.000000	99.836998
2778.000000	99.837001
2777.000000	99.837087
2776.000000	99.837331
2775.000000	99.837640
2774.000000	99.837898
2773.000000	99.838152
2772.000000	99.838647
2771.000000	99.839585
2770.000000	99.840886
2769.000000	99.842187
2768.000000	99.843114
2767.000000	99.843585
2766.000000	99.843826
2765.000000	99.844171
2764.000000	99.844789
2763.000000	99.845629
2762.000000	99.846539
2761.000000	99.847356
2760.000000	99.847946
2759.000000	99.848253
2758.000000	99.848379
2757.000000	99.848544
2756.000000	99.848892
2755.000000	99.849366
2754.000000	99.849821
2753.000000	99.850210
2752.000000	99.850616
2751.000000	99.851123
2750.000000	99.851729
2749.000000	99.852387
2748.000000	99.853071
2747.000000	99.853755
2746.000000	99.854387
2745.000000	99.854921
2744.000000	99.855365
2743.000000	99.855785
2742.000000	99.856264
2741.000000	99.856840
2740.000000	99.857505
2739.000000	99.858210
2738.000000	99.858877
2737.000000	99.859431
2736.000000	99.859848
2735.000000	99.860168
2734.000000	99.860471
2733.000000	99.860814
2732.000000	99.861193
2731.000000	99.861569
2730.000000	99.861909
2729.000000	99.862203
2728.000000	99.862464
2727.000000	99.862713
2726.000000	99.862969
2725.000000	99.863250
2724.000000	99.863559
2723.000000	99.863883
2722.000000	99.864197
2721.000000	99.864487
2720.000000	99.864759
2719.000000	99.865024
2718.000000	99.865298
2717.000000	99.865594
2716.000000	99.865915
2715.000000	99.866254
2714.000000	99.866595
2713.000000	99.866918
2712.000000	99.867217
2711.000000	99.867507
2710.000000	99.867812
2709.000000	99.868143
2708.000000	99.868516
2707.000000	99.868940
2706.000000	99.869364
2705.000000	99.869681
2704.000000	99.869818
2703.000000	99.869783
2702.000000	99.869656
2701.000000	99.869534
2700.000000	99.869510
2699.000000	99.869631
2698.000000	99.869845
2697.000000	99.870037
2696.000000	99.870156
2695.000000	99.870229
2694.000000	99.870266
2693.000000	99.870257
2692.000000	99.870240
2691.000000	99.870246
2690.000000	99.870186
2689.000000	99.870007
2688.000000	99.869964
2687.000000	99.870411
2686.000000	99.871235
2685.000000	99.871811
2684.000000	99.871720
2683.000000	99.871172
2682.000000	99.870611
2681.000000	99.870117
2680.000000	99.869463
2679.000000	99.868549
2678.000000	99.867612
2677.000000	99.867141
2676.000000	99.867661
2675.000000	99.869334
2674.000000	99.871514
2673.000000	99.873021
2672.000000	99.873192
2671.000000	99.872238
2670.000000	99.870698
2669.000000	99.868940
2668.000000	99.867362
2667.000000	99.866547
2666.000000	99.866626
2665.000000	99.866812
2664.000000	99.866130
2663.000000	99.864518
2662.000000	99.862866
2661.000000	99.862029
2660.000000	99.862123
2659.000000	99.862699
2658.000000	99.863203
2657.000000	99.863303
2656.000000	99.863072
2655.000000	99.862909
2654.000000	99.863142
2653.000000	99.863737
2652.000000	99.864457
2651.000000	99.865096
2650.000000	99.865436
2649.000000	99.865324
2648.000000	99.865068
2647.000000	99.865430
2646.000000	99.866852
2645.000000	99.868875
2644.000000	99.870498
2643.000000	99.871194
2642.000000	99.871240
2641.000000	99.871172
2640.000000	99.871188
2639.000000	99.871150
2638.000000	99.870981
2637.000000	99.870846
2636.000000	99.871021
2635.000000	99.871649
2634.000000	99.872629
2633.000000	99.873630
2632.000000	99.874286
2631.000000	99.874470
2630.000000	99.874346
2629.000000	99.874249
2628.000000	99.874447
2627.000000	99.874979
2626.000000	99.875695
2625.000000	99.876419
2624.000000	99.877075
2623.000000	99.877684
2622.000000	99.878283
2621.000000	99.878890
2620.000000	99.879507
2619.000000	99.880107
2618.000000	99.880631
2617.000000	99.881038
2616.000000	99.881360
2615.000000	99.881687
2614.000000	99.882079
2613.000000	99.882530
2612.000000	99.883026
2611.000000	99.883594
2610.000000	99.884233
2609.000000	99.884811
2608.000000	99.885149
2607.000000	99.885212
2606.000000	99.885180
2605.000000	99.885286
2604.000000	99.885603
2603.000000	99.886048
2602.000000	99.886511
2601.000000	99.886955
2600.000000	99.887377
2599.000000	99.887748
2598.000000	99.888009
2597.000000	99.888115
2596.000000	99.888065
2595.000000	99.887916
2594.000000	99.887748
2593.000000	99.887603
2592.000000	99.887483
2591.000000	99.887459
2590.000000	99.887730
2589.000000	99.888473
2588.000000	99.889616
2587.000000	99.890770
2586.000000	99.891478
2585.000000	99.891527
2584.000000	99.891031
2583.000000	99.890388
2582.000000	99.890034
2581.000000	99.890172
2580.000000	99.890732
2579.000000	99.891478
2578.000000	99.892200
2577.000000	99.892826
2576.000000	99.893405
2575.000000	99.894006
2574.000000	99.894612
2573.000000	99.895135
2572.000000	99.895518
2571.000000	99.895777
2570.000000	99.895934
2569.000000	99.895972
2568.000000	99.895954
2567.000000	99.896072
2566.000000	99.896455
2565.000000	99.896973
2564.000000	99.897348
2563.000000	99.897439
2562.000000	99.897289
2561.000000	99.897009
2560.000000	99.896727
2559.000000	99.896639
2558.000000	99.896907
2557.000000	99.897461
2556.000000	99.898035
2555.000000	99.898473
2554.000000	99.898874
2553.000000	99.899353
2552.000000	99.899807
2551.000000	99.900065
2550.000000	99.900145
2549.000000	99.900199
2548.000000	99.900258
2547.000000	99.900195
2546.000000	99.900003
2545.000000	99.899962
2544.000000	99.900404
2543.000000	99.901340
2542.000000	99.902330
2541.000000	99.902810
2540.000000	99.902546
2539.000000	99.901789
2538.000000	99.901105
2537.000000	99.900834
2536.000000	99.900770
2535.000000	99.900452
2534.000000	99.899730
2533.000000	99.899025
2532.000000	99.898946
2531.000000	99.899692
2530.000000	99.900830
2529.000000	99.901623
2528.000000	99.901698
2527.000000	99.901423
2526.000000	99.901576
2525.000000	99.902539
2524.000000	99.903851
2523.000000	99.904679
2522.000000	99.904776
2521.000000	99.904724
2520.000000	99.905238
2519.000000	99.906398
2518.000000	99.907682
2517.000000	99.908537
2516.000000	99.908713
2515.000000	99.908158
2514.000000	99.906893
2513.000000	99.905109
2512.000000	99.903232
2511.000000	99.901724
2510.000000	99.900803
2509.000000	99.900436
2508.000000	99.900633
2507.000000	99.901581
2506.000000	99.903326
2505.000000	99.905324
2504.000000	99.906545
2503.000000	99.906335
2502.000000	99.905057
2501.000000	99.903786
2500.000000	99.903322
2499.000000	99.903672
2498.000000	99.904506
2497.000000	99.905751
2496.000000	99.907525
2495.000000	99.909654
2494.000000	99.911554
2493.000000	99.912724
2492.000000	99.913143
2491.000000	99.913090
2490.000000	99.912701
2489.000000	99.911881
2488.000000	99.910629
2487.000000	99.909243
2486.000000	99.908137
2485.000000	99.907575
2484.000000	99.907626
2483.000000	99.908246
2482.000000	99.909205
2481.000000	99.910032
2480.000000	99.910335
2479.000000	99.910248
2478.000000	99.910385
2477.000000	99.911203
2476.000000	99.912512
2475.000000	99.913707
2474.000000	99.914408
2473.000000	99.914727
2472.000000	99.914957
2471.000000	99.915212
2470.000000	99.915453
2469.000000	99.915726
2468.000000	99.916153
2467.000000	99.916686
2466.000000	99.917027
2465.000000	99.916938
2464.000000	99.916550
2463.000000	99.916339
2462.000000	99.916679
2461.000000	99.917532
2460.000000	99.918499
2459.000000	99.919156
2458.000000	99.919386
2457.000000	99.919373
2456.000000	99.919440
2455.000000	99.919825
2454.000000	99.920538
2453.000000	99.921372
2452.000000	99.922084
2451.000000	99.922592
2450.000000	99.922965
2449.000000	99.923245
2448.000000	99.923358
2447.000000	99.923211
2446.000000	99.922814
2445.000000	99.922297
2444.000000	99.921888
2443.000000	99.921853
2442.000000	99.922340
2441.000000	99.923192
2440.000000	99.924016
2439.000000	99.924586
2438.000000	99.925049
2437.000000	99.925624
2436.000000	99.926201
2435.000000	99.926440
2434.000000	99.926243
2433.000000	99.925934
2432.000000	99.925867
2431.000000	99.926034
2430.000000	99.926190
2429.000000	99.926238
2428.000000	99.926286
2427.000000	99.926408
2426.000000	99.926602
2425.000000	99.926982
2424.000000	99.927740
2423.000000	99.928789
2422.000000	99.929701
2421.000000	99.930163
2420.000000	99.930326
2419.000000	99.930532
2418.000000	99.930823
2417.000000	99.930991
2416.000000	99.930993
2415.000000	99.931044
2414.000000	99.931282
2413.000000	99.931567
2412.000000	99.931696
2411.000000	99.931671
2410.000000	99.931662
2409.000000	99.931803
2408.000000	99.932095
2407.000000	99.932484
2406.000000	99.932898
2405.000000	99.933242
2404.000000	99.933403
2403.000000	99.933318
2402.000000	99.933040
2401.000000	99.932717
2400.000000	99.932532
2399.000000	99.932606
2398.000000	99.932929
2397.000000	99.933340
2396.000000	99.933622
2395.000000	99.933681
2394.000000	99.933578
2393.000000	99.933393
2392.000000	99.933133
2391.000000	99.932817
2390.000000	99.932565
2389.000000	99.932523
2388.000000	99.932687
2387.000000	99.932916
2386.000000	99.933124
2385.000000	99.933361
2384.000000	99.933677
2383.000000	99.933995
2382.000000	99.934160
2381.000000	99.934111
2380.000000	99.933937
2379.000000	99.933821
2378.000000	99.933883
2377.000000	99.934104
2376.000000	99.934360
2375.000000	99.934513
2374.000000	99.934519
2373.000000	99.934429
2372.000000	99.934337
2371.000000	99.934297
2370.000000	99.934301
2369.000000	99.934313
2368.000000	99.934303
2367.000000	99.934274
2366.000000	99.934268
2365.000000	99.934356
2364.000000	99.934591
2363.000000	99.934951
2362.000000	99.935342
2361.000000	99.935659
2360.000000	99.935868
2359.000000	99.936022
2358.000000	99.936189
2357.000000	99.936372
2356.000000	99.936521
2355.000000	99.936627
2354.000000	99.936762
2353.000000	99.937014
2352.000000	99.937384
2351.000000	99.937778
2350.000000	99.938093
2349.000000	99.938306
2348.000000	99.938470
2347.000000	99.938665
2346.000000	99.938938
2345.000000	99.939287
2344.000000	99.939652
2343.000000	99.939956
2342.000000	99.940157
2341.000000	99.940269
2340.000000	99.940352
2339.000000	99.940500
2338.000000	99.940770
2337.000000	99.941113
2336.000000	99.941442
2335.000000	99.941776
2334.000000	99.942249
2333.000000	99.942890
2332.000000	99.943459
2331.000000	99.943622
2330.000000	99.943315
2329.000000	99.942785
2328.000000	99.942393
2327.000000	99.942296
2326.000000	99.942475
2325.000000	99.942834
2324.000000	99.943237
2323.000000	99.943543
2322.000000	99.943736
2321.000000	99.943953
2320.000000	99.944323
2319.000000	99.944810
2318.000000	99.945281
2317.000000	99.945632
2316.000000	99.945802
2315.000000	99.945722
2314.000000	99.945425
2313.000000	99.945061
2312.000000	99.944740
2311.000000	99.944426
2310.000000	99.944143
2309.000000	99.944059
2308.000000	99.944269
2307.000000	99.944598
2306.000000	99.944810
2305.000000	99.944917
2304.000000	99.945088
2303.000000	99.945312
2302.000000	99.945376
2301.000000	99.945166
2300.000000	99.944798
2299.000000	99.944481
2298.000000	99.944313
2297.000000	99.944254
2296.000000	99.944223
2295.000000	99.944146
2294.000000	99.943993
2293.000000	99.943781
2292.000000	99.943561
2291.000000	99.943366
2290.000000	99.943194
2289.000000	99.943014
2288.000000	99.942800
2287.000000	99.942547
2286.000000	99.942280
2285.000000	99.942039
2284.000000	99.941845
2283.000000	99.941666
2282.000000	99.941436
2281.000000	99.941126
2280.000000	99.940781
2279.000000	99.940477
2278.000000	99.940239
2277.000000	99.940028
2276.000000	99.939773
2275.000000	99.939411
2274.000000	99.938907
2273.000000	99.938296
2272.000000	99.937709
2271.000000	99.937285
2270.000000	99.937054
2269.000000	99.936888
2268.000000	99.936625
2267.000000	99.936226
2266.000000	99.935769
2265.000000	99.935339
2264.000000	99.934925
2263.000000	99.934456
2262.000000	99.933955
2261.000000	99.933627
2260.000000	99.933675
2259.000000	99.933987
2258.000000	99.934113
2257.000000	99.933726
2256.000000	99.932935
2255.000000	99.932050
2254.000000	99.931196
2253.000000	99.930397
2252.000000	99.929886
2251.000000	99.929902
2250.000000	99.930261
2249.000000	99.930512
2248.000000	99.930597
2247.000000	99.930871
2246.000000	99.931492
2245.000000	99.932121
2244.000000	99.932373
2243.000000	99.932309
2242.000000	99.932332
2241.000000	99.932747
2240.000000	99.933499
2239.000000	99.934169
2238.000000	99.934207
2237.000000	99.933393
2236.000000	99.932156
2235.000000	99.931269
2234.000000	99.931111
2233.000000	99.931528
2232.000000	99.932360
2231.000000	99.933761
2230.000000	99.935778
2229.000000	99.937908
2228.000000	99.939387
2227.000000	99.939896
2226.000000	99.939755
2225.000000	99.939559
2224.000000	99.939677
2223.000000	99.940001
2222.000000	99.940137
2221.000000	99.939888
2220.000000	99.939585
2219.000000	99.939820
2218.000000	99.940777
2217.000000	99.942002
2216.000000	99.942887
2215.000000	99.943308
2214.000000	99.943610
2213.000000	99.944093
2212.000000	99.944699
2211.000000	99.945191
2210.000000	99.945469
2209.000000	99.945648
2208.000000	99.945919
2207.000000	99.946352
2206.000000	99.946809
2205.000000	99.947058
2204.000000	99.947008
2203.000000	99.946816
2202.000000	99.946736
2201.000000	99.946859
2200.000000	99.947077
2199.000000	99.947258
2198.000000	99.947410
2197.000000	99.947626
2196.000000	99.947922
2195.000000	99.948188
2194.000000	99.948325
2193.000000	99.948364
2192.000000	99.948418
2191.000000	99.948561
2190.000000	99.948781
2189.000000	99.949017
2188.000000	99.949209
2187.000000	99.949314
2186.000000	99.949323
2185.000000	99.949294
2184.000000	99.949338
2183.000000	99.949530
2182.000000	99.949817
2181.000000	99.950027
2180.000000	99.950018
2179.000000	99.949776
2178.000000	99.949439
2177.000000	99.949218
2176.000000	99.949239
2175.000000	99.949458
2174.000000	99.949672
2173.000000	99.949706
2172.000000	99.949586
2171.000000	99.949491
2170.000000	99.949548
2169.000000	99.949710
2168.000000	99.949855
2167.000000	99.949954
2166.000000	99.950090
2165.000000	99.950329
2164.000000	99.950625
2163.000000	99.950880
2162.000000	99.951033
2161.000000	99.951097
2160.000000	99.951144
2159.000000	99.951273
2158.000000	99.951543
2157.000000	99.951938
2156.000000	99.952389
2155.000000	99.952825
2154.000000	99.953216
2153.000000	99.953568
2152.000000	99.953901
2151.000000	99.954229
2150.000000	99.954561
2149.000000	99.954901
2148.000000	99.955251
2147.000000	99.955608
2146.000000	99.955974
2145.000000	99.956351
2144.000000	99.956739
2143.000000	99.957134
2142.000000	99.957536
2141.000000	99.957943
2140.000000	99.958354
2139.000000	99.958767
2138.000000	99.959185
2137.000000	99.959614
2136.000000	99.960061
2135.000000	99.960529
2134.000000	99.961014
2133.000000	99.961509
2132.000000	99.962010
2131.000000	99.962511
2130.000000	99.963013
2129.000000	99.963514
2128.000000	99.964013
2127.000000	99.964511
2126.000000	99.965008
2125.000000	99.965502
2124.000000	99.965988
2123.000000	99.966462
2122.000000	99.966924
2121.000000	99.967380
2120.000000	99.967839
2119.000000	99.968306
2118.000000	99.968781
2117.000000	99.969255
2116.000000	99.969723
2115.000000	99.970181
2114.000000	99.970630
2113.000000	99.971070
2112.000000	99.971502
2111.000000	99.971926
2110.000000	99.972344
2109.000000	99.972757
2108.000000	99.973171
2107.000000	99.973588
2106.000000	99.974008
2105.000000	99.974429
2104.000000	99.974849
2103.000000	99.975269
2102.000000	99.975688
2101.000000	99.976105
2100.000000	99.976519
2099.000000	99.976925
2098.000000	99.977320
2097.000000	99.977708
2096.000000	99.978088
2095.000000	99.978468
2094.000000	99.978864
2093.000000	99.979257
2092.000000	99.979598
2091.000000	99.979865
2090.000000	99.980093
2089.000000	99.980326
2088.000000	99.980565
2087.000000	99.980789
2086.000000	99.980977
2085.000000	99.981101
2084.000000	99.981155
2083.000000	99.981209
2082.000000	99.981377
2081.000000	99.981687
2080.000000	99.982043
2079.000000	99.982385
2078.000000	99.982807
2077.000000	99.983370
2076.000000	99.983880
2075.000000	99.984047
2074.000000	99.983873
2073.000000	99.983759
2072.000000	99.984063
2071.000000	99.984655
2070.000000	99.985062
2069.000000	99.985042
2068.000000	99.984852
2067.000000	99.984911
2066.000000	99.985357
2065.000000	99.986017
2064.000000	99.986633
2063.000000	99.986957
2062.000000	99.986737
2061.000000	99.985845
2060.000000	99.984471
2059.000000	99.983087
2058.000000	99.982182
2057.000000	99.981997
2056.000000	99.982395
2055.000000	99.982876
2054.000000	99.982915
2053.000000	99.982461
2052.000000	99.981950
2051.000000	99.981754
2050.000000	99.981779
2049.000000	99.981762
2048.000000	99.981740
2047.000000	99.981894
2046.000000	99.982025
2045.000000	99.981626
2044.000000	99.980549
2043.000000	99.979196
2042.000000	99.977933
2041.000000	99.976626
2040.000000	99.975029
2039.000000	99.973362
2038.000000	99.972201
2037.000000	99.971844
2036.000000	99.972006
2035.000000	99.972054
2034.000000	99.971518
2033.000000	99.970407
2032.000000	99.969147
2031.000000	99.968192
2030.000000	99.967627
2029.000000	99.967160
2028.000000	99.966473
2027.000000	99.965512
2026.000000	99.964442
2025.000000	99.963471
2024.000000	99.962745
2023.000000	99.962251
2022.000000	99.961668
2021.000000	99.960500
2020.000000	99.958553
2019.000000	99.956252
2018.000000	99.954317
2017.000000	99.953095
2016.000000	99.952430
2015.000000	99.952124
2014.000000	99.952194
2013.000000	99.952588
2012.000000	99.952930
2011.000000	99.952758
2010.000000	99.951925
2009.000000	99.950611
2008.000000	99.949038
2007.000000	99.947281
2006.000000	99.945348
2005.000000	99.943391
2004.000000	99.941795
2003.000000	99.940987
2002.000000	99.941065
2001.000000	99.941624
2000.000000	99.942007
1999.000000	99.941770
1998.000000	99.940922
1997.000000	99.939793
1996.000000	99.938794
1995.000000	99.938308
1994.000000	99.938576
1993.000000	99.939419
1992.000000	99.940139
1991.000000	99.940114
1990.000000	99.939444
1989.000000	99.938766
1988.000000	99.938438
1987.000000	99.938193
1986.000000	99.937650
1985.000000	99.936900
1984.000000	99.936387
1983.000000	99.936335
1982.000000	99.936566
1981.000000	99.936818
1980.000000	99.937039
1979.000000	99.937332
1978.000000	99.937745
1977.000000	99.938172
1976.000000	99.938424
1975.000000	99.938399
1974.000000	99.938170
1973.000000	99.937899
1972.000000	99.937666
1971.000000	99.937467
1970.000000	99.937347
1969.000000	99.937415
1968.000000	99.937702
1967.000000	99.938086
1966.000000	99.938399
1965.000000	99.938564
1964.000000	99.938623
1963.000000	99.938648
1962.000000	99.938683
1961.000000	99.938747
1960.000000	99.938839
1959.000000	99.938941
1958.000000	99.939015
1957.000000	99.939017
1956.000000	99.938940
1955.000000	99.938835
1954.000000	99.938769
1953.000000	99.938764
1952.000000	99.938762
1951.000000	99.938664
1950.000000	99.938406
1949.000000	99.938033
1948.000000	99.937701
1947.000000	99.937547
1946.000000	99.937559
1945.000000	99.937550
1944.000000	99.937324
1943.000000	99.936887
1942.000000	99.936494
1941.000000	99.936369
1940.000000	99.936381
1939.000000	99.936140
1938.000000	99.935432
1937.000000	99.934468
1936.000000	99.933658
1935.000000	99.933124
1934.000000	99.932648
1933.000000	99.932021
1932.000000	99.931280
1931.000000	99.930548
1930.000000	99.929801
1929.000000	99.929049
1928.000000	99.928540
1927.000000	99.928358
1926.000000	99.927976
1925.000000	99.926704
1924.000000	99.924711
1923.000000	99.923207
1922.000000	99.923098
1921.000000	99.923857
1920.000000	99.924112
1919.000000	99.923055
1918.000000	99.921038
1917.000000	99.919071
1916.000000	99.917663
1915.000000	99.916332
1914.000000	99.914298
1913.000000	99.911348
1912.000000	99.908095
1911.000000	99.905429
1910.000000	99.903718
1909.000000	99.902734
1908.000000	99.901999
1907.000000	99.900870
1906.000000	99.898673
1905.000000	99.895296
1904.000000	99.891753
1903.000000	99.889293
1902.000000	99.887925
1901.000000	99.886811
1900.000000	99.885750
1899.000000	99.885183
1898.000000	99.884867
1897.000000	99.883626
1896.000000	99.880900
1895.000000	99.877465
1894.000000	99.874152
1893.000000	99.871050
1892.000000	99.868295
1891.000000	99.866437
1890.000000	99.865625
1889.000000	99.865204
1888.000000	99.864700
1887.000000	99.864199
1886.000000	99.863571
1885.000000	99.862330
1884.000000	99.860566
1883.000000	99.859129
1882.000000	99.858472
1881.000000	99.858292
1880.000000	99.858296
1879.000000	99.858609
1878.000000	99.859267
1877.000000	99.859488
1876.000000	99.858026
1875.000000	99.854430
1874.000000	99.849608
1873.000000	99.845297
1872.000000	99.843039
1871.000000	99.843262
1870.000000	99.844946
1869.000000	99.846438
1868.000000	99.847302
1867.000000	99.848082
1866.000000	99.848332
1865.000000	99.847147
1864.000000	99.844680
1863.000000	99.842071
1862.000000	99.840472
1861.000000	99.840993
1860.000000	99.845091
1859.000000	99.853444
1858.000000	99.864136
1857.000000	99.873332
1856.000000	99.878501
1855.000000	99.880049
1854.000000	99.880022
1853.000000	99.880443
1852.000000	99.882392
1851.000000	99.885471
1850.000000	99.888463
1849.000000	99.890667
1848.000000	99.892655
1847.000000	99.895592
1846.000000	99.900040
1845.000000	99.905503
1844.000000	99.910578
1843.000000	99.913697
1842.000000	99.914120
1841.000000	99.912550
1840.000000	99.910138
1839.000000	99.907389
1838.000000	99.904324
1837.000000	99.901375
1836.000000	99.899842
1835.000000	99.900522
1834.000000	99.902544
1833.000000	99.904410
1832.000000	99.905561
1831.000000	99.906692
1830.000000	99.908547
1829.000000	99.910248
1828.000000	99.910117
1827.000000	99.908163
1826.000000	99.906212
1825.000000	99.905677
1824.000000	99.906039
1823.000000	99.905922
1822.000000	99.904808
1821.000000	99.903255
1820.000000	99.902200
1819.000000	99.902335
1818.000000	99.903401
1817.000000	99.904224
1816.000000	99.904322
1815.000000	99.904475
1814.000000	99.905119
1813.000000	99.905376
1812.000000	99.904365
1811.000000	99.902912
1810.000000	99.902018
1809.000000	99.901083
1808.000000	99.899829
1807.000000	99.899455
1806.000000	99.900577
1805.000000	99.901935
1804.000000	99.902082
1803.000000	99.901157
1802.000000	99.900373
1801.000000	99.900577
1800.000000	99.901903
1799.000000	99.904045
1798.000000	99.905726
1797.000000	99.905644
1796.000000	99.904464
1795.000000	99.904377
1794.000000	99.906432
1793.000000	99.909037
1792.000000	99.910082
1791.000000	99.910621
1790.000000	99.912548
1789.000000	99.915172
1788.000000	99.916762
1787.000000	99.917194
1786.000000	99.917858
1785.000000	99.919265
1784.000000	99.920087
1783.000000	99.919112
1782.000000	99.917505
1781.000000	99.918166
1780.000000	99.922315
1779.000000	99.928018
1778.000000	99.932389
1777.000000	99.934875
1776.000000	99.937094
1775.000000	99.940111
1774.000000	99.943213
1773.000000	99.945045
1772.000000	99.945170
1771.000000	99.945322
1770.000000	99.947461
1769.000000	99.951249
1768.000000	99.955021
1767.000000	99.958408
1766.000000	99.962377
1765.000000	99.966779
1764.000000	99.969646
1763.000000	99.969606
1762.000000	99.968817
1761.000000	99.971058
1760.000000	99.976322
1759.000000	99.981638
1758.000000	99.985131
1757.000000	99.987704
1756.000000	99.990758
1755.000000	99.994185
1754.000000	99.997688
1753.000000	100.001800
1752.000000	100.006836
1751.000000	100.011960
1750.000000	100.016176
1749.000000	100.018692
1748.000000	100.018540
1747.000000	100.015587
1746.000000	100.011973
1745.000000	100.010334
1744.000000	100.010866
1743.000000	100.012108
1742.000000	100.013319
1741.000000	100.014443
1740.000000	100.014971
1739.000000	100.014816
1738.000000	100.014883
1737.000000	100.015592
1736.000000	100.016184
1735.000000	100.015330
1734.000000	100.012050
1733.000000	100.007501
1732.000000	100.002682
1731.000000	99.997612
1730.000000	99.992924
1729.000000	99.989755
1728.000000	99.988268
1727.000000	99.987452
1726.000000	99.986415
1725.000000	99.984626
1724.000000	99.981630
1723.000000	99.977785
1722.000000	99.974197
1721.000000	99.971792
1720.000000	99.971208
1719.000000	99.973275
1718.000000	99.977704
1717.000000	99.980280
1716.000000	99.977899
1715.000000	99.972770
1714.000000	99.968268
1713.000000	99.965760
1712.000000	99.964797
1711.000000	99.964035
1710.000000	99.962349
1709.000000	99.959482
1708.000000	99.955944
1707.000000	99.952515
1706.000000	99.949616
1705.000000	99.947185
1704.000000	99.945247
1703.000000	99.943991
1702.000000	99.943342
1701.000000	99.942738
1700.000000	99.941311
1699.000000	99.939374
1698.000000	99.937321
1697.000000	99.935103
1696.000000	99.932785
1695.000000	99.930600
1694.000000	99.928489
1693.000000	99.926332
1692.000000	99.924214
1691.000000	99.922212
1690.000000	99.920312
1689.000000	99.918445
1688.000000	99.916551
1687.000000	99.914645
1686.000000	99.912780
1685.000000	99.910988
1684.000000	99.909192
1683.000000	99.907330
1682.000000	99.905386
1681.000000	99.903462
1680.000000	99.901635
1679.000000	99.899881
1678.000000	99.898074
1677.000000	99.896139
1676.000000	99.894156
1675.000000	99.892266
1674.000000	99.890590
1673.000000	99.889081
1672.000000	99.887511
1671.000000	99.885711
1670.000000	99.883649
1669.000000	99.881818
1668.000000	99.880647
1667.000000	99.879535
1666.000000	99.877726
1665.000000	99.875028
1664.000000	99.871951
1663.000000	99.869517
1662.000000	99.868299
1661.000000	99.868073
1660.000000	99.868076
1659.000000	99.867299
1658.000000	99.865411
1657.000000	99.863214
1656.000000	99.862087
1655.000000	99.861865
1654.000000	99.860899
1653.000000	99.857619
1652.000000	99.856328
1651.000000	99.856234
1650.000000	99.855627
1649.000000	99.854580
1648.000000	99.853684
1647.000000	99.852109
1646.000000	99.849598
1645.000000	99.846832
1644.000000	99.844264
1643.000000	99.842085
1642.000000	99.839706
1641.000000	99.836628
1640.000000	99.833700
1639.000000	99.832510
1638.000000	99.833568
1637.000000	99.835330
1636.000000	99.834963
1635.000000	99.831101
1634.000000	99.826996
1633.000000	99.825486
1632.000000	99.827254
1631.000000	99.830925
1630.000000	99.834069
1629.000000	99.835411
1628.000000	99.835871
1627.000000	99.836179
1626.000000	99.835623
1625.000000	99.833876
1624.000000	99.831990
1623.000000	99.831133
1622.000000	99.831584
1621.000000	99.833599
1620.000000	99.837172
1619.000000	99.841523
1618.000000	99.845388
1617.000000	99.848628
1616.000000	99.852540
1615.000000	99.856261
1614.000000	99.858205
1613.000000	99.859588
1612.000000	99.862349
1611.000000	99.866514
1610.000000	99.870610
1609.000000	99.874648
1608.000000	99.879520
1607.000000	99.884017
1606.000000	99.886159
1605.000000	99.886743
1604.000000	99.888259
1603.000000	99.891645
1602.000000	99.896180
1601.000000	99.901532
1600.000000	99.907650
1599.000000	99.913190
1598.000000	99.916291
1597.000000	99.916687
1596.000000	99.915947
1595.000000	99.915928
1594.000000	99.917589
1593.000000	99.921237
1592.000000	99.926488
1591.000000	99.931870
1590.000000	99.935709
1589.000000	99.937882
1588.000000	99.939580
1587.000000	99.941522
1586.000000	99.943722
1585.000000	99.946727
1584.000000	99.951066
1583.000000	99.955496
1582.000000	99.958128
1581.000000	99.959185
1580.000000	99.960427
1579.000000	99.962181
1578.000000	99.963260
1577.000000	99.963905
1576.000000	99.966524
1575.000000	99.970915
1574.000000	99.973857
1573.000000	99.974988
1572.000000	99.976065
1571.000000	99.977966
1570.000000	99.979595
1569.000000	99.980647
1568.000000	99.982474
1567.000000	99.984976
1566.000000	99.987838
1565.000000	99.991282
1564.000000	99.994911
1563.000000	99.996936
1562.000000	99.996437
1561.000000	99.995826
1560.000000	100.000343
1559.000000	100.006591
1558.000000	100.005703
1557.000000	100.003082
1556.000000	100.003078
1555.000000	100.005132
1554.000000	100.007767
1553.000000	100.009960
1552.000000	100.010799
1551.000000	100.009847
1550.000000	100.007152
1549.000000	100.003430
1548.000000	99.999473
1547.000000	99.995333
1546.000000	99.991100
1545.000000	99.987153
1544.000000	99.983849
1543.000000	99.981573
1542.000000	99.981338
1541.000000	99.983783
1540.000000	99.987929
1539.000000	99.990629
1538.000000	99.989000
1537.000000	99.983752
1536.000000	99.977609
1535.000000	99.971675
1534.000000	99.964991
1533.000000	99.957190
1532.000000	99.949945
1531.000000	99.943772
1530.000000	99.937063
1529.000000	99.929300
1528.000000	99.923025
1527.000000	99.920555
1526.000000	99.920255
1525.000000	99.918248
1524.000000	99.913699
1523.000000	99.908778
1522.000000	99.904236
1521.000000	99.898481
1520.000000	99.892506
1519.000000	99.888960
1518.000000	99.888709
1517.000000	99.889621
1516.000000	99.888941
1515.000000	99.886897
1514.000000	99.885504
1513.000000	99.885150
1512.000000	99.883801
1511.000000	99.880043
1510.000000	99.874635
1509.000000	99.869112
1508.000000	99.864047
1507.000000	99.860147
1506.000000	99.858264
1505.000000	99.857250
1504.000000	99.855300
1503.000000	99.852831
1502.000000	99.850072
1501.000000	99.846333
1500.000000	99.841066
1499.000000	99.835561
1498.000000	99.831850
1497.000000	99.828684
1496.000000	99.823231
1495.000000	99.817473
1494.000000	99.815154
1493.000000	99.816515
1492.000000	99.818840
1491.000000	99.819020
1490.000000	99.815613
1489.000000	99.809081
1488.000000	99.801734
1487.000000	99.796916
1486.000000	99.795281
1485.000000	99.795358
1484.000000	99.795959
1483.000000	99.796459
1482.000000	99.797111
1481.000000	99.797883
1480.000000	99.798226
1479.000000	99.797826
1478.000000	99.796893
1477.000000	99.795571
1476.000000	99.793992
1475.000000	99.792993
1474.000000	99.793184
1473.000000	99.794819
1472.000000	99.797638
1471.000000	99.801635
1470.000000	99.805878
1469.000000	99.809023
1468.000000	99.810349
1467.000000	99.810583
1466.000000	99.811604
1465.000000	99.814876
1464.000000	99.819499
1463.000000	99.822633
1462.000000	99.822730
1461.000000	99.820798
1460.000000	99.819844
1459.000000	99.822555
1458.000000	99.829365
1457.000000	99.836336
1456.000000	99.839243
1455.000000	99.838964
1454.000000	99.838224
1453.000000	99.837644
1452.000000	99.835807
1451.000000	99.831541
1450.000000	99.825771
1449.000000	99.820889
1448.000000	99.818977
1447.000000	99.820150
1446.000000	99.821814
1445.000000	99.821113
1444.000000	99.817465
1443.000000	99.812833
1442.000000	99.809700
1441.000000	99.809072
1440.000000	99.810226
1439.000000	99.811975
1438.000000	99.813807
1437.000000	99.814951
1436.000000	99.814613
1435.000000	99.813989
1434.000000	99.814655
1433.000000	99.816201
1432.000000	99.817154
1431.000000	99.816120
1430.000000	99.813383
1429.000000	99.810925
1428.000000	99.810792
1427.000000	99.813907
1426.000000	99.819657
1425.000000	99.826467
1424.000000	99.831414
1423.000000	99.832483
1422.000000	99.831490
1421.000000	99.831956
1420.000000	99.835660
1419.000000	99.841173
1418.000000	99.846811
1417.000000	99.851992
1416.000000	99.856693
1415.000000	99.861766
1414.000000	99.867792
1413.000000	99.873974
1412.000000	99.878429
1411.000000	99.880571
1410.000000	99.882697
1409.000000	99.887247
1408.000000	99.894180
1407.000000	99.902039
1406.000000	99.909337
1405.000000	99.914890
1404.000000	99.917357
1403.000000	99.916856
1402.000000	99.915948
1401.000000	99.917288
1400.000000	99.921568
1399.000000	99.926996
1398.000000	99.931520
1397.000000	99.934693
1396.000000	99.937599
1395.000000	99.942346
1394.000000	99.950950
1393.000000	99.962716
1392.000000	99.973188
1391.000000	99.978831
1390.000000	99.980361
1389.000000	99.981776
1388.000000	99.986548
1387.000000	99.994063
1386.000000	100.000744
1385.000000	100.004722
1384.000000	100.007101
1383.000000	100.009741
1382.000000	100.013343
1381.000000	100.016860
1380.000000	100.018723
1379.000000	100.018210
1378.000000	100.016015
1377.000000	100.013733
1376.000000	100.012299
1375.000000	100.010670
1374.000000	100.006956
1373.000000	100.001360
1372.000000	99.996332
1371.000000	99.994088
1370.000000	99.995145
1369.000000	99.999064
1368.000000	100.004508
1367.000000	100.009493
1366.000000	100.012487
1365.000000	100.013178
1364.000000	100.012447
1363.000000	100.011724
1362.000000	100.011836
1361.000000	100.012642
1360.000000	100.013717
1359.000000	100.014833
1358.000000	100.015747
1357.000000	100.016124
1356.000000	100.015737
1355.000000	100.014751
1354.000000	100.013604
1353.000000	100.012451
1352.000000	100.011178
1351.000000	100.009862
1350.000000	100.008614
1349.000000	100.007859
1348.000000	100.007921
1347.000000	100.008812
1346.000000	100.010377
1345.000000	100.012314
1344.000000	100.013872
1343.000000	100.014168
1342.000000	100.013276
1341.000000	100.012766
1340.000000	100.014329
1339.000000	100.017365
1338.000000	100.018956
1337.000000	100.016946
1336.000000	100.012160
1335.000000	100.007802
1334.000000	100.006689
1333.000000	100.009099
1332.000000	100.013074
1331.000000	100.016346
1330.000000	100.017947
1329.000000	100.018101
1328.000000	100.017212
1327.000000	100.015621
1326.000000	100.014094
1325.000000	100.013771
1324.000000	100.014750
1323.000000	100.015654
1322.000000	100.015199
1321.000000	100.013593
1320.000000	100.011978
1319.000000	100.011252
1318.000000	100.011856
1317.000000	100.013753
1316.000000	100.015944
1315.000000	100.016815
1314.000000	100.015897
1313.000000	100.014717
1312.000000	100.014930
1311.000000	100.015984
1310.000000	100.015822
1309.000000	100.013724
1308.000000	100.011524
1307.000000	100.011831
1306.000000	100.015157
1305.000000	100.019147
1304.000000	100.020434
1303.000000	100.017873
1302.000000	100.014057
1301.000000	100.012912
1300.000000	100.015134
1299.000000	100.017337
1298.000000	100.016451
1297.000000	100.013412
1296.000000	100.011219
1295.000000	100.010606
1294.000000	100.010188
1293.000000	100.010136
1292.000000	100.012502
1291.000000	100.017341
1290.000000	100.021217
1289.000000	100.020928
1288.000000	100.016844
1287.000000	100.011497
1286.000000	100.006522
1285.000000	100.002407
1284.000000	99.999793
1283.000000	99.999031
1282.000000	99.999028
1281.000000	99.998213
1280.000000	99.996485
1279.000000	99.995165
1278.000000	99.995622
1277.000000	99.998548
1276.000000	100.003488
1275.000000	100.007918
1274.000000	100.008226
1273.000000	100.003295
1272.000000	99.996322
1271.000000	99.991587
1270.000000	99.990016
1269.000000	99.989354
1268.000000	99.987880
1267.000000	99.986269
1266.000000	99.986452
1265.000000	99.989726
1264.000000	99.995361
1263.000000	100.000138
1262.000000	100.000441
1261.000000	99.996000
1260.000000	99.990338
1259.000000	99.986129
1258.000000	99.982079
1257.000000	99.976053
1256.000000	99.968846
1255.000000	99.961946
1254.000000	99.953508
1253.000000	99.940577
1252.000000	99.924880
1251.000000	99.912325
1250.000000	99.905938
1249.000000	99.902615
1248.000000	99.898015
1247.000000	99.891605
1246.000000	99.885554
1245.000000	99.880974
1244.000000	99.876927
1243.000000	99.871417
1242.000000	99.862131
1241.000000	99.847882
1240.000000	99.830498
1239.000000	99.813621
1238.000000	99.798512
1237.000000	99.782920
1236.000000	99.765190
1235.000000	99.747092
1234.000000	99.730704
1233.000000	99.714567
1232.000000	99.695404
1231.000000	99.672188
1230.000000	99.646082
1229.000000	99.617517
1228.000000	99.586090
1227.000000	99.552828
1226.000000	99.519423
1225.000000	99.484567
1224.000000	99.443416
1223.000000	99.392042
1222.000000	99.331420
1221.000000	99.266187
1220.000000	99.199987
1219.000000	99.132663
1218.000000	99.061973
1217.000000	98.987442
1216.000000	98.911515
1215.000000	98.836238
1214.000000	98.759754
1213.000000	98.678021
1212.000000	98.589835
1211.000000	98.498210
1210.000000	98.406623
1209.000000	98.316027
1208.000000	98.226070
1207.000000	98.136978
1206.000000	98.049556
1205.000000	97.965188
1204.000000	97.885708
1203.000000	97.810824
1202.000000	97.736241
1201.000000	97.657445
1200.000000	97.574988
1199.000000	97.492741
1198.000000	97.411789
1197.000000	97.330341
1196.000000	97.248918
1195.000000	97.169872
1194.000000	97.091195
1193.000000	97.006830
1192.000000	96.915091
1191.000000	96.821683
1190.000000	96.732075
1189.000000	96.645363
1188.000000	96.557866
1187.000000	96.467968
1186.000000	96.374764
1185.000000	96.276467
1184.000000	96.173412
1183.000000	96.069094
1182.000000	95.965453
1181.000000	95.860396
1180.000000	95.752082
1179.000000	95.641792
1178.000000	95.530378
1177.000000	95.415916
1176.000000	95.297333
1175.000000	95.176528
1174.000000	95.054596
1173.000000	94.929818
1172.000000	94.801490
1171.000000	94.671848
1170.000000	94.542622
1169.000000	94.414264
1168.000000	94.290485
1167.000000	94.179030
1166.000000	94.086545
1165.000000	94.017610
1164.000000	93.979268
1163.000000	93.978926
1162.000000	94.014407
1161.000000	94.070952
1160.000000	94.129912
1159.000000	94.175865
1158.000000	94.195867
1157.000000	94.180407
1156.000000	94.129175
1155.000000	94.051639
1154.000000	93.959215
1153.000000	93.859518
1152.000000	93.758063
1151.000000	93.659054
1150.000000	93.562019
1149.000000	93.463152
1148.000000	93.362041
1147.000000	93.261990
1146.000000	93.163118
1145.000000	93.062006
1144.000000	92.959497
1143.000000	92.861273
1142.000000	92.768586
1141.000000	92.676029
1140.000000	92.580837
1139.000000	92.486427
1138.000000	92.394059
1137.000000	92.299382
1136.000000	92.200879
1135.000000	92.103469
1134.000000	92.009257
1133.000000	91.912329
1132.000000	91.807722
1131.000000	91.699010
1130.000000	91.592552
1129.000000	91.490101
1128.000000	91.390744
1127.000000	91.293836
1126.000000	91.196654
1125.000000	91.095386
1124.000000	90.991099
1123.000000	90.887957
1122.000000	90.783726
1121.000000	90.670819
1120.000000	90.549938
1119.000000	90.433389
1118.000000	90.330184
1117.000000	90.236198
1116.000000	90.142739
1115.000000	90.046612
1114.000000	89.948459
1113.000000	89.850207
1112.000000	89.758015
1111.000000	89.678358
1110.000000	89.607122
1109.000000	89.531618
1108.000000	89.446660
1107.000000	89.359635
1106.000000	89.277002
1105.000000	89.196560
1104.000000	89.116466
1103.000000	89.040562
1102.000000	88.969816
1101.000000	88.898531
1100.000000	88.823355
1099.000000	88.747999
1098.000000	88.674548
1097.000000	88.600216
1096.000000	88.525276
1095.000000	88.454659
1094.000000	88.389342
1093.000000	88.326163
1092.000000	88.267595
1091.000000	88.220181
1090.000000	88.181417
1089.000000	88.140526
1088.000000	88.094726
1087.000000	88.052412
1086.000000	88.017944
1085.000000	87.986151
1084.000000	87.954482
1083.000000	87.926854
1082.000000	87.901776
1081.000000	87.870251
1080.000000	87.830291
1079.000000	87.791231
1078.000000	87.759054
1077.000000	87.728527
1076.000000	87.693021
1075.000000	87.649632
1074.000000	87.591407
1073.000000	87.507851
1072.000000	87.397723
1071.000000	87.269820
1070.000000	87.127259
1069.000000	86.962579
1068.000000	86.772149
1067.000000	86.563165
1066.000000	86.342491
1065.000000	86.111429
1064.000000	85.876533
1063.000000	85.652234
1062.000000	85.446176
1061.000000	85.253387
1060.000000	85.069645
1059.000000	84.898076
1058.000000	84.738282
1057.000000	84.582121
1056.000000	84.424919
1055.000000	84.268438
1054.000000	84.109285
1053.000000	83.938046
1052.000000	83.754171
1051.000000	83.567330
1050.000000	83.379351
1049.000000	83.181069
1048.000000	82.971072
1047.000000	82.759144
1046.000000	82.547742
1045.000000	82.328674
1044.000000	82.101119
1043.000000	81.875420
1042.000000	81.656033
1041.000000	81.438042
1040.000000	81.224082
1039.000000	81.026613
1038.000000	80.848428
1037.000000	80.678389
1036.000000	80.511532
1035.000000	80.356112
1034.000000	80.216164
1033.000000	80.085243
1032.000000	79.962670
1031.000000	79.858510
1030.000000	79.776784
1029.000000	79.709648
1028.000000	79.651589
1027.000000	79.602770
1026.000000	79.556358
1025.000000	79.501523
1024.000000	79.442055
1023.000000	79.392824
1022.000000	79.354747
1021.000000	79.312530
1020.000000	79.260230
1019.000000	79.208664
1018.000000	79.163700
1017.000000	79.118195
1016.000000	79.070106
1015.000000	79.027645
1014.000000	78.990650
1013.000000	78.947183
1012.000000	78.895119
1011.000000	78.847886
1010.000000	78.812532
1009.000000	78.781091
1008.000000	78.749849
1007.000000	78.727988
1006.000000	78.719809
1005.000000	78.716391
1004.000000	78.712505
1003.000000	78.715427
1002.000000	78.730215
1001.000000	78.751889
1000.000000	78.777918
999.000000	78.812968
998.000000	78.856074
997.000000	78.898408
996.000000	78.938240
995.000000	78.982950
994.000000	79.032847
993.000000	79.079395
992.000000	79.123525
991.000000	79.179001
990.000000	79.252377
989.000000	79.334923
988.000000	79.419226
987.000000	79.509532
986.000000	79.611365
985.000000	79.724861
984.000000	79.851830
983.000000	79.996002
982.000000	80.153804
981.000000	80.318108
980.000000	80.492207
979.000000	80.685982
978.000000	80.897786
977.000000	81.114705
976.000000	81.331264
975.000000	81.553371
974.000000	81.783905
973.000000	82.020057
972.000000	82.264938
971.000000	82.525578
970.000000	82.797935
969.000000	83.068626
968.000000	83.332502
967.000000	83.594434
966.000000	83.854298
965.000000	84.105607
964.000000	84.349302
963.000000	84.593526
962.000000	84.838414
961.000000	85.075271
960.000000	85.301536
959.000000	85.522509
958.000000	85.738252
957.000000	85.943455
956.000000	86.140749
955.000000	86.338753
954.000000	86.535256
953.000000	86.717391
952.000000	86.880852
951.000000	87.034675
950.000000	87.184689
949.000000	87.326440
948.000000	87.458026
947.000000	87.586022
946.000000	87.713916
945.000000	87.836441
944.000000	87.949750
943.000000	88.056622
942.000000	88.158643
941.000000	88.253799
940.000000	88.344366
939.000000	88.436755
938.000000	88.531534
937.000000	88.624342
936.000000	88.718083
935.000000	88.822173
934.000000	88.937018
933.000000	89.050914
932.000000	89.155469
931.000000	89.253433
930.000000	89.349135
929.000000	89.442491
928.000000	89.535606
927.000000	89.634220
926.000000	89.738095
925.000000	89.838801
924.000000	89.930321
923.000000	90.014297
922.000000	90.093730
921.000000	90.170051
920.000000	90.246874
919.000000	90.327051
918.000000	90.405203
917.000000	90.472998
916.000000	90.532939
915.000000	90.597298
914.000000	90.672944
913.000000	90.757567
912.000000	90.851185
911.000000	90.959694
910.000000	91.085365
909.000000	91.224923
908.000000	91.378962
907.000000	91.552558
906.000000	91.744738
905.000000	91.947509
904.000000	92.156365
903.000000	92.371869
902.000000	92.591034
901.000000	92.808516
900.000000	93.026635
899.000000	93.252287
898.000000	93.482201
897.000000	93.702714
896.000000	93.905956
895.000000	94.095621
894.000000	94.275219
893.000000	94.442137
892.000000	94.596979
891.000000	94.748379
890.000000	94.902969
889.000000	95.057706
888.000000	95.206184
887.000000	95.345895
886.000000	95.476258
885.000000	95.596245
884.000000	95.707603
883.000000	95.815130
882.000000	95.920882
881.000000	96.022236
880.000000	96.116571
879.000000	96.203427
878.000000	96.283522
877.000000	96.362749
876.000000	96.455716
875.000000	96.575412
874.000000	96.717536
873.000000	96.863109
872.000000	96.997756
871.000000	97.121331
870.000000	97.239766
869.000000	97.356930
868.000000	97.475333
867.000000	97.595589
866.000000	97.712492
865.000000	97.819006
864.000000	97.916722
863.000000	98.016099
862.000000	98.123736
861.000000	98.234677
860.000000	98.339645
859.000000	98.434969
858.000000	98.523243
857.000000	98.608127
856.000000	98.690556
855.000000	98.767895
854.000000	98.836328
853.000000	98.895736
852.000000	98.950668
851.000000	99.004536
850.000000	99.056032
849.000000	99.104125
848.000000	99.151349
847.000000	99.196485
846.000000	99.229584
845.000000	99.242996
844.000000	99.243656
843.000000	99.244994
842.000000	99.248773
841.000000	99.244577
840.000000	99.225601
839.000000	99.194327
838.000000	99.153180
837.000000	99.101145
836.000000	99.042021
835.000000	98.986097
834.000000	98.939944
833.000000	98.902371
832.000000	98.873149
831.000000	98.857643
830.000000	98.859509
829.000000	98.875785
828.000000	98.901322
827.000000	98.930634
826.000000	98.955032
825.000000	98.968201
824.000000	98.975821
823.000000	98.988465
822.000000	99.004421
821.000000	99.012277
820.000000	99.009414
819.000000	99.002771
818.000000	98.990606
817.000000	98.957472
816.000000	98.890184
815.000000	98.787457
814.000000	98.650422
813.000000	98.474180
812.000000	98.252687
811.000000	97.980732
810.000000	97.645816
809.000000	97.230348
808.000000	96.731021
807.000000	96.167606
806.000000	95.565584
805.000000	94.941334
804.000000	94.313720
803.000000	93.716218
802.000000	93.182344
801.000000	92.728199
800.000000	92.361651
799.000000	92.097494
798.000000	91.949257
797.000000	91.913230
796.000000	91.970214
795.000000	92.095403
794.000000	92.260674
793.000000	92.437674
792.000000	92.606710
791.000000	92.756951
790.000000	92.875943
789.000000	92.948253
788.000000	92.966879
787.000000	92.935398
786.000000	92.854965
785.000000	92.719634
784.000000	92.529671
783.000000	92.300404
782.000000	92.054492
781.000000	91.817187
780.000000	91.623290
779.000000	91.512101
778.000000	91.502847
777.000000	91.583527
776.000000	91.730225
775.000000	91.926209
774.000000	92.156655
773.000000	92.399896
772.000000	92.636388
771.000000	92.858982
770.000000	93.066085
769.000000	93.251486
768.000000	93.408117
767.000000	93.535835
766.000000	93.639071
765.000000	93.722160
764.000000	93.792279
763.000000	93.860956
762.000000	93.936318
761.000000	94.017868
760.000000	94.102664
759.000000	94.191190
758.000000	94.283901
757.000000	94.378437
756.000000	94.474083
755.000000	94.573114
754.000000	94.674974
753.000000	94.775876
752.000000	94.876466
751.000000	94.981603
750.000000	95.088760
749.000000	95.184940
748.000000	95.260901
747.000000	95.322856
746.000000	95.386063
745.000000	95.463121
744.000000	95.562360
743.000000	95.689156
742.000000	95.840668
741.000000	96.003100
740.000000	96.160043
739.000000	96.302110
738.000000	96.427939
737.000000	96.541438
736.000000	96.649620
735.000000	96.756654
734.000000	96.857043
733.000000	96.939853
732.000000	97.001990
731.000000	97.052091
730.000000	97.098993
729.000000	97.142087
728.000000	97.176112
727.000000	97.200563
726.000000	97.221828
725.000000	97.250338
724.000000	97.297003
723.000000	97.366552
722.000000	97.451803
721.000000	97.539139
720.000000	97.621098
719.000000	97.698785
718.000000	97.772640
717.000000	97.839582
716.000000	97.900440
715.000000	97.960236
714.000000	98.017522
713.000000	98.062639
712.000000	98.091795
711.000000	98.115011
710.000000	98.143753
709.000000	98.176833
708.000000	98.204121
707.000000	98.218019
706.000000	98.215344
705.000000	98.192291
704.000000	98.143275
703.000000	98.061251
702.000000	97.934376
701.000000	97.746395
700.000000	97.486631
699.000000	97.160723
698.000000	96.795571
697.000000	96.440762
696.000000	96.160698
695.000000	96.008017
694.000000	95.994413
693.000000	96.090314
692.000000	96.252810
691.000000	96.447599
690.000000	96.648117
689.000000	96.832430
688.000000	96.992902
687.000000	97.138294
686.000000	97.274026
685.000000	97.390434
684.000000	97.480985
683.000000	97.559606
682.000000	97.646379
681.000000	97.742887
680.000000	97.833392
679.000000	97.905592
678.000000	97.959311
677.000000	98.000152
676.000000	98.036625
675.000000	98.079691
674.000000	98.135260
673.000000	98.195820
672.000000	98.246772
671.000000	98.282811
670.000000	98.313676
669.000000	98.358786
668.000000	98.434870
667.000000	98.529044
666.000000	98.611127
665.000000	98.673928
664.000000	98.721563
663.000000	98.757938
662.000000	98.787536
661.000000	98.814151
660.000000	98.836943
659.000000	98.849640
658.000000	98.844518
657.000000	98.819240
656.000000	98.780931
655.000000	98.742672
654.000000	98.715339
653.000000	98.701569
652.000000	98.697289
651.000000	98.695310
650.000000	98.686379
649.000000	98.666112
648.000000	98.646644
647.000000	98.653863
646.000000	98.703080
645.000000	98.778930
644.000000	98.850487
643.000000	98.905308
642.000000	98.958182
641.000000	99.027894
640.000000	99.114248
639.000000	99.199605
638.000000	99.269112
637.000000	99.325005
636.000000	99.377639
635.000000	99.429481
634.000000	99.475645
633.000000	99.517063
632.000000	99.561940
631.000000	99.612062
630.000000	99.657984
629.000000	99.695233
628.000000	99.736613
627.000000	99.797343
626.000000	99.871852
625.000000	99.937025
624.000000	99.978052
623.000000	99.998760
622.000000	100.008943
621.000000	100.013653
620.000000	100.016437
619.000000	100.022889
618.000000	100.037525
617.000000	100.062965
616.000000	100.097976
615.000000	100.127320
614.000000	100.121927
613.000000	100.064577
612.000000	99.973491
611.000000	99.891754
610.000000	99.850647
609.000000	99.851505
608.000000	99.880269
607.000000	99.915572
606.000000	99.927483
605.000000	99.903098
604.000000	99.879106
603.000000	99.916589
602.000000	100.023871
601.000000	100.125671
600.000000	100.131142
599.000000	100.018440
598.000000	99.845477
597.000000	99.687044
596.000000	99.580685
595.000000	99.531170
594.000000	99.532281
593.000000	99.577191
592.000000	99.658363
591.000000	99.753935
590.000000	99.818386
589.000000	99.810325
588.000000	99.734559
587.000000	99.645508
586.000000	99.599745
585.000000	99.608465
584.000000	99.647701
583.000000	99.694082
582.000000	99.734641
581.000000	99.764943
580.000000	99.801144
579.000000	99.876088
578.000000	99.997754
577.000000	100.124733
576.000000	100.202016
575.000000	100.210804
574.000000	100.175373
573.000000	100.126517
572.000000	100.079425
571.000000	100.046989
570.000000	100.046007
569.000000	100.082191
568.000000	100.139110
567.000000	100.180638
566.000000	100.169928
565.000000	100.102182
564.000000	100.010754
563.000000	99.923337
562.000000	99.822181
561.000000	99.686191
560.000000	99.565268
559.000000	99.548440
558.000000	99.638235
557.000000	99.724961
556.000000	99.724856
555.000000	99.679643
554.000000	99.676844
553.000000	99.732435
552.000000	99.806239
551.000000	99.873371
550.000000	99.926258
