PE IR       SUBTECH     SPECTRUM    ASCII       PEDS        4.00        
   -1
BH1 8-1 3 60_1.asc
24/05/15
17:01:54.00
24/05/15
17:03:16.00
Administrator
?品 129 用? Administrator 日期 Wednesday, May 15 2024
550.000000
#HDR
-1
-1
#GR
cm-1
%T
1.0
0.0
4000.000000
-1.000000
3451
8
99.870969
82.615217
#DATA
4000.000000	99.417785
3999.000000	99.417577
3998.000000	99.417424
3997.000000	99.417344
3996.000000	99.417310
3995.000000	99.417266
3994.000000	99.417175
3993.000000	99.417026
3992.000000	99.416829
3991.000000	99.416602
3990.000000	99.416354
3989.000000	99.416093
3988.000000	99.415830
3987.000000	99.415589
3986.000000	99.415397
3985.000000	99.415253
3984.000000	99.415129
3983.000000	99.414991
3982.000000	99.414826
3981.000000	99.414637
3980.000000	99.414440
3979.000000	99.414267
3978.000000	99.414151
3977.000000	99.414098
3976.000000	99.414082
3975.000000	99.414069
3974.000000	99.414039
3973.000000	99.413988
3972.000000	99.413919
3971.000000	99.413838
3970.000000	99.413752
3969.000000	99.413672
3968.000000	99.413614
3967.000000	99.413591
3966.000000	99.413601
3965.000000	99.413626
3964.000000	99.413626
3963.000000	99.413575
3962.000000	99.413474
3961.000000	99.413341
3960.000000	99.413191
3959.000000	99.413024
3958.000000	99.412842
3957.000000	99.412647
3956.000000	99.412445
3955.000000	99.412244
3954.000000	99.412056
3953.000000	99.411886
3952.000000	99.411727
3951.000000	99.411559
3950.000000	99.411368
3949.000000	99.411157
3948.000000	99.410959
3947.000000	99.410833
3946.000000	99.410808
3945.000000	99.410866
3944.000000	99.410959
3943.000000	99.411037
3942.000000	99.411061
3941.000000	99.411033
3940.000000	99.411013
3939.000000	99.411095
3938.000000	99.411348
3937.000000	99.411713
3936.000000	99.411963
3935.000000	99.411853
3934.000000	99.411370
3933.000000	99.410793
3932.000000	99.410429
3931.000000	99.410335
3930.000000	99.410389
3929.000000	99.410526
3928.000000	99.410753
3927.000000	99.411037
3926.000000	99.411394
3925.000000	99.411957
3924.000000	99.412656
3923.000000	99.413069
3922.000000	99.412895
3921.000000	99.412373
3920.000000	99.411960
3919.000000	99.411642
3918.000000	99.410949
3917.000000	99.409748
3916.000000	99.408671
3915.000000	99.408586
3914.000000	99.409815
3913.000000	99.412004
3912.000000	99.414308
3911.000000	99.415930
3910.000000	99.416585
3909.000000	99.416535
3908.000000	99.416138
3907.000000	99.415622
3906.000000	99.415289
3905.000000	99.415772
3904.000000	99.417576
3903.000000	99.420105
3902.000000	99.421690
3901.000000	99.421014
3900.000000	99.418372
3899.000000	99.415338
3898.000000	99.413169
3897.000000	99.411950
3896.000000	99.411107
3895.000000	99.410150
3894.000000	99.408947
3893.000000	99.407750
3892.000000	99.407007
3891.000000	99.407025
3890.000000	99.407481
3889.000000	99.407608
3888.000000	99.406895
3887.000000	99.405597
3886.000000	99.404521
3885.000000	99.404141
3884.000000	99.404078
3883.000000	99.403858
3882.000000	99.403682
3881.000000	99.403990
3880.000000	99.404496
3879.000000	99.404178
3878.000000	99.402360
3877.000000	99.399440
3876.000000	99.396648
3875.000000	99.395124
3874.000000	99.394833
3873.000000	99.394307
3872.000000	99.392115
3871.000000	99.388822
3870.000000	99.386768
3869.000000	99.387173
3868.000000	99.388660
3867.000000	99.389311
3866.000000	99.389190
3865.000000	99.389732
3864.000000	99.391334
3863.000000	99.392631
3862.000000	99.392202
3861.000000	99.390023
3860.000000	99.387066
3859.000000	99.384545
3858.000000	99.383128
3857.000000	99.382677
3856.000000	99.382171
3855.000000	99.380104
3854.000000	99.376098
3853.000000	99.372512
3852.000000	99.371657
3851.000000	99.373121
3850.000000	99.375535
3849.000000	99.378065
3848.000000	99.380349
3847.000000	99.382276
3846.000000	99.384000
3845.000000	99.385665
3844.000000	99.387105
3843.000000	99.388167
3842.000000	99.388679
3841.000000	99.388486
3840.000000	99.387719
3839.000000	99.386993
3838.000000	99.386861
3837.000000	99.387493
3836.000000	99.388499
3835.000000	99.389263
3834.000000	99.389658
3833.000000	99.390507
3832.000000	99.392907
3831.000000	99.396782
3830.000000	99.400567
3829.000000	99.402571
3828.000000	99.402533
3827.000000	99.401990
3826.000000	99.402817
3825.000000	99.405116
3824.000000	99.407103
3823.000000	99.407207
3822.000000	99.405757
3821.000000	99.404898
3820.000000	99.405742
3819.000000	99.406988
3818.000000	99.407304
3817.000000	99.407076
3816.000000	99.407725
3815.000000	99.409661
3814.000000	99.411743
3813.000000	99.412976
3812.000000	99.413457
3811.000000	99.413502
3810.000000	99.412928
3809.000000	99.411548
3808.000000	99.409912
3807.000000	99.409004
3806.000000	99.409115
3805.000000	99.409537
3804.000000	99.409451
3803.000000	99.408878
3802.000000	99.408585
3801.000000	99.409116
3800.000000	99.409995
3799.000000	99.410405
3798.000000	99.410231
3797.000000	99.409973
3796.000000	99.410106
3795.000000	99.410544
3794.000000	99.410838
3793.000000	99.410706
3792.000000	99.410228
3791.000000	99.409641
3790.000000	99.409146
3789.000000	99.408799
3788.000000	99.408489
3787.000000	99.408018
3786.000000	99.407342
3785.000000	99.406702
3784.000000	99.406389
3783.000000	99.406404
3782.000000	99.406482
3781.000000	99.406402
3780.000000	99.406148
3779.000000	99.405831
3778.000000	99.405494
3777.000000	99.405144
3776.000000	99.404902
3775.000000	99.404963
3774.000000	99.405184
3773.000000	99.405007
3772.000000	99.404132
3771.000000	99.403338
3770.000000	99.403937
3769.000000	99.406208
3768.000000	99.408808
3767.000000	99.410201
3766.000000	99.410284
3765.000000	99.410259
3764.000000	99.410755
3763.000000	99.410710
3762.000000	99.408758
3761.000000	99.404918
3760.000000	99.400670
3759.000000	99.397738
3758.000000	99.396924
3757.000000	99.397965
3756.000000	99.399658
3755.000000	99.400663
3754.000000	99.400612
3753.000000	99.399968
3752.000000	99.398525
3751.000000	99.395410
3750.000000	99.391846
3749.000000	99.390866
3748.000000	99.392967
3747.000000	99.395200
3746.000000	99.395281
3745.000000	99.395104
3744.000000	99.398246
3743.000000	99.403784
3742.000000	99.407553
3741.000000	99.408325
3740.000000	99.407849
3739.000000	99.407499
3738.000000	99.406633
3737.000000	99.404540
3736.000000	99.402011
3735.000000	99.399961
3734.000000	99.398032
3733.000000	99.396207
3732.000000	99.395775
3731.000000	99.396969
3730.000000	99.397935
3729.000000	99.396860
3728.000000	99.394265
3727.000000	99.392238
3726.000000	99.391415
3725.000000	99.390129
3724.000000	99.387547
3723.000000	99.385137
3722.000000	99.384038
3721.000000	99.383097
3720.000000	99.380185
3719.000000	99.374636
3718.000000	99.368076
3717.000000	99.362845
3716.000000	99.359315
3715.000000	99.355993
3714.000000	99.351676
3713.000000	99.346608
3712.000000	99.341892
3711.000000	99.338425
3710.000000	99.336146
3709.000000	99.334236
3708.000000	99.332196
3707.000000	99.330283
3706.000000	99.328627
3705.000000	99.326779
3704.000000	99.324266
3703.000000	99.321197
3702.000000	99.317914
3701.000000	99.314104
3700.000000	99.308659
3699.000000	99.300957
3698.000000	99.292436
3697.000000	99.286161
3696.000000	99.283752
3695.000000	99.283404
3694.000000	99.281727
3693.000000	99.276589
3692.000000	99.267805
3691.000000	99.256659
3690.000000	99.245823
3689.000000	99.238364
3688.000000	99.235188
3687.000000	99.234021
3686.000000	99.231431
3685.000000	99.226044
3684.000000	99.219193
3683.000000	99.212640
3682.000000	99.206423
3681.000000	99.199809
3680.000000	99.193316
3679.000000	99.187560
3678.000000	99.181406
3677.000000	99.173226
3676.000000	99.164122
3675.000000	99.156836
3674.000000	99.150568
3673.000000	99.141456
3672.000000	99.127799
3671.000000	99.112030
3670.000000	99.098706
3669.000000	99.089710
3668.000000	99.082802
3667.000000	99.075759
3666.000000	99.068580
3665.000000	99.062049
3664.000000	99.055735
3663.000000	99.047809
3662.000000	99.037120
3661.000000	99.024932
3660.000000	99.013766
3659.000000	99.004683
3658.000000	98.996855
3657.000000	98.989490
3656.000000	98.983342
3655.000000	98.978433
3654.000000	98.972461
3653.000000	98.963142
3652.000000	98.951581
3651.000000	98.942177
3650.000000	98.938255
3649.000000	98.937418
3648.000000	98.933723
3647.000000	98.924167
3646.000000	98.909936
3645.000000	98.893882
3644.000000	98.879098
3643.000000	98.868413
3642.000000	98.862748
3641.000000	98.859607
3640.000000	98.854686
3639.000000	98.846413
3638.000000	98.837329
3637.000000	98.830075
3636.000000	98.823841
3635.000000	98.816171
3634.000000	98.807216
3633.000000	98.799469
3632.000000	98.794449
3631.000000	98.791850
3630.000000	98.791136
3629.000000	98.792237
3628.000000	98.793149
3627.000000	98.789813
3626.000000	98.781287
3625.000000	98.771387
3624.000000	98.765366
3623.000000	98.766140
3622.000000	98.772778
3621.000000	98.782432
3620.000000	98.792864
3619.000000	98.803110
3618.000000	98.812502
3617.000000	98.819623
3616.000000	98.822825
3615.000000	98.822446
3614.000000	98.821889
3613.000000	98.824861
3612.000000	98.831371
3611.000000	98.837974
3610.000000	98.842416
3609.000000	98.846810
3608.000000	98.855375
3607.000000	98.869124
3606.000000	98.884223
3605.000000	98.895495
3604.000000	98.900300
3603.000000	98.900061
3602.000000	98.899289
3601.000000	98.902502
3600.000000	98.910151
3599.000000	98.918174
3598.000000	98.922960
3597.000000	98.924729
3596.000000	98.926096
3595.000000	98.928859
3594.000000	98.932848
3593.000000	98.936649
3592.000000	98.938993
3591.000000	98.938893
3590.000000	98.936391
3589.000000	98.933661
3588.000000	98.933824
3587.000000	98.936616
3586.000000	98.937803
3585.000000	98.934854
3584.000000	98.929854
3583.000000	98.925831
3582.000000	98.923168
3581.000000	98.920617
3580.000000	98.918368
3579.000000	98.917929
3578.000000	98.919159
3577.000000	98.919110
3576.000000	98.914816
3575.000000	98.906256
3574.000000	98.896098
3573.000000	98.887110
3572.000000	98.880873
3571.000000	98.878072
3570.000000	98.878396
3569.000000	98.880078
3568.000000	98.880609
3567.000000	98.878935
3566.000000	98.876496
3565.000000	98.875388
3564.000000	98.876223
3563.000000	98.877835
3562.000000	98.878456
3561.000000	98.877025
3560.000000	98.873778
3559.000000	98.869782
3558.000000	98.866004
3557.000000	98.862625
3556.000000	98.858975
3555.000000	98.854322
3554.000000	98.848911
3553.000000	98.843947
3552.000000	98.840250
3551.000000	98.837464
3550.000000	98.835064
3549.000000	98.833681
3548.000000	98.834667
3547.000000	98.838371
3546.000000	98.843318
3545.000000	98.847168
3544.000000	98.848343
3543.000000	98.846605
3542.000000	98.842723
3541.000000	98.838114
3540.000000	98.834384
3539.000000	98.832600
3538.000000	98.832829
3537.000000	98.834261
3536.000000	98.835719
3535.000000	98.836310
3534.000000	98.835811
3533.000000	98.834679
3532.000000	98.833738
3531.000000	98.833636
3530.000000	98.834376
3529.000000	98.835229
3528.000000	98.835205
3527.000000	98.833816
3526.000000	98.831512
3525.000000	98.829376
3524.000000	98.828233
3523.000000	98.828059
3522.000000	98.828339
3521.000000	98.828712
3520.000000	98.829054
3519.000000	98.829156
3518.000000	98.828772
3517.000000	98.827999
3516.000000	98.827261
3515.000000	98.826848
3514.000000	98.826653
3513.000000	98.826440
3512.000000	98.826117
3511.000000	98.825642
3510.000000	98.824898
3509.000000	98.823862
3508.000000	98.822724
3507.000000	98.821638
3506.000000	98.820559
3505.000000	98.819473
3504.000000	98.818595
3503.000000	98.818028
3502.000000	98.817418
3501.000000	98.816411
3500.000000	98.815427
3499.000000	98.815436
3498.000000	98.816945
3497.000000	98.819510
3496.000000	98.822100
3495.000000	98.823796
3494.000000	98.824100
3493.000000	98.822909
3492.000000	98.820692
3491.000000	98.818581
3490.000000	98.817758
3489.000000	98.818466
3488.000000	98.819699
3487.000000	98.820056
3486.000000	98.819093
3485.000000	98.817671
3484.000000	98.816897
3483.000000	98.816815
3482.000000	98.816472
3481.000000	98.815245
3480.000000	98.813597
3479.000000	98.812258
3478.000000	98.811109
3477.000000	98.809397
3476.000000	98.806785
3475.000000	98.803816
3474.000000	98.801470
3473.000000	98.800538
3472.000000	98.801235
3471.000000	98.802909
3470.000000	98.804096
3469.000000	98.803525
3468.000000	98.801273
3467.000000	98.798579
3466.000000	98.796286
3465.000000	98.793988
3464.000000	98.791076
3463.000000	98.787972
3462.000000	98.785715
3461.000000	98.784617
3460.000000	98.783954
3459.000000	98.782925
3458.000000	98.781410
3457.000000	98.779659
3456.000000	98.777760
3455.000000	98.775707
3454.000000	98.773682
3453.000000	98.771870
3452.000000	98.770075
3451.000000	98.767743
3450.000000	98.764461
3449.000000	98.760308
3448.000000	98.755808
3447.000000	98.751586
3446.000000	98.748002
3445.000000	98.745106
3444.000000	98.742901
3443.000000	98.741514
3442.000000	98.741105
3441.000000	98.741601
3440.000000	98.742502
3439.000000	98.743039
3438.000000	98.742637
3437.000000	98.741278
3436.000000	98.739425
3435.000000	98.737484
3434.000000	98.735407
3433.000000	98.732900
3432.000000	98.729932
3431.000000	98.726860
3430.000000	98.724070
3429.000000	98.721687
3428.000000	98.719757
3427.000000	98.718509
3426.000000	98.718158
3425.000000	98.718344
3424.000000	98.718026
3423.000000	98.716204
3422.000000	98.712801
3421.000000	98.708823
3420.000000	98.705576
3419.000000	98.703693
3418.000000	98.703025
3417.000000	98.703214
3416.000000	98.704040
3415.000000	98.705214
3414.000000	98.706093
3413.000000	98.705913
3412.000000	98.704393
3411.000000	98.702066
3410.000000	98.700060
3409.000000	98.699311
3408.000000	98.699940
3407.000000	98.701320
3406.000000	98.702545
3405.000000	98.703022
3404.000000	98.702680
3403.000000	98.701819
3402.000000	98.700887
3401.000000	98.700247
3400.000000	98.700005
3399.000000	98.700022
3398.000000	98.700057
3397.000000	98.699979
3396.000000	98.699867
3395.000000	98.699913
3394.000000	98.700217
3393.000000	98.700655
3392.000000	98.700957
3391.000000	98.700940
3390.000000	98.700655
3389.000000	98.700362
3388.000000	98.700347
3387.000000	98.700761
3386.000000	98.701575
3385.000000	98.702605
3384.000000	98.703637
3383.000000	98.704568
3382.000000	98.705427
3381.000000	98.706249
3380.000000	98.706993
3379.000000	98.707633
3378.000000	98.708241
3377.000000	98.708905
3376.000000	98.709617
3375.000000	98.710293
3374.000000	98.710857
3373.000000	98.711333
3372.000000	98.711885
3371.000000	98.712685
3370.000000	98.713734
3369.000000	98.714815
3368.000000	98.715683
3367.000000	98.716223
3366.000000	98.716518
3365.000000	98.716872
3364.000000	98.717591
3363.000000	98.718716
3362.000000	98.719956
3361.000000	98.721021
3360.000000	98.721963
3359.000000	98.723092
3358.000000	98.724587
3357.000000	98.726220
3356.000000	98.727497
3355.000000	98.728147
3354.000000	98.728451
3353.000000	98.729079
3352.000000	98.730400
3351.000000	98.732022
3350.000000	98.733148
3349.000000	98.733467
3348.000000	98.733550
3347.000000	98.734245
3346.000000	98.735756
3345.000000	98.737551
3344.000000	98.739014
3343.000000	98.740014
3342.000000	98.740766
3341.000000	98.741430
3340.000000	98.741977
3339.000000	98.742318
3338.000000	98.742359
3337.000000	98.742012
3336.000000	98.741359
3335.000000	98.740795
3334.000000	98.740817
3333.000000	98.741663
3332.000000	98.743299
3331.000000	98.745731
3330.000000	98.748993
3329.000000	98.752680
3328.000000	98.755745
3327.000000	98.757255
3326.000000	98.757335
3325.000000	98.757225
3324.000000	98.758156
3323.000000	98.760183
3322.000000	98.762298
3321.000000	98.763465
3320.000000	98.763446
3319.000000	98.762855
3318.000000	98.762733
3317.000000	98.763911
3316.000000	98.766440
3315.000000	98.769481
3314.000000	98.772082
3313.000000	98.774190
3312.000000	98.776510
3311.000000	98.779275
3310.000000	98.781604
3309.000000	98.782537
3308.000000	98.782435
3307.000000	98.782797
3306.000000	98.784641
3305.000000	98.787486
3304.000000	98.790067
3303.000000	98.791722
3302.000000	98.792823
3301.000000	98.794075
3300.000000	98.795768
3299.000000	98.797723
3298.000000	98.799697
3297.000000	98.801718
3296.000000	98.804110
3295.000000	98.807216
3294.000000	98.810961
3293.000000	98.814625
3292.000000	98.817230
3291.000000	98.818297
3290.000000	98.818150
3289.000000	98.817370
3288.000000	98.816083
3287.000000	98.814122
3286.000000	98.811918
3285.000000	98.810780
3284.000000	98.811831
3283.000000	98.814771
3282.000000	98.818123
3281.000000	98.820676
3280.000000	98.822412
3279.000000	98.823925
3278.000000	98.825369
3277.000000	98.826350
3276.000000	98.826692
3275.000000	98.826868
3274.000000	98.827542
3273.000000	98.828908
3272.000000	98.830746
3271.000000	98.832988
3270.000000	98.835848
3269.000000	98.839214
3268.000000	98.842168
3267.000000	98.843591
3266.000000	98.843294
3265.000000	98.842314
3264.000000	98.841949
3263.000000	98.842545
3262.000000	98.843564
3261.000000	98.844576
3260.000000	98.845766
3259.000000	98.847406
3258.000000	98.849295
3257.000000	98.850973
3256.000000	98.852318
3255.000000	98.853650
3254.000000	98.855280
3253.000000	98.857149
3252.000000	98.858956
3251.000000	98.860525
3250.000000	98.861949
3249.000000	98.863390
3248.000000	98.864882
3247.000000	98.866359
3246.000000	98.867826
3245.000000	98.869406
3244.000000	98.871167
3243.000000	98.872948
3242.000000	98.874467
3241.000000	98.875631
3240.000000	98.876636
3239.000000	98.877813
3238.000000	98.879328
3237.000000	98.881108
3236.000000	98.882959
3235.000000	98.884727
3234.000000	98.886387
3233.000000	98.888004
3232.000000	98.889675
3231.000000	98.891454
3230.000000	98.893329
3229.000000	98.895240
3228.000000	98.897133
3227.000000	98.898975
3226.000000	98.900757
3225.000000	98.902505
3224.000000	98.904278
3223.000000	98.906110
3222.000000	98.907948
3221.000000	98.909703
3220.000000	98.911361
3219.000000	98.913018
3218.000000	98.914779
3217.000000	98.916646
3216.000000	98.918537
3215.000000	98.920387
3214.000000	98.922222
3213.000000	98.924121
3212.000000	98.926118
3211.000000	98.928134
3210.000000	98.930037
3209.000000	98.931772
3208.000000	98.933413
3207.000000	98.935077
3206.000000	98.936800
3205.000000	98.938510
3204.000000	98.940101
3203.000000	98.941592
3202.000000	98.943178
3201.000000	98.945064
3200.000000	98.947260
3199.000000	98.949547
3198.000000	98.951629
3197.000000	98.953367
3196.000000	98.954858
3195.000000	98.956381
3194.000000	98.958218
3193.000000	98.960438
3192.000000	98.962819
3191.000000	98.965039
3190.000000	98.966979
3189.000000	98.968744
3188.000000	98.970352
3187.000000	98.971630
3186.000000	98.972503
3185.000000	98.973263
3184.000000	98.974386
3183.000000	98.976097
3182.000000	98.978245
3181.000000	98.980518
3180.000000	98.982660
3179.000000	98.984516
3178.000000	98.986069
3177.000000	98.987527
3176.000000	98.989270
3175.000000	98.991597
3174.000000	98.994483
3173.000000	98.997478
3172.000000	98.999883
3171.000000	99.001239
3170.000000	99.001717
3169.000000	99.002027
3168.000000	99.002672
3167.000000	99.003450
3166.000000	99.003932
3165.000000	99.004296
3164.000000	99.005336
3163.000000	99.007524
3162.000000	99.010461
3161.000000	99.013249
3160.000000	99.015376
3159.000000	99.016978
3158.000000	99.018424
3157.000000	99.019941
3156.000000	99.021566
3155.000000	99.023278
3154.000000	99.025048
3153.000000	99.026820
3152.000000	99.028504
3151.000000	99.030040
3150.000000	99.031505
3149.000000	99.033143
3148.000000	99.035177
3147.000000	99.037505
3146.000000	99.039646
3145.000000	99.041157
3144.000000	99.042047
3143.000000	99.042774
3142.000000	99.043801
3141.000000	99.045205
3140.000000	99.046774
3139.000000	99.048327
3138.000000	99.049852
3137.000000	99.051424
3136.000000	99.053107
3135.000000	99.054955
3134.000000	99.056982
3133.000000	99.059058
3132.000000	99.060897
3131.000000	99.062303
3130.000000	99.063362
3129.000000	99.064400
3128.000000	99.065710
3127.000000	99.067327
3126.000000	99.069076
3125.000000	99.070787
3124.000000	99.072485
3123.000000	99.074301
3122.000000	99.076264
3121.000000	99.078236
3120.000000	99.080025
3119.000000	99.081586
3118.000000	99.083040
3117.000000	99.084498
3116.000000	99.085909
3115.000000	99.087159
3114.000000	99.088270
3113.000000	99.089393
3112.000000	99.090596
3111.000000	99.091784
3110.000000	99.092872
3109.000000	99.093957
3108.000000	99.095207
3107.000000	99.096645
3106.000000	99.098113
3105.000000	99.099424
3104.000000	99.100549
3103.000000	99.101577
3102.000000	99.102619
3101.000000	99.103732
3100.000000	99.104916
3099.000000	99.106137
3098.000000	99.107339
3097.000000	99.108455
3096.000000	99.109440
3095.000000	99.110304
3094.000000	99.111113
3093.000000	99.111960
3092.000000	99.112904
3091.000000	99.113926
3090.000000	99.114933
3089.000000	99.115853
3088.000000	99.116740
3087.000000	99.117726
3086.000000	99.118846
3085.000000	99.119953
3084.000000	99.120845
3083.000000	99.121483
3082.000000	99.122044
3081.000000	99.122778
3080.000000	99.123768
3079.000000	99.124827
3078.000000	99.125645
3077.000000	99.126059
3076.000000	99.126169
3075.000000	99.126283
3074.000000	99.126753
3073.000000	99.127767
3072.000000	99.129157
3071.000000	99.130470
3070.000000	99.131444
3069.000000	99.132330
3068.000000	99.133549
3067.000000	99.135040
3066.000000	99.136213
3065.000000	99.136637
3064.000000	99.136497
3063.000000	99.136236
3062.000000	99.136026
3061.000000	99.135876
3060.000000	99.136077
3059.000000	99.137173
3058.000000	99.139379
3057.000000	99.142200
3056.000000	99.144782
3055.000000	99.146715
3054.000000	99.148331
3053.000000	99.150160
3052.000000	99.152121
3051.000000	99.153451
3050.000000	99.153532
3049.000000	99.152539
3048.000000	99.151160
3047.000000	99.149917
3046.000000	99.149099
3045.000000	99.149129
3044.000000	99.150487
3043.000000	99.153130
3042.000000	99.156274
3041.000000	99.158901
3040.000000	99.160374
3039.000000	99.160582
3038.000000	99.159791
3037.000000	99.158530
3036.000000	99.157364
3035.000000	99.156674
3034.000000	99.156647
3033.000000	99.157251
3032.000000	99.157986
3031.000000	99.157912
3030.000000	99.156406
3029.000000	99.153994
3028.000000	99.152113
3027.000000	99.151827
3026.000000	99.152928
3025.000000	99.154264
3024.000000	99.154816
3023.000000	99.154458
3022.000000	99.153840
3021.000000	99.153714
3020.000000	99.154260
3019.000000	99.155008
3018.000000	99.155432
3017.000000	99.155445
3016.000000	99.155071
3015.000000	99.153892
3014.000000	99.151441
3013.000000	99.148211
3012.000000	99.145617
3011.000000	99.144541
3010.000000	99.144370
3009.000000	99.143955
3008.000000	99.143128
3007.000000	99.142692
3006.000000	99.142856
3005.000000	99.142234
3004.000000	99.138939
3003.000000	99.132795
3002.000000	99.126227
3001.000000	99.122423
3000.000000	99.122409
2999.000000	99.124457
2998.000000	99.126397
2997.000000	99.127914
2996.000000	99.129902
2995.000000	99.132246
2994.000000	99.133489
2993.000000	99.132529
2992.000000	99.129360
2991.000000	99.124163
2990.000000	99.116962
2989.000000	99.108560
2988.000000	99.100624
2987.000000	99.094249
2986.000000	99.089383
2985.000000	99.086097
2984.000000	99.085162
2983.000000	99.086479
2982.000000	99.088123
2981.000000	99.088166
2980.000000	99.086881
2979.000000	99.085899
2978.000000	99.085741
2977.000000	99.085424
2976.000000	99.084304
2975.000000	99.083180
2974.000000	99.083254
2973.000000	99.084724
2972.000000	99.086681
2971.000000	99.088025
2970.000000	99.088466
2969.000000	99.088888
2968.000000	99.090587
2967.000000	99.093831
2966.000000	99.097322
2965.000000	99.099491
2964.000000	99.100195
2963.000000	99.100731
2962.000000	99.102346
2961.000000	99.105167
2960.000000	99.108567
2959.000000	99.112069
2958.000000	99.115594
2957.000000	99.118915
2956.000000	99.121229
2955.000000	99.121655
2954.000000	99.120488
2953.000000	99.119600
2952.000000	99.120980
2951.000000	99.124744
2950.000000	99.128983
2949.000000	99.131561
2948.000000	99.131583
2947.000000	99.129289
2946.000000	99.125476
2945.000000	99.121282
2944.000000	99.117761
2943.000000	99.115258
2942.000000	99.113654
2941.000000	99.113216
2940.000000	99.114341
2939.000000	99.116108
2938.000000	99.116173
2937.000000	99.113158
2936.000000	99.108684
2935.000000	99.106096
2934.000000	99.107154
2933.000000	99.110741
2932.000000	99.114279
2931.000000	99.115850
2930.000000	99.115117
2929.000000	99.113136
2928.000000	99.111681
2927.000000	99.112118
2926.000000	99.114602
2925.000000	99.118344
2924.000000	99.122491
2923.000000	99.126389
2922.000000	99.129350
2921.000000	99.131016
2920.000000	99.132107
2919.000000	99.134065
2918.000000	99.137539
2917.000000	99.141648
2916.000000	99.144937
2915.000000	99.146714
2914.000000	99.147223
2913.000000	99.147060
2912.000000	99.146880
2911.000000	99.147322
2910.000000	99.148579
2909.000000	99.150035
2908.000000	99.150713
2907.000000	99.150185
2906.000000	99.148912
2905.000000	99.147862
2904.000000	99.148015
2903.000000	99.149999
2902.000000	99.153577
2901.000000	99.157337
2900.000000	99.159416
2899.000000	99.159213
2898.000000	99.158065
2897.000000	99.157989
2896.000000	99.159689
2895.000000	99.162293
2894.000000	99.164746
2893.000000	99.166913
2892.000000	99.169132
2891.000000	99.171408
2890.000000	99.173585
2889.000000	99.175856
2888.000000	99.178536
2887.000000	99.181447
2886.000000	99.184015
2885.000000	99.185919
2884.000000	99.187348
2883.000000	99.188711
2882.000000	99.190353
2881.000000	99.192432
2880.000000	99.194763
2879.000000	99.196819
2878.000000	99.198281
2877.000000	99.199600
2876.000000	99.201635
2875.000000	99.204612
2874.000000	99.207724
2873.000000	99.209915
2872.000000	99.210802
2871.000000	99.210809
2870.000000	99.210771
2869.000000	99.211522
2868.000000	99.213490
2867.000000	99.216330
2866.000000	99.219006
2865.000000	99.220515
2864.000000	99.220510
2863.000000	99.219308
2862.000000	99.217682
2861.000000	99.216738
2860.000000	99.217528
2859.000000	99.220311
2858.000000	99.224233
2857.000000	99.227974
2856.000000	99.230828
2855.000000	99.232971
2854.000000	99.234877
2853.000000	99.236843
2852.000000	99.239033
2851.000000	99.241601
2850.000000	99.244583
2849.000000	99.247730
2848.000000	99.250481
2847.000000	99.252150
2846.000000	99.252362
2845.000000	99.251519
2844.000000	99.250776
2843.000000	99.251296
2842.000000	99.253458
2841.000000	99.256745
2840.000000	99.260291
2839.000000	99.263508
2838.000000	99.266300
2837.000000	99.268890
2836.000000	99.271490
2835.000000	99.274120
2834.000000	99.276722
2833.000000	99.279334
2832.000000	99.282028
2831.000000	99.284663
2830.000000	99.286807
2829.000000	99.287955
2828.000000	99.287894
2827.000000	99.287028
2826.000000	99.286482
2825.000000	99.287527
2824.000000	99.290443
2823.000000	99.294165
2822.000000	99.297384
2821.000000	99.299852
2820.000000	99.302149
2819.000000	99.304377
2818.000000	99.305875
2817.000000	99.306229
2816.000000	99.305800
2815.000000	99.305044
2814.000000	99.303990
2813.000000	99.302780
2812.000000	99.302124
2811.000000	99.302721
2810.000000	99.304500
2809.000000	99.306692
2808.000000	99.308512
2807.000000	99.309625
2806.000000	99.310119
2805.000000	99.310374
2804.000000	99.310898
2803.000000	99.312022
2802.000000	99.313625
2801.000000	99.315228
2800.000000	99.316371
2799.000000	99.316898
2798.000000	99.316989
2797.000000	99.317066
2796.000000	99.317599
2795.000000	99.318843
2794.000000	99.320689
2793.000000	99.322747
2792.000000	99.324576
2791.000000	99.325881
2790.000000	99.326605
2789.000000	99.326937
2788.000000	99.327254
2787.000000	99.327973
2786.000000	99.329355
2785.000000	99.331337
2784.000000	99.333450
2783.000000	99.335010
2782.000000	99.335666
2781.000000	99.335723
2780.000000	99.335944
2779.000000	99.336857
2778.000000	99.338393
2777.000000	99.340131
2776.000000	99.341653
2775.000000	99.342659
2774.000000	99.342944
2773.000000	99.342545
2772.000000	99.341909
2771.000000	99.341660
2770.000000	99.342089
2769.000000	99.343000
2768.000000	99.343974
2767.000000	99.344738
2766.000000	99.345270
2765.000000	99.345722
2764.000000	99.346332
2763.000000	99.347306
2762.000000	99.348650
2761.000000	99.350122
2760.000000	99.351393
2759.000000	99.352284
2758.000000	99.352841
2757.000000	99.353266
2756.000000	99.353771
2755.000000	99.354451
2754.000000	99.355253
2753.000000	99.356075
2752.000000	99.356855
2751.000000	99.357573
2750.000000	99.358196
2749.000000	99.358665
2748.000000	99.358954
2747.000000	99.359105
2746.000000	99.359213
2745.000000	99.359409
2744.000000	99.359799
2743.000000	99.360369
2742.000000	99.360964
2741.000000	99.361435
2740.000000	99.361778
2739.000000	99.362092
2738.000000	99.362458
2737.000000	99.362879
2736.000000	99.363310
2735.000000	99.363723
2734.000000	99.364133
2733.000000	99.364541
2732.000000	99.364951
2731.000000	99.365369
2730.000000	99.365797
2729.000000	99.366229
2728.000000	99.366652
2727.000000	99.367057
2726.000000	99.367443
2725.000000	99.367816
2724.000000	99.368185
2723.000000	99.368555
2722.000000	99.368928
2721.000000	99.369302
2720.000000	99.369673
2719.000000	99.370039
2718.000000	99.370403
2717.000000	99.370767
2716.000000	99.371128
2715.000000	99.371481
2714.000000	99.371821
2713.000000	99.372143
2712.000000	99.372422
2711.000000	99.372646
2710.000000	99.372874
2709.000000	99.373204
2708.000000	99.373679
2707.000000	99.374237
2706.000000	99.374776
2705.000000	99.375231
2704.000000	99.375557
2703.000000	99.375682
2702.000000	99.375599
2701.000000	99.375486
2700.000000	99.375592
2699.000000	99.375973
2698.000000	99.376506
2697.000000	99.377136
2696.000000	99.377903
2695.000000	99.378677
2694.000000	99.379120
2693.000000	99.379018
2692.000000	99.378499
2691.000000	99.377885
2690.000000	99.377474
2689.000000	99.377435
2688.000000	99.377696
2687.000000	99.377904
2686.000000	99.377833
2685.000000	99.377948
2684.000000	99.379183
2683.000000	99.381879
2682.000000	99.385174
2681.000000	99.387680
2680.000000	99.388662
2679.000000	99.388313
2678.000000	99.387094
2677.000000	99.385184
2676.000000	99.382571
2675.000000	99.379441
2674.000000	99.376347
2673.000000	99.374107
2672.000000	99.373479
2671.000000	99.374725
2670.000000	99.377262
2669.000000	99.379714
2668.000000	99.380620
2667.000000	99.379445
2666.000000	99.377015
2665.000000	99.374870
2664.000000	99.373983
2663.000000	99.374197
2662.000000	99.374835
2661.000000	99.375537
2660.000000	99.376295
2659.000000	99.377101
2658.000000	99.378081
2657.000000	99.379760
2656.000000	99.382560
2655.000000	99.386046
2654.000000	99.389148
2653.000000	99.391236
2652.000000	99.392507
2651.000000	99.393254
2650.000000	99.393410
2649.000000	99.393077
2648.000000	99.392800
2647.000000	99.392734
2646.000000	99.391992
2645.000000	99.389620
2644.000000	99.386054
2643.000000	99.383106
2642.000000	99.382267
2641.000000	99.383430
2640.000000	99.385251
2639.000000	99.386424
2638.000000	99.386574
2637.000000	99.386151
2636.000000	99.385816
2635.000000	99.385871
2634.000000	99.386069
2633.000000	99.385918
2632.000000	99.385289
2631.000000	99.384738
2630.000000	99.385052
2629.000000	99.386405
2628.000000	99.388043
2627.000000	99.388933
2626.000000	99.388735
2625.000000	99.388026
2624.000000	99.387654
2623.000000	99.387960
2622.000000	99.388684
2621.000000	99.389393
2620.000000	99.389768
2619.000000	99.389603
2618.000000	99.388810
2617.000000	99.387558
2616.000000	99.386286
2615.000000	99.385515
2614.000000	99.385536
2613.000000	99.386247
2612.000000	99.387226
2611.000000	99.388009
2610.000000	99.388437
2609.000000	99.388708
2608.000000	99.389090
2607.000000	99.389624
2606.000000	99.390168
2605.000000	99.390622
2604.000000	99.391008
2603.000000	99.391323
2602.000000	99.391451
2601.000000	99.391321
2600.000000	99.391054
2599.000000	99.390888
2598.000000	99.390951
2597.000000	99.391158
2596.000000	99.391302
2595.000000	99.391253
2594.000000	99.391095
2593.000000	99.391058
2592.000000	99.391271
2591.000000	99.391615
2590.000000	99.391880
2589.000000	99.392029
2588.000000	99.392211
2587.000000	99.392511
2586.000000	99.392813
2585.000000	99.392973
2584.000000	99.393019
2583.000000	99.393077
2582.000000	99.393162
2581.000000	99.393153
2580.000000	99.392958
2579.000000	99.392618
2578.000000	99.392282
2577.000000	99.392133
2576.000000	99.392290
2575.000000	99.392732
2574.000000	99.393280
2573.000000	99.393686
2572.000000	99.393818
2571.000000	99.393704
2570.000000	99.393462
2569.000000	99.393185
2568.000000	99.392914
2567.000000	99.392701
2566.000000	99.392630
2565.000000	99.392748
2564.000000	99.393010
2563.000000	99.393285
2562.000000	99.393458
2561.000000	99.393490
2560.000000	99.393391
2559.000000	99.393160
2558.000000	99.392811
2557.000000	99.392464
2556.000000	99.392333
2555.000000	99.392527
2554.000000	99.392948
2553.000000	99.393378
2552.000000	99.393695
2551.000000	99.393901
2550.000000	99.394017
2549.000000	99.394041
2548.000000	99.393997
2547.000000	99.393938
2546.000000	99.393903
2545.000000	99.393904
2544.000000	99.393961
2543.000000	99.394086
2542.000000	99.394230
2541.000000	99.394298
2540.000000	99.394262
2539.000000	99.394191
2538.000000	99.394184
2537.000000	99.394264
2536.000000	99.394372
2535.000000	99.394432
2534.000000	99.394420
2533.000000	99.394358
2532.000000	99.394276
2531.000000	99.394207
2530.000000	99.394186
2529.000000	99.394238
2528.000000	99.394351
2527.000000	99.394485
2526.000000	99.394601
2525.000000	99.394688
2524.000000	99.394748
2523.000000	99.394779
2522.000000	99.394772
2521.000000	99.394728
2520.000000	99.394660
2519.000000	99.394587
2518.000000	99.394537
2517.000000	99.394548
2516.000000	99.394639
2515.000000	99.394778
2514.000000	99.394909
2513.000000	99.394999
2512.000000	99.395057
2511.000000	99.395106
2510.000000	99.395162
2509.000000	99.395222
2508.000000	99.395278
2507.000000	99.395329
2506.000000	99.395384
2505.000000	99.395456
2504.000000	99.395553
2503.000000	99.395675
2502.000000	99.395817
2501.000000	99.395965
2500.000000	99.396110
2499.000000	99.396253
2498.000000	99.396407
2497.000000	99.396592
2496.000000	99.396816
2495.000000	99.397070
2494.000000	99.397340
2493.000000	99.397624
2492.000000	99.397923
2491.000000	99.398238
2490.000000	99.398565
2489.000000	99.398903
2488.000000	99.399247
2487.000000	99.399595
2486.000000	99.399942
2485.000000	99.400285
2484.000000	99.400624
2483.000000	99.400963
2482.000000	99.401308
2481.000000	99.401666
2480.000000	99.402037
2479.000000	99.402422
2478.000000	99.402820
2477.000000	99.403228
2476.000000	99.403647
2475.000000	99.404069
2474.000000	99.404489
2473.000000	99.404901
2472.000000	99.405304
2471.000000	99.405704
2470.000000	99.406109
2469.000000	99.406523
2468.000000	99.406943
2467.000000	99.407362
2466.000000	99.407777
2465.000000	99.408189
2464.000000	99.408597
2463.000000	99.408999
2462.000000	99.409391
2461.000000	99.409772
2460.000000	99.410141
2459.000000	99.410482
2458.000000	99.410773
2457.000000	99.411027
2456.000000	99.411285
2455.000000	99.411566
2454.000000	99.411849
2453.000000	99.412129
2452.000000	99.412433
2451.000000	99.412781
2450.000000	99.413145
2449.000000	99.413486
2448.000000	99.413796
2447.000000	99.414078
2446.000000	99.414323
2445.000000	99.414527
2444.000000	99.414661
2443.000000	99.414660
2442.000000	99.414538
2441.000000	99.414493
2440.000000	99.414754
2439.000000	99.415301
2438.000000	99.415823
2437.000000	99.416040
2436.000000	99.415940
2435.000000	99.415664
2434.000000	99.415305
2433.000000	99.414919
2432.000000	99.414651
2431.000000	99.414689
2430.000000	99.415081
2429.000000	99.415670
2428.000000	99.416195
2427.000000	99.416477
2426.000000	99.416509
2425.000000	99.416391
2424.000000	99.416152
2423.000000	99.415685
2422.000000	99.414952
2421.000000	99.414221
2420.000000	99.413930
2419.000000	99.414244
2418.000000	99.414888
2417.000000	99.415424
2416.000000	99.415687
2415.000000	99.415870
2414.000000	99.416252
2413.000000	99.416927
2412.000000	99.417730
2411.000000	99.418355
2410.000000	99.418588
2409.000000	99.418422
2408.000000	99.417993
2407.000000	99.417479
2406.000000	99.417075
2405.000000	99.416956
2404.000000	99.417170
2403.000000	99.417580
2402.000000	99.417935
2401.000000	99.418096
2400.000000	99.418113
2399.000000	99.418125
2398.000000	99.418234
2397.000000	99.418459
2396.000000	99.418765
2395.000000	99.419076
2394.000000	99.419337
2393.000000	99.419539
2392.000000	99.419709
2391.000000	99.419875
2390.000000	99.420045
2389.000000	99.420214
2388.000000	99.420365
2387.000000	99.420486
2386.000000	99.420593
2385.000000	99.420690
2384.000000	99.420791
2383.000000	99.420905
2382.000000	99.421032
2381.000000	99.421167
2380.000000	99.421304
2379.000000	99.421435
2378.000000	99.421552
2377.000000	99.421645
2376.000000	99.421705
2375.000000	99.421730
2374.000000	99.421726
2373.000000	99.421700
2372.000000	99.421661
2371.000000	99.421610
2370.000000	99.421550
2369.000000	99.421487
2368.000000	99.421429
2367.000000	99.421382
2366.000000	99.421352
2365.000000	99.421338
2364.000000	99.421334
2363.000000	99.421329
2362.000000	99.421306
2361.000000	99.421251
2360.000000	99.421157
2359.000000	99.421034
2358.000000	99.420897
2357.000000	99.420762
2356.000000	99.420631
2355.000000	99.420500
2354.000000	99.420364
2353.000000	99.420225
2352.000000	99.420096
2351.000000	99.419988
2350.000000	99.419894
2349.000000	99.419800
2348.000000	99.419690
2347.000000	99.419562
2346.000000	99.419428
2345.000000	99.419305
2344.000000	99.419194
2343.000000	99.419081
2342.000000	99.418945
2341.000000	99.418769
2340.000000	99.418541
2339.000000	99.418263
2338.000000	99.417952
2337.000000	99.417617
2336.000000	99.417264
2335.000000	99.416899
2334.000000	99.416535
2333.000000	99.416207
2332.000000	99.415938
2331.000000	99.415723
2330.000000	99.415520
2329.000000	99.415293
2328.000000	99.415029
2327.000000	99.414734
2326.000000	99.414418
2325.000000	99.414095
2324.000000	99.413774
2323.000000	99.413456
2322.000000	99.413125
2321.000000	99.412766
2320.000000	99.412387
2319.000000	99.412016
2318.000000	99.411679
2317.000000	99.411386
2316.000000	99.411115
2315.000000	99.410839
2314.000000	99.410537
2313.000000	99.410231
2312.000000	99.409929
2311.000000	99.409599
2310.000000	99.409173
2309.000000	99.408636
2308.000000	99.408020
2307.000000	99.407413
2306.000000	99.406910
2305.000000	99.406584
2304.000000	99.406389
2303.000000	99.406172
2302.000000	99.405806
2301.000000	99.405317
2300.000000	99.404830
2299.000000	99.404418
2298.000000	99.404065
2297.000000	99.403751
2296.000000	99.403493
2295.000000	99.403297
2294.000000	99.403117
2293.000000	99.402908
2292.000000	99.402683
2291.000000	99.402474
2290.000000	99.402265
2289.000000	99.402001
2288.000000	99.401659
2287.000000	99.401266
2286.000000	99.400860
2285.000000	99.400486
2284.000000	99.400211
2283.000000	99.400081
2282.000000	99.400056
2281.000000	99.400013
2280.000000	99.399868
2279.000000	99.399626
2278.000000	99.399351
2277.000000	99.399100
2276.000000	99.398903
2275.000000	99.398777
2274.000000	99.398715
2273.000000	99.398683
2272.000000	99.398633
2271.000000	99.398533
2270.000000	99.398377
2269.000000	99.398162
2268.000000	99.397882
2267.000000	99.397536
2266.000000	99.397155
2265.000000	99.396801
2264.000000	99.396516
2263.000000	99.396308
2262.000000	99.396190
2261.000000	99.396193
2260.000000	99.396263
2259.000000	99.396165
2258.000000	99.395669
2257.000000	99.394797
2256.000000	99.393870
2255.000000	99.393251
2254.000000	99.393089
2253.000000	99.393332
2252.000000	99.393820
2251.000000	99.394322
2250.000000	99.394591
2249.000000	99.394487
2248.000000	99.394014
2247.000000	99.393265
2246.000000	99.392471
2245.000000	99.392075
2244.000000	99.392456
2243.000000	99.393461
2242.000000	99.394395
2241.000000	99.394712
2240.000000	99.394489
2239.000000	99.394012
2238.000000	99.393203
2237.000000	99.391859
2236.000000	99.390222
2235.000000	99.388863
2234.000000	99.388092
2233.000000	99.387842
2232.000000	99.387961
2231.000000	99.388260
2230.000000	99.388384
2229.000000	99.388096
2228.000000	99.387729
2227.000000	99.387940
2226.000000	99.388914
2225.000000	99.390077
2224.000000	99.390697
2223.000000	99.390658
2222.000000	99.390575
2221.000000	99.391181
2220.000000	99.392620
2219.000000	99.394253
2218.000000	99.395242
2217.000000	99.395329
2216.000000	99.394883
2215.000000	99.394286
2214.000000	99.393588
2213.000000	99.392863
2212.000000	99.392473
2211.000000	99.392644
2210.000000	99.393067
2209.000000	99.393254
2208.000000	99.393107
2207.000000	99.392859
2206.000000	99.392627
2205.000000	99.392370
2204.000000	99.392181
2203.000000	99.392283
2202.000000	99.392738
2201.000000	99.393349
2200.000000	99.393847
2199.000000	99.394027
2198.000000	99.393808
2197.000000	99.393340
2196.000000	99.392975
2195.000000	99.392977
2194.000000	99.393299
2193.000000	99.393717
2192.000000	99.394075
2191.000000	99.394297
2190.000000	99.394321
2189.000000	99.394175
2188.000000	99.394037
2187.000000	99.394037
2186.000000	99.394048
2185.000000	99.393824
2184.000000	99.393311
2183.000000	99.392710
2182.000000	99.392252
2181.000000	99.392023
2180.000000	99.392018
2179.000000	99.392236
2178.000000	99.392635
2177.000000	99.393053
2176.000000	99.393291
2175.000000	99.393239
2174.000000	99.392912
2173.000000	99.392420
2172.000000	99.391915
2171.000000	99.391511
2170.000000	99.391204
2169.000000	99.390922
2168.000000	99.390664
2167.000000	99.390542
2166.000000	99.390637
2165.000000	99.390851
2164.000000	99.390927
2163.000000	99.390657
2162.000000	99.390043
2161.000000	99.389337
2160.000000	99.388871
2159.000000	99.388767
2158.000000	99.388839
2157.000000	99.388850
2156.000000	99.388861
2155.000000	99.389163
2154.000000	99.389852
2153.000000	99.390598
2152.000000	99.390921
2151.000000	99.390668
2150.000000	99.390103
2149.000000	99.389642
2148.000000	99.389477
2147.000000	99.389540
2146.000000	99.389702
2145.000000	99.389896
2144.000000	99.390062
2143.000000	99.390085
2142.000000	99.389899
2141.000000	99.389631
2140.000000	99.389517
2139.000000	99.389601
2138.000000	99.389644
2137.000000	99.389443
2136.000000	99.389170
2135.000000	99.389247
2134.000000	99.389894
2133.000000	99.390971
2132.000000	99.392191
2131.000000	99.393335
2130.000000	99.394207
2129.000000	99.394597
2128.000000	99.394410
2127.000000	99.393820
2126.000000	99.393225
2125.000000	99.393040
2124.000000	99.393479
2123.000000	99.394416
2122.000000	99.395439
2121.000000	99.396202
2120.000000	99.396761
2119.000000	99.397406
2118.000000	99.398209
2117.000000	99.398945
2116.000000	99.399519
2115.000000	99.400205
2114.000000	99.401274
2113.000000	99.402550
2112.000000	99.403551
2111.000000	99.404056
2110.000000	99.404283
2109.000000	99.404528
2108.000000	99.404820
2107.000000	99.405009
2106.000000	99.405099
2105.000000	99.405366
2104.000000	99.406065
2103.000000	99.407059
2102.000000	99.407804
2101.000000	99.407816
2100.000000	99.407151
2099.000000	99.406418
2098.000000	99.406202
2097.000000	99.406561
2096.000000	99.407164
2095.000000	99.407770
2094.000000	99.408404
2093.000000	99.409065
2092.000000	99.409525
2091.000000	99.409559
2090.000000	99.409314
2089.000000	99.409289
2088.000000	99.409874
2087.000000	99.410988
2086.000000	99.412195
2085.000000	99.413168
2084.000000	99.414005
2083.000000	99.415036
2082.000000	99.416336
2081.000000	99.417467
2080.000000	99.417838
2079.000000	99.417320
2078.000000	99.416413
2077.000000	99.415787
2076.000000	99.415682
2075.000000	99.415960
2074.000000	99.416530
2073.000000	99.417405
2072.000000	99.418369
2071.000000	99.418942
2070.000000	99.418848
2069.000000	99.418287
2068.000000	99.417615
2067.000000	99.416979
2066.000000	99.416479
2065.000000	99.416422
2064.000000	99.417074
2063.000000	99.418209
2062.000000	99.419157
2061.000000	99.419372
2060.000000	99.418807
2059.000000	99.417828
2058.000000	99.416929
2057.000000	99.416421
2056.000000	99.416214
2055.000000	99.415951
2054.000000	99.415498
2053.000000	99.415209
2052.000000	99.415506
2051.000000	99.416289
2050.000000	99.416981
2049.000000	99.417123
2048.000000	99.416629
2047.000000	99.415502
2046.000000	99.413737
2045.000000	99.411680
2044.000000	99.410034
2043.000000	99.409206
2042.000000	99.408948
2041.000000	99.408701
2040.000000	99.408129
2039.000000	99.407182
2038.000000	99.405895
2037.000000	99.404414
2036.000000	99.403066
2035.000000	99.402103
2034.000000	99.401442
2033.000000	99.400794
2032.000000	99.399929
2031.000000	99.398698
2030.000000	99.397036
2029.000000	99.395227
2028.000000	99.393910
2027.000000	99.393432
2026.000000	99.393289
2025.000000	99.392592
2024.000000	99.391165
2023.000000	99.389760
2022.000000	99.389050
2021.000000	99.388805
2020.000000	99.388310
2019.000000	99.387304
2018.000000	99.386089
2017.000000	99.384879
2016.000000	99.383450
2015.000000	99.381583
2014.000000	99.379532
2013.000000	99.377828
2012.000000	99.376702
2011.000000	99.375833
2010.000000	99.374697
2009.000000	99.373082
2008.000000	99.371303
2007.000000	99.370004
2006.000000	99.369673
2005.000000	99.370229
2004.000000	99.370997
2003.000000	99.371211
2002.000000	99.370658
2001.000000	99.369734
2000.000000	99.368942
1999.000000	99.368432
1998.000000	99.368097
1997.000000	99.367897
1996.000000	99.367875
1995.000000	99.367940
1994.000000	99.367858
1993.000000	99.367518
1992.000000	99.367048
1991.000000	99.366626
1990.000000	99.366283
1989.000000	99.365968
1988.000000	99.365690
1987.000000	99.365512
1986.000000	99.365440
1985.000000	99.365396
1984.000000	99.365281
1983.000000	99.365068
1982.000000	99.364810
1981.000000	99.364600
1980.000000	99.364492
1979.000000	99.364474
1978.000000	99.364499
1977.000000	99.364529
1976.000000	99.364549
1975.000000	99.364554
1974.000000	99.364551
1973.000000	99.364549
1972.000000	99.364562
1971.000000	99.364596
1970.000000	99.364648
1969.000000	99.364708
1968.000000	99.364767
1967.000000	99.364813
1966.000000	99.364839
1965.000000	99.364842
1964.000000	99.364823
1963.000000	99.364783
1962.000000	99.364723
1961.000000	99.364644
1960.000000	99.364563
1959.000000	99.364510
1958.000000	99.364500
1957.000000	99.364505
1956.000000	99.364481
1955.000000	99.364393
1954.000000	99.364215
1953.000000	99.363946
1952.000000	99.363646
1951.000000	99.363412
1950.000000	99.363268
1949.000000	99.363115
1948.000000	99.362836
1947.000000	99.362424
1946.000000	99.361965
1945.000000	99.361540
1944.000000	99.361196
1943.000000	99.360965
1942.000000	99.360839
1941.000000	99.360725
1940.000000	99.360494
1939.000000	99.360077
1938.000000	99.359495
1937.000000	99.358820
1936.000000	99.358142
1935.000000	99.357533
1934.000000	99.357017
1933.000000	99.356545
1932.000000	99.355935
1931.000000	99.354940
1930.000000	99.353521
1929.000000	99.351952
1928.000000	99.350577
1927.000000	99.349501
1926.000000	99.348588
1925.000000	99.347688
1924.000000	99.346710
1923.000000	99.345551
1922.000000	99.344228
1921.000000	99.343039
1920.000000	99.342340
1919.000000	99.342018
1918.000000	99.341313
1917.000000	99.339549
1916.000000	99.336908
1915.000000	99.334261
1914.000000	99.332318
1913.000000	99.331161
1912.000000	99.330376
1911.000000	99.329505
1910.000000	99.328451
1909.000000	99.327408
1908.000000	99.326417
1907.000000	99.325151
1906.000000	99.323320
1905.000000	99.321161
1904.000000	99.319250
1903.000000	99.317817
1902.000000	99.316622
1901.000000	99.315605
1900.000000	99.315142
1899.000000	99.315264
1898.000000	99.315055
1897.000000	99.313425
1896.000000	99.310266
1895.000000	99.306462
1894.000000	99.303046
1893.000000	99.300752
1892.000000	99.300009
1891.000000	99.300489
1890.000000	99.300609
1889.000000	99.298741
1888.000000	99.295214
1887.000000	99.291890
1886.000000	99.289767
1885.000000	99.288236
1884.000000	99.286744
1883.000000	99.286145
1882.000000	99.287413
1881.000000	99.289623
1880.000000	99.290509
1879.000000	99.289185
1878.000000	99.287221
1877.000000	99.286624
1876.000000	99.287448
1875.000000	99.288055
1874.000000	99.287371
1873.000000	99.286155
1872.000000	99.285924
1871.000000	99.287302
1870.000000	99.289582
1869.000000	99.291547
1868.000000	99.292456
1867.000000	99.292121
1866.000000	99.290543
1865.000000	99.287915
1864.000000	99.284898
1863.000000	99.282643
1862.000000	99.282468
1861.000000	99.285225
1860.000000	99.290611
1859.000000	99.297205
1858.000000	99.303546
1857.000000	99.309073
1856.000000	99.313828
1855.000000	99.317490
1854.000000	99.319227
1853.000000	99.318853
1852.000000	99.317635
1851.000000	99.317294
1850.000000	99.318511
1849.000000	99.320911
1848.000000	99.324204
1847.000000	99.328490
1846.000000	99.333328
1845.000000	99.337084
1844.000000	99.338354
1843.000000	99.338008
1842.000000	99.337978
1841.000000	99.338924
1840.000000	99.340448
1839.000000	99.341896
1838.000000	99.342601
1837.000000	99.342245
1836.000000	99.341349
1835.000000	99.340979
1834.000000	99.341744
1833.000000	99.343345
1832.000000	99.345123
1831.000000	99.346456
1830.000000	99.346941
1829.000000	99.346831
1828.000000	99.346747
1827.000000	99.346739
1826.000000	99.346106
1825.000000	99.344276
1824.000000	99.341777
1823.000000	99.339709
1822.000000	99.338586
1821.000000	99.338405
1820.000000	99.339265
1819.000000	99.341419
1818.000000	99.344892
1817.000000	99.349136
1816.000000	99.353016
1815.000000	99.355287
1814.000000	99.355376
1813.000000	99.353750
1812.000000	99.351541
1811.000000	99.349501
1810.000000	99.347461
1809.000000	99.345004
1808.000000	99.342211
1807.000000	99.339785
1806.000000	99.338667
1805.000000	99.339336
1804.000000	99.341299
1803.000000	99.343297
1802.000000	99.344247
1801.000000	99.344081
1800.000000	99.343453
1799.000000	99.342854
1798.000000	99.342564
1797.000000	99.343024
1796.000000	99.344615
1795.000000	99.347241
1794.000000	99.350244
1793.000000	99.352595
1792.000000	99.353476
1791.000000	99.352908
1790.000000	99.351752
1789.000000	99.351165
1788.000000	99.352028
1787.000000	99.354471
1786.000000	99.357690
1785.000000	99.360504
1784.000000	99.362387
1783.000000	99.363667
1782.000000	99.364729
1781.000000	99.365606
1780.000000	99.366365
1779.000000	99.367414
1778.000000	99.369041
1777.000000	99.370906
1776.000000	99.372331
1775.000000	99.373054
1774.000000	99.373619
1773.000000	99.374999
1772.000000	99.377787
1771.000000	99.381345
1770.000000	99.384407
1769.000000	99.386558
1768.000000	99.388328
1767.000000	99.390215
1766.000000	99.392055
1765.000000	99.393457
1764.000000	99.394418
1763.000000	99.395247
1762.000000	99.396161
1761.000000	99.397294
1760.000000	99.398855
1759.000000	99.400904
1758.000000	99.402994
1757.000000	99.404227
1756.000000	99.404086
1755.000000	99.403004
1754.000000	99.401790
1753.000000	99.401150
1752.000000	99.401828
1751.000000	99.404356
1750.000000	99.408162
1749.000000	99.411637
1748.000000	99.413581
1747.000000	99.413904
1746.000000	99.413128
1745.000000	99.411898
1744.000000	99.410943
1743.000000	99.410866
1742.000000	99.411657
1741.000000	99.412765
1740.000000	99.413629
1739.000000	99.413996
1738.000000	99.413872
1737.000000	99.413642
1736.000000	99.414424
1735.000000	99.417417
1734.000000	99.421533
1733.000000	99.423482
1732.000000	99.422053
1731.000000	99.418527
1730.000000	99.414638
1729.000000	99.411452
1728.000000	99.409038
1727.000000	99.406923
1726.000000	99.404901
1725.000000	99.403306
1724.000000	99.402563
1723.000000	99.402574
1722.000000	99.402709
1721.000000	99.402560
1720.000000	99.402268
1719.000000	99.401776
1718.000000	99.400151
1717.000000	99.397321
1716.000000	99.394855
1715.000000	99.393680
1714.000000	99.393264
1713.000000	99.392442
1712.000000	99.390312
1711.000000	99.386812
1710.000000	99.382744
1709.000000	99.379515
1708.000000	99.378052
1707.000000	99.377500
1706.000000	99.375535
1705.000000	99.370994
1704.000000	99.365499
1703.000000	99.361123
1702.000000	99.358494
1701.000000	99.356522
1700.000000	99.353781
1699.000000	99.350987
1698.000000	99.349263
1697.000000	99.347963
1696.000000	99.345485
1695.000000	99.341242
1694.000000	99.336646
1693.000000	99.332707
1692.000000	99.329168
1691.000000	99.325656
1690.000000	99.322170
1689.000000	99.318934
1688.000000	99.316014
1687.000000	99.313261
1686.000000	99.310734
1685.000000	99.308346
1684.000000	99.305988
1683.000000	99.303927
1682.000000	99.301938
1681.000000	99.299565
1680.000000	99.297107
1679.000000	99.295032
1678.000000	99.293287
1677.000000	99.291145
1676.000000	99.287723
1675.000000	99.283127
1674.000000	99.278806
1673.000000	99.275785
1672.000000	99.273956
1671.000000	99.272915
1670.000000	99.272141
1669.000000	99.271030
1668.000000	99.269170
1667.000000	99.266269
1666.000000	99.261908
1665.000000	99.256123
1664.000000	99.250030
1663.000000	99.245562
1662.000000	99.243602
1661.000000	99.242638
1660.000000	99.240983
1659.000000	99.238992
1658.000000	99.237727
1657.000000	99.236970
1656.000000	99.235034
1655.000000	99.230666
1654.000000	99.222659
1653.000000	99.212916
1652.000000	99.207291
1651.000000	99.206120
1650.000000	99.205498
1649.000000	99.203758
1648.000000	99.200871
1647.000000	99.197993
1646.000000	99.196941
1645.000000	99.198441
1644.000000	99.201497
1643.000000	99.204419
1642.000000	99.205724
1641.000000	99.204714
1640.000000	99.201673
1639.000000	99.197527
1638.000000	99.193149
1637.000000	99.189155
1636.000000	99.186362
1635.000000	99.186374
1634.000000	99.188820
1633.000000	99.191450
1632.000000	99.193111
1631.000000	99.194410
1630.000000	99.196343
1629.000000	99.198921
1628.000000	99.201153
1627.000000	99.202457
1626.000000	99.203172
1625.000000	99.203788
1624.000000	99.204365
1623.000000	99.205011
1622.000000	99.206097
1621.000000	99.207377
1620.000000	99.208146
1619.000000	99.208318
1618.000000	99.208940
1617.000000	99.211435
1616.000000	99.216112
1615.000000	99.221387
1614.000000	99.225438
1613.000000	99.228339
1612.000000	99.232248
1611.000000	99.239188
1610.000000	99.248312
1609.000000	99.255800
1608.000000	99.258662
1607.000000	99.257714
1606.000000	99.256302
1605.000000	99.257059
1604.000000	99.260528
1603.000000	99.266028
1602.000000	99.272473
1601.000000	99.278731
1600.000000	99.283992
1599.000000	99.287901
1598.000000	99.290370
1597.000000	99.291781
1596.000000	99.293308
1595.000000	99.296365
1594.000000	99.301172
1593.000000	99.306234
1592.000000	99.309896
1591.000000	99.311991
1590.000000	99.313543
1589.000000	99.315264
1588.000000	99.317015
1587.000000	99.318687
1586.000000	99.320710
1585.000000	99.323442
1584.000000	99.326538
1583.000000	99.329253
1582.000000	99.331180
1581.000000	99.332501
1580.000000	99.333872
1579.000000	99.336161
1578.000000	99.340005
1577.000000	99.344694
1576.000000	99.347971
1575.000000	99.348942
1574.000000	99.349011
1573.000000	99.349233
1572.000000	99.349809
1571.000000	99.350706
1570.000000	99.351649
1569.000000	99.352241
1568.000000	99.352474
1567.000000	99.352984
1566.000000	99.354494
1565.000000	99.357075
1564.000000	99.359775
1563.000000	99.361624
1562.000000	99.363057
1561.000000	99.365868
1560.000000	99.370795
1559.000000	99.373978
1558.000000	99.372668
1557.000000	99.369162
1556.000000	99.365767
1555.000000	99.363089
1554.000000	99.361293
1553.000000	99.360608
1552.000000	99.360981
1551.000000	99.362006
1550.000000	99.363232
1549.000000	99.364313
1548.000000	99.365002
1547.000000	99.365021
1546.000000	99.364156
1545.000000	99.362523
1544.000000	99.360641
1543.000000	99.359020
1542.000000	99.358171
1541.000000	99.358915
1540.000000	99.361244
1539.000000	99.363268
1538.000000	99.363882
1537.000000	99.363973
1536.000000	99.364506
1535.000000	99.365699
1534.000000	99.366932
1533.000000	99.367656
1532.000000	99.368212
1531.000000	99.368861
1530.000000	99.369227
1529.000000	99.368848
1528.000000	99.367589
1527.000000	99.365775
1526.000000	99.364071
1525.000000	99.363303
1524.000000	99.363953
1523.000000	99.365847
1522.000000	99.368054
1521.000000	99.369579
1520.000000	99.370470
1519.000000	99.371324
1518.000000	99.372317
1517.000000	99.373289
1516.000000	99.373741
1515.000000	99.372903
1514.000000	99.370511
1513.000000	99.367643
1512.000000	99.366326
1511.000000	99.367505
1510.000000	99.370123
1509.000000	99.372795
1508.000000	99.375764
1507.000000	99.379797
1506.000000	99.383805
1505.000000	99.385994
1504.000000	99.386809
1503.000000	99.387115
1502.000000	99.387343
1501.000000	99.387885
1500.000000	99.389330
1499.000000	99.391647
1498.000000	99.393415
1497.000000	99.393081
1496.000000	99.391133
1495.000000	99.389310
1494.000000	99.387962
1493.000000	99.386295
1492.000000	99.384262
1491.000000	99.383149
1490.000000	99.384343
1489.000000	99.387532
1488.000000	99.390604
1487.000000	99.391983
1486.000000	99.392014
1485.000000	99.391898
1484.000000	99.392247
1483.000000	99.392627
1482.000000	99.392166
1481.000000	99.390766
1480.000000	99.389335
1479.000000	99.388478
1478.000000	99.387799
1477.000000	99.386774
1476.000000	99.385790
1475.000000	99.385598
1474.000000	99.386070
1473.000000	99.386136
1472.000000	99.385432
1471.000000	99.384669
1470.000000	99.384176
1469.000000	99.383625
1468.000000	99.382877
1467.000000	99.382192
1466.000000	99.381896
1465.000000	99.382040
1464.000000	99.382251
1463.000000	99.381937
1462.000000	99.380610
1461.000000	99.378212
1460.000000	99.375276
1459.000000	99.373035
1458.000000	99.372598
1457.000000	99.373748
1456.000000	99.374980
1455.000000	99.375046
1454.000000	99.373620
1453.000000	99.371035
1452.000000	99.367819
1451.000000	99.364103
1450.000000	99.359504
1449.000000	99.354257
1448.000000	99.349876
1447.000000	99.347588
1446.000000	99.346977
1445.000000	99.347380
1444.000000	99.348851
1443.000000	99.351110
1442.000000	99.352663
1441.000000	99.352219
1440.000000	99.350471
1439.000000	99.349144
1438.000000	99.348283
1437.000000	99.345478
1436.000000	99.339650
1435.000000	99.333306
1434.000000	99.328540
1433.000000	99.325399
1432.000000	99.323564
1431.000000	99.323033
1430.000000	99.323617
1429.000000	99.324746
1428.000000	99.325815
1427.000000	99.326202
1426.000000	99.325497
1425.000000	99.324115
1424.000000	99.323456
1423.000000	99.324335
1422.000000	99.325674
1421.000000	99.326103
1420.000000	99.325466
1419.000000	99.324481
1418.000000	99.323601
1417.000000	99.322866
1416.000000	99.322487
1415.000000	99.322422
1414.000000	99.322243
1413.000000	99.322270
1412.000000	99.324135
1411.000000	99.328782
1410.000000	99.334470
1409.000000	99.338514
1408.000000	99.340375
1407.000000	99.341348
1406.000000	99.342161
1405.000000	99.342325
1404.000000	99.341980
1403.000000	99.342511
1402.000000	99.344749
1401.000000	99.348101
1400.000000	99.351186
1399.000000	99.352877
1398.000000	99.353072
1397.000000	99.352748
1396.000000	99.353423
1395.000000	99.356208
1394.000000	99.360684
1393.000000	99.365238
1392.000000	99.368766
1391.000000	99.370908
1390.000000	99.371499
1389.000000	99.370890
1388.000000	99.370607
1387.000000	99.372468
1386.000000	99.376335
1385.000000	99.380106
1384.000000	99.382355
1383.000000	99.383559
1382.000000	99.384927
1381.000000	99.386906
1380.000000	99.389069
1379.000000	99.391080
1378.000000	99.393147
1377.000000	99.395551
1376.000000	99.398174
1375.000000	99.400538
1374.000000	99.402303
1373.000000	99.403774
1372.000000	99.405608
1371.000000	99.407914
1370.000000	99.409964
1369.000000	99.410969
1368.000000	99.411280
1367.000000	99.412115
1366.000000	99.413993
1365.000000	99.416270
1364.000000	99.417981
1363.000000	99.418590
1362.000000	99.418240
1361.000000	99.417691
1360.000000	99.417941
1359.000000	99.419253
1358.000000	99.420390
1357.000000	99.419530
1356.000000	99.416427
1355.000000	99.413172
1354.000000	99.412225
1353.000000	99.414119
1352.000000	99.417460
1351.000000	99.420455
1350.000000	99.422049
1349.000000	99.422060
1348.000000	99.421172
1347.000000	99.420405
1346.000000	99.420036
1345.000000	99.419220
1344.000000	99.416962
1343.000000	99.413152
1342.000000	99.408666
1341.000000	99.405140
1340.000000	99.404538
1339.000000	99.407632
1338.000000	99.412417
1337.000000	99.415555
1336.000000	99.415911
1335.000000	99.415231
1334.000000	99.415366
1333.000000	99.415830
1332.000000	99.414820
1331.000000	99.411983
1330.000000	99.409084
1329.000000	99.408093
1328.000000	99.409662
1327.000000	99.413346
1326.000000	99.418166
1325.000000	99.422697
1324.000000	99.425573
1323.000000	99.426150
1322.000000	99.424521
1321.000000	99.421167
1320.000000	99.417131
1319.000000	99.414036
1318.000000	99.412869
1317.000000	99.412857
1316.000000	99.412473
1315.000000	99.411404
1314.000000	99.410778
1313.000000	99.411570
1312.000000	99.413489
1311.000000	99.415569
1310.000000	99.417166
1309.000000	99.418048
1308.000000	99.418126
1307.000000	99.417671
1306.000000	99.417534
1305.000000	99.418487
1304.000000	99.420307
1303.000000	99.421821
1302.000000	99.422133
1301.000000	99.421555
1300.000000	99.420918
1299.000000	99.420159
1298.000000	99.418460
1297.000000	99.415897
1296.000000	99.413821
1295.000000	99.413040
1294.000000	99.412869
1293.000000	99.412925
1292.000000	99.414363
1291.000000	99.417738
1290.000000	99.420778
1289.000000	99.420506
1288.000000	99.417005
1287.000000	99.412951
1286.000000	99.409701
1285.000000	99.406322
1284.000000	99.402538
1283.000000	99.399626
1282.000000	99.397561
1281.000000	99.394017
1280.000000	99.387676
1279.000000	99.380506
1278.000000	99.375257
1277.000000	99.372481
1276.000000	99.371400
1275.000000	99.371905
1274.000000	99.373997
1273.000000	99.376626
1272.000000	99.378620
1271.000000	99.379771
1270.000000	99.380037
1269.000000	99.379144
1268.000000	99.378159
1267.000000	99.379736
1266.000000	99.385132
1265.000000	99.392141
1264.000000	99.397265
1263.000000	99.398662
1262.000000	99.396162
1261.000000	99.390248
1260.000000	99.382443
1259.000000	99.374996
1258.000000	99.368559
1257.000000	99.361847
1256.000000	99.354900
1255.000000	99.350380
1254.000000	99.349518
1253.000000	99.348733
1252.000000	99.343124
1251.000000	99.332349
1250.000000	99.320697
1249.000000	99.312070
1248.000000	99.307120
1247.000000	99.304453
1246.000000	99.301735
1245.000000	99.295663
1244.000000	99.283488
1243.000000	99.265786
1242.000000	99.246765
1241.000000	99.231137
1240.000000	99.220960
1239.000000	99.215053
1238.000000	99.210429
1237.000000	99.204390
1236.000000	99.195912
1235.000000	99.185046
1234.000000	99.171225
1233.000000	99.153256
1232.000000	99.131285
1231.000000	99.107495
1230.000000	99.083913
1229.000000	99.060387
1228.000000	99.035498
1227.000000	99.008457
1226.000000	98.979332
1225.000000	98.948475
1224.000000	98.916463
1223.000000	98.883374
1222.000000	98.847203
1221.000000	98.804371
1220.000000	98.753185
1219.000000	98.696126
1218.000000	98.637829
1217.000000	98.581282
1216.000000	98.526354
1215.000000	98.470904
1214.000000	98.412636
1213.000000	98.351108
1212.000000	98.288348
1211.000000	98.226231
1210.000000	98.163303
1209.000000	98.096442
1208.000000	98.026022
1207.000000	97.956957
1206.000000	97.893507
1205.000000	97.834708
1204.000000	97.775608
1203.000000	97.711560
1202.000000	97.641801
1201.000000	97.570984
1200.000000	97.506334
1199.000000	97.450424
1198.000000	97.397343
1197.000000	97.339010
1196.000000	97.274052
1195.000000	97.206820
1194.000000	97.139652
1193.000000	97.071601
1192.000000	97.004059
1191.000000	96.940820
1190.000000	96.881123
1189.000000	96.818660
1188.000000	96.749873
1187.000000	96.678362
1186.000000	96.608896
1185.000000	96.541536
1184.000000	96.473746
1183.000000	96.403611
1182.000000	96.328835
1181.000000	96.247355
1180.000000	96.161543
1179.000000	96.077596
1178.000000	95.998066
1177.000000	95.918734
1176.000000	95.834719
1175.000000	95.745476
1174.000000	95.652213
1173.000000	95.555332
1172.000000	95.456849
1171.000000	95.360640
1170.000000	95.267923
1169.000000	95.176959
1168.000000	95.088966
1167.000000	95.009237
1166.000000	94.941088
1165.000000	94.885211
1164.000000	94.847047
1163.000000	94.836969
1162.000000	94.858398
1161.000000	94.900639
1160.000000	94.946842
1159.000000	94.984645
1158.000000	95.006761
1157.000000	95.007589
1156.000000	94.984618
1155.000000	94.940333
1154.000000	94.879431
1153.000000	94.806346
1152.000000	94.726905
1151.000000	94.648212
1150.000000	94.574020
1149.000000	94.503390
1148.000000	94.435223
1147.000000	94.369610
1146.000000	94.303557
1145.000000	94.231453
1144.000000	94.152529
1143.000000	94.072781
1142.000000	93.996869
1141.000000	93.923071
1140.000000	93.848788
1139.000000	93.775482
1138.000000	93.704956
1137.000000	93.635483
1136.000000	93.564512
1135.000000	93.491034
1134.000000	93.413428
1133.000000	93.329802
1132.000000	93.242293
1131.000000	93.155975
1130.000000	93.071863
1129.000000	92.986296
1128.000000	92.898630
1127.000000	92.813472
1126.000000	92.733459
1125.000000	92.655564
1124.000000	92.576046
1123.000000	92.493277
1122.000000	92.405179
1121.000000	92.310949
1120.000000	92.216263
1119.000000	92.129062
1118.000000	92.048920
1117.000000	91.968580
1116.000000	91.886477
1115.000000	91.808425
1114.000000	91.735597
1113.000000	91.661270
1112.000000	91.582165
1111.000000	91.502971
1110.000000	91.426984
1109.000000	91.352386
1108.000000	91.280106
1107.000000	91.214343
1106.000000	91.151945
1105.000000	91.082202
1104.000000	91.001681
1103.000000	90.919518
1102.000000	90.844044
1101.000000	90.773605
1100.000000	90.704183
1099.000000	90.636026
1098.000000	90.569537
1097.000000	90.503523
1096.000000	90.440681
1095.000000	90.385622
1094.000000	90.335420
1093.000000	90.282156
1092.000000	90.226496
1091.000000	90.177664
1090.000000	90.138290
1089.000000	90.101146
1088.000000	90.062888
1087.000000	90.028263
1086.000000	89.997950
1085.000000	89.965261
1084.000000	89.928507
1083.000000	89.893963
1082.000000	89.862873
1081.000000	89.828280
1080.000000	89.788815
1079.000000	89.752784
1078.000000	89.723911
1077.000000	89.695406
1076.000000	89.662769
1075.000000	89.629432
1074.000000	89.594450
1073.000000	89.547164
1072.000000	89.479611
1071.000000	89.392650
1070.000000	89.285535
1069.000000	89.152165
1068.000000	88.994015
1067.000000	88.825253
1066.000000	88.657794
1065.000000	88.490996
1064.000000	88.322486
1063.000000	88.157970
1062.000000	88.003215
1061.000000	87.856253
1060.000000	87.713658
1059.000000	87.575139
1058.000000	87.437603
1057.000000	87.295397
1056.000000	87.150918
1055.000000	87.014336
1054.000000	86.888589
1053.000000	86.765266
1052.000000	86.638444
1051.000000	86.509455
1050.000000	86.374369
1049.000000	86.223328
1048.000000	86.058219
1047.000000	85.894301
1046.000000	85.738559
1045.000000	85.581927
1044.000000	85.416948
1043.000000	85.248048
1042.000000	85.080253
1041.000000	84.912588
1040.000000	84.747937
1039.000000	84.595206
1038.000000	84.455902
1037.000000	84.321802
1036.000000	84.190717
1035.000000	84.070956
1034.000000	83.966155
1033.000000	83.870255
1032.000000	83.781244
1031.000000	83.704615
1030.000000	83.639177
1029.000000	83.575376
1028.000000	83.512475
1027.000000	83.461487
1026.000000	83.425699
1025.000000	83.393781
1024.000000	83.357445
1023.000000	83.320789
1022.000000	83.287109
1021.000000	83.251806
1020.000000	83.213469
1019.000000	83.177024
1018.000000	83.140874
1017.000000	83.095575
1016.000000	83.040030
1015.000000	82.984771
1014.000000	82.935357
1013.000000	82.887280
1012.000000	82.840544
1011.000000	82.803121
1010.000000	82.775652
1009.000000	82.748551
1008.000000	82.718810
1007.000000	82.694247
1006.000000	82.676988
1005.000000	82.659024
1004.000000	82.639083
1003.000000	82.627587
1002.000000	82.628654
1001.000000	82.632039
1000.000000	82.628923
999.000000	82.622373
998.000000	82.617537
997.000000	82.615217
996.000000	82.619243
995.000000	82.635862
994.000000	82.661444
993.000000	82.684644
992.000000	82.704496
991.000000	82.732234
990.000000	82.772025
989.000000	82.815206
988.000000	82.857715
987.000000	82.908208
986.000000	82.973707
985.000000	83.050934
984.000000	83.136228
983.000000	83.231040
982.000000	83.334236
981.000000	83.442111
980.000000	83.558583
979.000000	83.691801
978.000000	83.838760
977.000000	83.987961
976.000000	84.139630
975.000000	84.307792
974.000000	84.498770
973.000000	84.702217
972.000000	84.906665
971.000000	85.109538
970.000000	85.308220
969.000000	85.496616
968.000000	85.676574
967.000000	85.859895
966.000000	86.052984
965.000000	86.249822
964.000000	86.443739
963.000000	86.635161
962.000000	86.824334
961.000000	87.007426
960.000000	87.183550
959.000000	87.355900
958.000000	87.523672
957.000000	87.682931
956.000000	87.836722
955.000000	87.992572
954.000000	88.147533
953.000000	88.287772
952.000000	88.406592
951.000000	88.512140
950.000000	88.614364
949.000000	88.715005
948.000000	88.814163
947.000000	88.915376
946.000000	89.018200
945.000000	89.114465
944.000000	89.197301
943.000000	89.267789
942.000000	89.330821
941.000000	89.391462
940.000000	89.456334
939.000000	89.529756
938.000000	89.606782
937.000000	89.678426
936.000000	89.744228
935.000000	89.810502
934.000000	89.876732
933.000000	89.935797
932.000000	89.989296
931.000000	90.050099
930.000000	90.125838
929.000000	90.210692
928.000000	90.297025
927.000000	90.384025
926.000000	90.470537
925.000000	90.550095
924.000000	90.619006
923.000000	90.681415
922.000000	90.742012
921.000000	90.801025
920.000000	90.859374
919.000000	90.920455
918.000000	90.983495
917.000000	91.042974
916.000000	91.097517
915.000000	91.151871
914.000000	91.208496
913.000000	91.266413
912.000000	91.330621
911.000000	91.412170
910.000000	91.514328
909.000000	91.627174
908.000000	91.740312
907.000000	91.853943
906.000000	91.974359
905.000000	92.106685
904.000000	92.255141
903.000000	92.421942
902.000000	92.601437
901.000000	92.781460
900.000000	92.953800
899.000000	93.118940
898.000000	93.280688
897.000000	93.442448
896.000000	93.607738
895.000000	93.775853
894.000000	93.936703
893.000000	94.078745
892.000000	94.203245
891.000000	94.322909
890.000000	94.445236
889.000000	94.565055
888.000000	94.675177
887.000000	94.776294
886.000000	94.874212
885.000000	94.974608
884.000000	95.082427
883.000000	95.198754
882.000000	95.316223
881.000000	95.425166
880.000000	95.525893
879.000000	95.627060
878.000000	95.731002
877.000000	95.830883
876.000000	95.925050
875.000000	96.023045
874.000000	96.131868
873.000000	96.245237
872.000000	96.352635
871.000000	96.452004
870.000000	96.548393
869.000000	96.645987
868.000000	96.746057
867.000000	96.847882
866.000000	96.947986
865.000000	97.042420
864.000000	97.131877
863.000000	97.220511
862.000000	97.308936
861.000000	97.393731
860.000000	97.474822
859.000000	97.556749
858.000000	97.640222
857.000000	97.719017
856.000000	97.788774
855.000000	97.852798
854.000000	97.914902
853.000000	97.971353
852.000000	98.015082
851.000000	98.045339
850.000000	98.069629
849.000000	98.097808
848.000000	98.135598
847.000000	98.180174
846.000000	98.220044
845.000000	98.243458
844.000000	98.249667
843.000000	98.248489
842.000000	98.246550
841.000000	98.238095
840.000000	98.212684
839.000000	98.168032
838.000000	98.111272
837.000000	98.050296
836.000000	97.988225
835.000000	97.925246
834.000000	97.862371
833.000000	97.803416
832.000000	97.754883
831.000000	97.723218
830.000000	97.711099
829.000000	97.716468
828.000000	97.733257
827.000000	97.750989
826.000000	97.758286
825.000000	97.753702
824.000000	97.750559
823.000000	97.763005
822.000000	97.789242
821.000000	97.816523
820.000000	97.837705
819.000000	97.851386
818.000000	97.849560
817.000000	97.819210
816.000000	97.758359
815.000000	97.679477
814.000000	97.591409
813.000000	97.485167
812.000000	97.342746
811.000000	97.152658
810.000000	96.910741
809.000000	96.612922
808.000000	96.256832
807.000000	95.848593
806.000000	95.401530
805.000000	94.930849
804.000000	94.455627
803.000000	94.001741
802.000000	93.594416
801.000000	93.249756
800.000000	92.978131
799.000000	92.789895
798.000000	92.690813
797.000000	92.675379
796.000000	92.728530
795.000000	92.830188
794.000000	92.957774
793.000000	93.091306
792.000000	93.218631
791.000000	93.332010
790.000000	93.420764
789.000000	93.472678
788.000000	93.481181
787.000000	93.445518
786.000000	93.366354
785.000000	93.248412
784.000000	93.105557
783.000000	92.954854
782.000000	92.806282
781.000000	92.666986
780.000000	92.554039
779.000000	92.490895
778.000000	92.489107
777.000000	92.543464
776.000000	92.645520
775.000000	92.789933
774.000000	92.966020
773.000000	93.155894
772.000000	93.345026
771.000000	93.525087
770.000000	93.685166
769.000000	93.812357
768.000000	93.905501
767.000000	93.978202
766.000000	94.042466
765.000000	94.096684
764.000000	94.134264
763.000000	94.157146
762.000000	94.176560
761.000000	94.206143
760.000000	94.256587
759.000000	94.329443
758.000000	94.412883
757.000000	94.490670
756.000000	94.558103
755.000000	94.622616
754.000000	94.688054
753.000000	94.748147
752.000000	94.798933
751.000000	94.848036
750.000000	94.905881
749.000000	94.974844
748.000000	95.052645
747.000000	95.140247
746.000000	95.239981
745.000000	95.349456
744.000000	95.462175
743.000000	95.571959
742.000000	95.675434
741.000000	95.774631
740.000000	95.878536
739.000000	95.995958
738.000000	96.123038
737.000000	96.242301
736.000000	96.338214
735.000000	96.411235
734.000000	96.475134
733.000000	96.543171
732.000000	96.617284
731.000000	96.687011
730.000000	96.737673
729.000000	96.762694
728.000000	96.768936
727.000000	96.769610
726.000000	96.775617
725.000000	96.796638
724.000000	96.843722
723.000000	96.920009
722.000000	97.009948
721.000000	97.088715
720.000000	97.146350
719.000000	97.195895
718.000000	97.254791
717.000000	97.325868
716.000000	97.399398
715.000000	97.464690
714.000000	97.515100
713.000000	97.548577
712.000000	97.568886
711.000000	97.583486
710.000000	97.596991
709.000000	97.609031
708.000000	97.618787
707.000000	97.626345
706.000000	97.628362
705.000000	97.617182
704.000000	97.585887
703.000000	97.529575
702.000000	97.439881
701.000000	97.304168
700.000000	97.114762
699.000000	96.878230
698.000000	96.618110
697.000000	96.372862
696.000000	96.186830
695.000000	96.091542
694.000000	96.089579
693.000000	96.158384
692.000000	96.268885
691.000000	96.397798
690.000000	96.528273
689.000000	96.650073
688.000000	96.761690
687.000000	96.864797
686.000000	96.955047
685.000000	97.026309
684.000000	97.082560
683.000000	97.134594
682.000000	97.185065
681.000000	97.227720
680.000000	97.262670
679.000000	97.300642
678.000000	97.348168
677.000000	97.400047
676.000000	97.450809
675.000000	97.502364
674.000000	97.557015
673.000000	97.609775
672.000000	97.652829
671.000000	97.683879
670.000000	97.707072
669.000000	97.730727
668.000000	97.764108
667.000000	97.808163
666.000000	97.856125
665.000000	97.906607
664.000000	97.961496
663.000000	98.017546
662.000000	98.061738
661.000000	98.082949
660.000000	98.085405
659.000000	98.081899
658.000000	98.077166
657.000000	98.065512
656.000000	98.043284
655.000000	98.014482
654.000000	97.985918
653.000000	97.961979
652.000000	97.944619
651.000000	97.934249
650.000000	97.930553
649.000000	97.938274
648.000000	97.969063
647.000000	98.029102
646.000000	98.108224
645.000000	98.192559
644.000000	98.282372
643.000000	98.381634
642.000000	98.476287
641.000000	98.541981
640.000000	98.572772
639.000000	98.586622
638.000000	98.602412
637.000000	98.623496
636.000000	98.643410
635.000000	98.654133
634.000000	98.650778
633.000000	98.644180
632.000000	98.665037
631.000000	98.735720
630.000000	98.837338
629.000000	98.928080
628.000000	98.993540
627.000000	99.052047
626.000000	99.112658
625.000000	99.158970
624.000000	99.187123
623.000000	99.229052
622.000000	99.313845
621.000000	99.424698
620.000000	99.517120
619.000000	99.561710
618.000000	99.554265
617.000000	99.504355
616.000000	99.434572
615.000000	99.380678
614.000000	99.367248
613.000000	99.385832
612.000000	99.412807
611.000000	99.435727
610.000000	99.450824
609.000000	99.449083
608.000000	99.420004
607.000000	99.366822
606.000000	99.310504
605.000000	99.278609
604.000000	99.289824
603.000000	99.334328
602.000000	99.366135
601.000000	99.340166
600.000000	99.266266
599.000000	99.208351
598.000000	99.213113
597.000000	99.258936
596.000000	99.295265
595.000000	99.306128
594.000000	99.308435
593.000000	99.301824
592.000000	99.257278
591.000000	99.163913
590.000000	99.062129
589.000000	99.012422
588.000000	99.047556
587.000000	99.156593
586.000000	99.290932
585.000000	99.394419
584.000000	99.441294
583.000000	99.443111
582.000000	99.424632
581.000000	99.398530
580.000000	99.366730
579.000000	99.338474
578.000000	99.331191
577.000000	99.354954
576.000000	99.408918
575.000000	99.490732
574.000000	99.599928
573.000000	99.727462
572.000000	99.838245
571.000000	99.870969
570.000000	99.784714
569.000000	99.617252
568.000000	99.471027
567.000000	99.419395
566.000000	99.433394
565.000000	99.429708
564.000000	99.377190
563.000000	99.318061
562.000000	99.294604
561.000000	99.295806
560.000000	99.289691
559.000000	99.261324
558.000000	99.204286
557.000000	99.114948
556.000000	99.015835
555.000000	98.957290
554.000000	98.973348
553.000000	99.060224
552.000000	99.196204
551.000000	99.333742
550.000000	99.393297
