PE IR       SUBTECH     SPECTRUM    ASCII       PEDS        4.00        
   -1
BH1 8-1 3 55_1.asc
24/05/15
16:59:26.00
24/05/15
17:00:25.00
Administrator
?品 128 用? Administrator 日期 Wednesday, May 15 2024
550.000000
#HDR
-1
-1
#GR
cm-1
%T
1.0
0.0
4000.000000
-1.000000
3451
8
99.609216
75.303473
#DATA
4000.000000	99.204755
3999.000000	99.203722
3998.000000	99.202317
3997.000000	99.201401
3996.000000	99.200693
3995.000000	99.198917
3994.000000	99.195172
3993.000000	99.190000
3992.000000	99.184958
3991.000000	99.181316
3990.000000	99.179197
3989.000000	99.177455
3988.000000	99.174833
3987.000000	99.171508
3986.000000	99.169182
3985.000000	99.169544
3984.000000	99.172762
3983.000000	99.177388
3982.000000	99.181558
3981.000000	99.184204
3980.000000	99.185276
3979.000000	99.185256
3978.000000	99.184617
3977.000000	99.183555
3976.000000	99.182140
3975.000000	99.180767
3974.000000	99.180198
3973.000000	99.180827
3972.000000	99.181985
3971.000000	99.182412
3970.000000	99.181559
3969.000000	99.180222
3968.000000	99.179736
3967.000000	99.180675
3966.000000	99.182477
3965.000000	99.184107
3964.000000	99.184924
3963.000000	99.184922
3962.000000	99.184380
3961.000000	99.183460
3960.000000	99.182224
3959.000000	99.180920
3958.000000	99.180006
3957.000000	99.179808
3956.000000	99.180310
3955.000000	99.181272
3954.000000	99.182399
3953.000000	99.183362
3952.000000	99.183789
3951.000000	99.183482
3950.000000	99.182625
3949.000000	99.181724
3948.000000	99.181273
3947.000000	99.181379
3946.000000	99.181843
3945.000000	99.182389
3944.000000	99.182813
3943.000000	99.183048
3942.000000	99.183093
3941.000000	99.182968
3940.000000	99.182724
3939.000000	99.182470
3938.000000	99.182358
3937.000000	99.182484
3936.000000	99.182781
3935.000000	99.183065
3934.000000	99.183189
3933.000000	99.183115
3932.000000	99.182850
3931.000000	99.182398
3930.000000	99.181845
3929.000000	99.181419
3928.000000	99.181342
3927.000000	99.181726
3926.000000	99.182676
3925.000000	99.184253
3924.000000	99.186147
3923.000000	99.187691
3922.000000	99.188417
3921.000000	99.188239
3920.000000	99.187078
3919.000000	99.184835
3918.000000	99.182031
3917.000000	99.180067
3916.000000	99.180096
3915.000000	99.181880
3914.000000	99.184164
3913.000000	99.185835
3912.000000	99.186590
3911.000000	99.186792
3910.000000	99.186952
3909.000000	99.187392
3908.000000	99.188003
3907.000000	99.188457
3906.000000	99.188730
3905.000000	99.189404
3904.000000	99.190986
3903.000000	99.192910
3902.000000	99.193757
3901.000000	99.192646
3900.000000	99.190018
3899.000000	99.186913
3898.000000	99.184034
3897.000000	99.181702
3896.000000	99.180259
3895.000000	99.179903
3894.000000	99.180317
3893.000000	99.180733
3892.000000	99.180621
3891.000000	99.180152
3890.000000	99.179577
3889.000000	99.178786
3888.000000	99.177792
3887.000000	99.177268
3886.000000	99.177995
3885.000000	99.179658
3884.000000	99.180881
3883.000000	99.180876
3882.000000	99.180351
3881.000000	99.180699
3880.000000	99.182422
3879.000000	99.184428
3878.000000	99.185145
3877.000000	99.183995
3876.000000	99.181688
3875.000000	99.179754
3874.000000	99.179077
3873.000000	99.178983
3872.000000	99.178347
3871.000000	99.177432
3870.000000	99.177668
3869.000000	99.179344
3868.000000	99.180845
3867.000000	99.180810
3866.000000	99.179783
3865.000000	99.179317
3864.000000	99.180088
3863.000000	99.181448
3862.000000	99.182529
3861.000000	99.182992
3860.000000	99.182844
3859.000000	99.182304
3858.000000	99.181679
3857.000000	99.181167
3856.000000	99.180525
3855.000000	99.179192
3854.000000	99.177205
3853.000000	99.175548
3852.000000	99.174647
3851.000000	99.174024
3850.000000	99.173707
3849.000000	99.174361
3848.000000	99.176340
3847.000000	99.179208
3846.000000	99.182027
3845.000000	99.183930
3844.000000	99.184848
3843.000000	99.185513
3842.000000	99.186449
3841.000000	99.187362
3840.000000	99.187673
3839.000000	99.187344
3838.000000	99.186980
3837.000000	99.187164
3836.000000	99.187691
3835.000000	99.187846
3834.000000	99.187307
3833.000000	99.186590
3832.000000	99.186517
3831.000000	99.187282
3830.000000	99.188327
3829.000000	99.188991
3828.000000	99.189185
3827.000000	99.189380
3826.000000	99.189955
3825.000000	99.190732
3824.000000	99.191261
3823.000000	99.191393
3822.000000	99.191385
3821.000000	99.191621
3820.000000	99.192124
3819.000000	99.192687
3818.000000	99.193219
3817.000000	99.193782
3816.000000	99.194399
3815.000000	99.195006
3814.000000	99.195557
3813.000000	99.196063
3812.000000	99.196537
3811.000000	99.196976
3810.000000	99.197374
3809.000000	99.197732
3808.000000	99.198060
3807.000000	99.198374
3806.000000	99.198689
3805.000000	99.199008
3804.000000	99.199329
3803.000000	99.199654
3802.000000	99.199985
3801.000000	99.200314
3800.000000	99.200624
3799.000000	99.200902
3798.000000	99.201152
3797.000000	99.201392
3796.000000	99.201636
3795.000000	99.201887
3794.000000	99.202138
3793.000000	99.202377
3792.000000	99.202594
3791.000000	99.202780
3790.000000	99.202933
3789.000000	99.203049
3788.000000	99.203126
3787.000000	99.203173
3786.000000	99.203204
3785.000000	99.203232
3784.000000	99.203258
3783.000000	99.203281
3782.000000	99.203300
3781.000000	99.203317
3780.000000	99.203347
3779.000000	99.203416
3778.000000	99.203531
3777.000000	99.203651
3776.000000	99.203701
3775.000000	99.203619
3774.000000	99.203349
3773.000000	99.202851
3772.000000	99.202213
3771.000000	99.201762
3770.000000	99.201812
3769.000000	99.202338
3768.000000	99.202972
3767.000000	99.203413
3766.000000	99.203719
3765.000000	99.204090
3764.000000	99.204401
3763.000000	99.204192
3762.000000	99.203288
3761.000000	99.202076
3760.000000	99.201006
3759.000000	99.200090
3758.000000	99.199181
3757.000000	99.198411
3756.000000	99.197939
3755.000000	99.197765
3754.000000	99.197920
3753.000000	99.198286
3752.000000	99.198045
3751.000000	99.196414
3750.000000	99.194320
3749.000000	99.193497
3748.000000	99.193677
3747.000000	99.192823
3746.000000	99.190130
3745.000000	99.188029
3744.000000	99.189362
3743.000000	99.192976
3742.000000	99.195525
3741.000000	99.196099
3740.000000	99.195773
3739.000000	99.195151
3738.000000	99.193605
3737.000000	99.190852
3736.000000	99.187543
3735.000000	99.183888
3734.000000	99.179463
3733.000000	99.174996
3732.000000	99.172383
3731.000000	99.172285
3730.000000	99.173143
3729.000000	99.172910
3728.000000	99.171118
3727.000000	99.168858
3726.000000	99.167028
3725.000000	99.165573
3724.000000	99.164757
3723.000000	99.165008
3722.000000	99.165256
3721.000000	99.163108
3720.000000	99.157274
3719.000000	99.149451
3718.000000	99.143391
3717.000000	99.141420
3716.000000	99.142048
3715.000000	99.141853
3714.000000	99.139066
3713.000000	99.134276
3712.000000	99.128273
3711.000000	99.120748
3710.000000	99.111492
3709.000000	99.101599
3708.000000	99.093085
3707.000000	99.087629
3706.000000	99.085463
3705.000000	99.085309
3704.000000	99.085006
3703.000000	99.082322
3702.000000	99.076391
3701.000000	99.068875
3700.000000	99.062284
3699.000000	99.057390
3698.000000	99.053593
3697.000000	99.050245
3696.000000	99.046449
3695.000000	99.041474
3694.000000	99.036556
3693.000000	99.033974
3692.000000	99.033144
3691.000000	99.029573
3690.000000	99.020112
3689.000000	99.008485
3688.000000	99.001465
3687.000000	98.999748
3686.000000	98.998049
3685.000000	98.993073
3684.000000	98.986042
3683.000000	98.978612
3682.000000	98.969901
3681.000000	98.959832
3680.000000	98.951616
3679.000000	98.946660
3678.000000	98.940908
3677.000000	98.929882
3676.000000	98.916097
3675.000000	98.904994
3674.000000	98.894514
3673.000000	98.877872
3672.000000	98.853415
3671.000000	98.826466
3670.000000	98.803221
3669.000000	98.783525
3668.000000	98.763378
3667.000000	98.741853
3666.000000	98.721600
3665.000000	98.705530
3664.000000	98.694023
3663.000000	98.685077
3662.000000	98.676457
3661.000000	98.667439
3660.000000	98.657875
3659.000000	98.646661
3658.000000	98.632659
3657.000000	98.617488
3656.000000	98.605306
3655.000000	98.597307
3654.000000	98.589711
3653.000000	98.578493
3652.000000	98.564245
3651.000000	98.551409
3650.000000	98.542578
3649.000000	98.533985
3648.000000	98.519868
3647.000000	98.499216
3646.000000	98.475445
3645.000000	98.452410
3644.000000	98.432587
3643.000000	98.417247
3642.000000	98.406105
3641.000000	98.397366
3640.000000	98.389528
3639.000000	98.383395
3638.000000	98.380326
3637.000000	98.378674
3636.000000	98.374406
3635.000000	98.365790
3634.000000	98.355356
3633.000000	98.345413
3632.000000	98.334368
3631.000000	98.319060
3630.000000	98.300001
3629.000000	98.283019
3628.000000	98.272234
3627.000000	98.265585
3626.000000	98.260344
3625.000000	98.256955
3624.000000	98.256922
3623.000000	98.260065
3622.000000	98.264661
3621.000000	98.269976
3620.000000	98.277222
3619.000000	98.288138
3618.000000	98.302539
3617.000000	98.317181
3616.000000	98.328216
3615.000000	98.335728
3614.000000	98.344612
3613.000000	98.358945
3612.000000	98.376060
3611.000000	98.388971
3610.000000	98.395145
3609.000000	98.400364
3608.000000	98.412518
3607.000000	98.432736
3606.000000	98.454836
3605.000000	98.471889
3604.000000	98.480488
3603.000000	98.481030
3602.000000	98.477307
3601.000000	98.475893
3600.000000	98.482025
3599.000000	98.495431
3598.000000	98.510780
3597.000000	98.521325
3596.000000	98.523097
3595.000000	98.517584
3594.000000	98.510595
3593.000000	98.507663
3592.000000	98.510316
3591.000000	98.515934
3590.000000	98.520428
3589.000000	98.521019
3588.000000	98.517697
3587.000000	98.512792
3586.000000	98.509275
3585.000000	98.509364
3584.000000	98.513312
3583.000000	98.518702
3582.000000	98.521891
3581.000000	98.521232
3580.000000	98.518563
3579.000000	98.516948
3578.000000	98.517535
3577.000000	98.518813
3576.000000	98.518436
3575.000000	98.515067
3574.000000	98.508906
3573.000000	98.501378
3572.000000	98.494509
3571.000000	98.489616
3570.000000	98.486336
3569.000000	98.483343
3568.000000	98.479806
3567.000000	98.475854
3566.000000	98.471827
3565.000000	98.468230
3564.000000	98.466289
3563.000000	98.467181
3562.000000	98.470352
3561.000000	98.473136
3560.000000	98.472712
3559.000000	98.468368
3558.000000	98.461652
3557.000000	98.454747
3556.000000	98.449017
3555.000000	98.445112
3554.000000	98.443683
3553.000000	98.444974
3552.000000	98.447655
3551.000000	98.449152
3550.000000	98.447838
3549.000000	98.444706
3548.000000	98.442506
3547.000000	98.443080
3546.000000	98.445601
3545.000000	98.447386
3544.000000	98.446570
3543.000000	98.443854
3542.000000	98.441645
3541.000000	98.441655
3540.000000	98.443451
3539.000000	98.445373
3538.000000	98.446610
3537.000000	98.447873
3536.000000	98.449816
3535.000000	98.451581
3534.000000	98.451727
3533.000000	98.450189
3532.000000	98.448492
3531.000000	98.448045
3530.000000	98.448816
3529.000000	98.449871
3528.000000	98.450506
3527.000000	98.450371
3526.000000	98.449122
3525.000000	98.446782
3524.000000	98.444235
3523.000000	98.442739
3522.000000	98.442930
3521.000000	98.444676
3520.000000	98.447630
3519.000000	98.451450
3518.000000	98.455483
3517.000000	98.458765
3516.000000	98.460659
3515.000000	98.461341
3514.000000	98.461467
3513.000000	98.461534
3512.000000	98.461638
3511.000000	98.461580
3510.000000	98.461102
3509.000000	98.460193
3508.000000	98.459179
3507.000000	98.458366
3506.000000	98.457637
3505.000000	98.456507
3504.000000	98.454591
3503.000000	98.452056
3502.000000	98.449785
3501.000000	98.449151
3500.000000	98.451310
3499.000000	98.456379
3498.000000	98.463070
3497.000000	98.469310
3496.000000	98.473648
3495.000000	98.475953
3494.000000	98.476823
3493.000000	98.476584
3492.000000	98.475141
3491.000000	98.472683
3490.000000	98.470218
3489.000000	98.469206
3488.000000	98.470462
3487.000000	98.473296
3486.000000	98.475813
3485.000000	98.476258
3484.000000	98.474057
3483.000000	98.469830
3482.000000	98.464805
3481.000000	98.460229
3480.000000	98.456991
3479.000000	98.455273
3478.000000	98.454446
3477.000000	98.453593
3476.000000	98.452315
3475.000000	98.451032
3474.000000	98.450527
3473.000000	98.451298
3472.000000	98.453200
3471.000000	98.455371
3470.000000	98.456539
3469.000000	98.455810
3468.000000	98.453404
3467.000000	98.450497
3466.000000	98.448113
3465.000000	98.446307
3464.000000	98.444446
3463.000000	98.441934
3462.000000	98.438585
3461.000000	98.434729
3460.000000	98.431191
3459.000000	98.428810
3458.000000	98.427736
3457.000000	98.427235
3456.000000	98.426289
3455.000000	98.424524
3454.000000	98.422392
3453.000000	98.420477
3452.000000	98.418859
3451.000000	98.417151
3450.000000	98.415010
3449.000000	98.412484
3448.000000	98.409933
3447.000000	98.407670
3446.000000	98.405686
3445.000000	98.403725
3444.000000	98.401593
3443.000000	98.399320
3442.000000	98.397077
3441.000000	98.395016
3440.000000	98.393190
3439.000000	98.391545
3438.000000	98.389926
3437.000000	98.388106
3436.000000	98.385915
3435.000000	98.383390
3434.000000	98.380803
3433.000000	98.378484
3432.000000	98.376575
3431.000000	98.374945
3430.000000	98.373296
3429.000000	98.371396
3428.000000	98.369269
3427.000000	98.367201
3426.000000	98.365539
3425.000000	98.364412
3424.000000	98.363563
3423.000000	98.362434
3422.000000	98.360528
3421.000000	98.357729
3420.000000	98.354487
3419.000000	98.351665
3418.000000	98.349951
3417.000000	98.349427
3416.000000	98.349622
3415.000000	98.349864
3414.000000	98.349676
3413.000000	98.348880
3412.000000	98.347521
3411.000000	98.345883
3410.000000	98.344398
3409.000000	98.343361
3408.000000	98.342735
3407.000000	98.342294
3406.000000	98.341913
3405.000000	98.341572
3404.000000	98.341177
3403.000000	98.340620
3402.000000	98.340063
3401.000000	98.339905
3400.000000	98.340319
3399.000000	98.340980
3398.000000	98.341394
3397.000000	98.341467
3396.000000	98.341565
3395.000000	98.342020
3394.000000	98.342736
3393.000000	98.343344
3392.000000	98.343635
3391.000000	98.343762
3390.000000	98.344051
3389.000000	98.344693
3388.000000	98.345640
3387.000000	98.346700
3386.000000	98.347646
3385.000000	98.348347
3384.000000	98.348853
3383.000000	98.349383
3382.000000	98.350140
3381.000000	98.351109
3380.000000	98.352107
3379.000000	98.353008
3378.000000	98.353872
3377.000000	98.354831
3376.000000	98.355911
3375.000000	98.357047
3374.000000	98.358159
3373.000000	98.359208
3372.000000	98.360197
3371.000000	98.361171
3370.000000	98.362211
3369.000000	98.363377
3368.000000	98.364667
3367.000000	98.366025
3366.000000	98.367382
3365.000000	98.368703
3364.000000	98.369987
3363.000000	98.371245
3362.000000	98.372497
3361.000000	98.373781
3360.000000	98.375152
3359.000000	98.376651
3358.000000	98.378276
3357.000000	98.379968
3356.000000	98.381618
3355.000000	98.383145
3354.000000	98.384623
3353.000000	98.386268
3352.000000	98.388169
3351.000000	98.390045
3350.000000	98.391454
3349.000000	98.392266
3348.000000	98.392827
3347.000000	98.393590
3346.000000	98.394666
3345.000000	98.395895
3344.000000	98.397210
3343.000000	98.398764
3342.000000	98.400660
3341.000000	98.402716
3340.000000	98.404594
3339.000000	98.406119
3338.000000	98.407405
3337.000000	98.408687
3336.000000	98.410061
3335.000000	98.411400
3334.000000	98.412502
3333.000000	98.413385
3332.000000	98.414463
3331.000000	98.416354
3330.000000	98.419383
3329.000000	98.423141
3328.000000	98.426601
3327.000000	98.428839
3326.000000	98.429658
3325.000000	98.429669
3324.000000	98.429743
3323.000000	98.430359
3322.000000	98.431355
3321.000000	98.432168
3320.000000	98.432398
3319.000000	98.432286
3318.000000	98.432601
3317.000000	98.433917
3316.000000	98.436092
3315.000000	98.438556
3314.000000	98.441023
3313.000000	98.443659
3312.000000	98.446556
3311.000000	98.449362
3310.000000	98.451522
3309.000000	98.452766
3308.000000	98.453246
3307.000000	98.453413
3306.000000	98.453835
3305.000000	98.454973
3304.000000	98.456955
3303.000000	98.459500
3302.000000	98.462085
3301.000000	98.464247
3300.000000	98.465796
3299.000000	98.466903
3298.000000	98.468060
3297.000000	98.469716
3296.000000	98.471846
3295.000000	98.473954
3294.000000	98.475579
3293.000000	98.476694
3292.000000	98.477571
3291.000000	98.478451
3290.000000	98.479469
3289.000000	98.480680
3288.000000	98.481981
3287.000000	98.483122
3286.000000	98.484042
3285.000000	98.485119
3284.000000	98.486831
3283.000000	98.489198
3282.000000	98.491730
3281.000000	98.493872
3280.000000	98.495438
3279.000000	98.496604
3278.000000	98.497645
3277.000000	98.498701
3276.000000	98.499724
3275.000000	98.500599
3274.000000	98.501334
3273.000000	98.502117
3272.000000	98.503172
3271.000000	98.504586
3270.000000	98.506334
3269.000000	98.508405
3268.000000	98.510721
3267.000000	98.512968
3266.000000	98.514759
3265.000000	98.516003
3264.000000	98.516976
3263.000000	98.517980
3262.000000	98.519079
3261.000000	98.520301
3260.000000	98.521843
3259.000000	98.523809
3258.000000	98.525842
3257.000000	98.527359
3256.000000	98.528244
3255.000000	98.529062
3254.000000	98.530466
3253.000000	98.532453
3252.000000	98.534377
3251.000000	98.535658
3250.000000	98.536300
3249.000000	98.536746
3248.000000	98.537384
3247.000000	98.538328
3246.000000	98.539630
3245.000000	98.541465
3244.000000	98.543909
3243.000000	98.546597
3242.000000	98.548856
3241.000000	98.550266
3240.000000	98.550999
3239.000000	98.551607
3238.000000	98.552464
3237.000000	98.553503
3236.000000	98.554457
3235.000000	98.555289
3234.000000	98.556330
3233.000000	98.557985
3232.000000	98.560309
3231.000000	98.562907
3230.000000	98.565275
3229.000000	98.567251
3228.000000	98.569101
3227.000000	98.571177
3226.000000	98.573571
3225.000000	98.576109
3224.000000	98.578536
3223.000000	98.580652
3222.000000	98.582332
3221.000000	98.583576
3220.000000	98.584554
3219.000000	98.585566
3218.000000	98.586849
3217.000000	98.588436
3216.000000	98.590224
3215.000000	98.592149
3214.000000	98.594223
3213.000000	98.596417
3212.000000	98.598568
3211.000000	98.600463
3210.000000	98.602057
3209.000000	98.603538
3208.000000	98.605164
3207.000000	98.606993
3206.000000	98.608839
3205.000000	98.610491
3204.000000	98.611926
3203.000000	98.613328
3202.000000	98.614929
3201.000000	98.616792
3200.000000	98.618807
3199.000000	98.620798
3198.000000	98.622670
3197.000000	98.624436
3196.000000	98.626150
3195.000000	98.627853
3194.000000	98.629559
3193.000000	98.631272
3192.000000	98.632998
3191.000000	98.634747
3190.000000	98.636516
3189.000000	98.638263
3188.000000	98.639926
3187.000000	98.641473
3186.000000	98.642945
3185.000000	98.644444
3184.000000	98.646044
3183.000000	98.647739
3182.000000	98.649467
3181.000000	98.651191
3180.000000	98.652920
3179.000000	98.654651
3178.000000	98.656355
3177.000000	98.658032
3176.000000	98.659756
3175.000000	98.661617
3174.000000	98.663625
3173.000000	98.665654
3172.000000	98.667530
3171.000000	98.669175
3170.000000	98.670708
3169.000000	98.672351
3168.000000	98.674156
3167.000000	98.675906
3166.000000	98.677336
3165.000000	98.678497
3164.000000	98.679802
3163.000000	98.681582
3162.000000	98.683740
3161.000000	98.685848
3160.000000	98.687662
3159.000000	98.689293
3158.000000	98.690922
3157.000000	98.692593
3156.000000	98.694370
3155.000000	98.696450
3154.000000	98.698938
3153.000000	98.701597
3152.000000	98.703990
3151.000000	98.705915
3150.000000	98.707563
3149.000000	98.709301
3148.000000	98.711326
3147.000000	98.713536
3146.000000	98.715665
3145.000000	98.717501
3144.000000	98.719063
3143.000000	98.720583
3142.000000	98.722253
3141.000000	98.723993
3140.000000	98.725532
3139.000000	98.726768
3138.000000	98.727984
3137.000000	98.729574
3136.000000	98.731639
3135.000000	98.733968
3134.000000	98.736381
3133.000000	98.738850
3132.000000	98.741251
3131.000000	98.743261
3130.000000	98.744739
3129.000000	98.746051
3128.000000	98.747728
3127.000000	98.749748
3126.000000	98.751501
3125.000000	98.752607
3124.000000	98.753502
3123.000000	98.754999
3122.000000	98.757291
3121.000000	98.759664
3120.000000	98.761252
3119.000000	98.761888
3118.000000	98.762116
3117.000000	98.762569
3116.000000	98.763480
3115.000000	98.764833
3114.000000	98.766733
3113.000000	98.769304
3112.000000	98.772181
3111.000000	98.774391
3110.000000	98.775108
3109.000000	98.774458
3108.000000	98.773587
3107.000000	98.773642
3106.000000	98.774770
3105.000000	98.776272
3104.000000	98.777534
3103.000000	98.778654
3102.000000	98.780134
3101.000000	98.782199
3100.000000	98.784528
3099.000000	98.786567
3098.000000	98.788020
3097.000000	98.789081
3096.000000	98.790278
3095.000000	98.792109
3094.000000	98.794752
3093.000000	98.798001
3092.000000	98.801349
3091.000000	98.804191
3090.000000	98.806149
3089.000000	98.807402
3088.000000	98.808656
3087.000000	98.810593
3086.000000	98.813149
3085.000000	98.815361
3084.000000	98.816081
3083.000000	98.814940
3082.000000	98.812773
3081.000000	98.811114
3080.000000	98.811008
3079.000000	98.812284
3078.000000	98.813819
3077.000000	98.814522
3076.000000	98.814259
3075.000000	98.813983
3074.000000	98.814963
3073.000000	98.817710
3072.000000	98.821503
3071.000000	98.824946
3070.000000	98.827259
3069.000000	98.828837
3068.000000	98.830499
3067.000000	98.832403
3066.000000	98.833990
3065.000000	98.834861
3064.000000	98.835239
3063.000000	98.835535
3062.000000	98.835831
3061.000000	98.836059
3060.000000	98.836442
3059.000000	98.837406
3058.000000	98.839095
3057.000000	98.841169
3056.000000	98.843110
3055.000000	98.844659
3054.000000	98.845914
3053.000000	98.847119
3052.000000	98.848417
3051.000000	98.849720
3050.000000	98.850770
3049.000000	98.851373
3048.000000	98.851609
3047.000000	98.851792
3046.000000	98.852231
3045.000000	98.853048
3044.000000	98.854181
3043.000000	98.855489
3042.000000	98.856815
3041.000000	98.858022
3040.000000	98.859039
3039.000000	98.859900
3038.000000	98.860704
3037.000000	98.861546
3036.000000	98.862437
3035.000000	98.863350
3034.000000	98.864271
3033.000000	98.865206
3032.000000	98.866144
3031.000000	98.867062
3030.000000	98.867940
3029.000000	98.868783
3028.000000	98.869604
3027.000000	98.870420
3026.000000	98.871244
3025.000000	98.872076
3024.000000	98.872914
3023.000000	98.873758
3022.000000	98.874610
3021.000000	98.875473
3020.000000	98.876346
3019.000000	98.877228
3018.000000	98.878117
3017.000000	98.879014
3016.000000	98.879920
3015.000000	98.880832
3014.000000	98.881747
3013.000000	98.882659
3012.000000	98.883564
3011.000000	98.884454
3010.000000	98.885319
3009.000000	98.886150
3008.000000	98.886959
3007.000000	98.887785
3006.000000	98.888673
3005.000000	98.889646
3004.000000	98.890669
3003.000000	98.891679
3002.000000	98.892639
3001.000000	98.893521
3000.000000	98.894255
2999.000000	98.894787
2998.000000	98.895209
2997.000000	98.895763
2996.000000	98.896608
2995.000000	98.897669
2994.000000	98.898796
2993.000000	98.899948
2992.000000	98.901129
2991.000000	98.902229
2990.000000	98.903104
2989.000000	98.903756
2988.000000	98.904293
2987.000000	98.904773
2986.000000	98.905278
2985.000000	98.906043
2984.000000	98.907274
2983.000000	98.908810
2982.000000	98.910177
2981.000000	98.911114
2980.000000	98.911874
2979.000000	98.912919
2978.000000	98.914441
2977.000000	98.916213
2976.000000	98.917788
2975.000000	98.918834
2974.000000	98.919301
2973.000000	98.919410
2972.000000	98.919424
2971.000000	98.919496
2970.000000	98.919776
2969.000000	98.920442
2968.000000	98.921494
2967.000000	98.922600
2966.000000	98.923369
2965.000000	98.923780
2964.000000	98.924201
2963.000000	98.924962
2962.000000	98.926020
2961.000000	98.927098
2960.000000	98.928033
2959.000000	98.928902
2958.000000	98.929898
2957.000000	98.931169
2956.000000	98.932696
2955.000000	98.934214
2954.000000	98.935397
2953.000000	98.936215
2952.000000	98.937034
2951.000000	98.938220
2950.000000	98.939710
2949.000000	98.941087
2948.000000	98.942040
2947.000000	98.942604
2946.000000	98.943048
2945.000000	98.943680
2944.000000	98.944748
2943.000000	98.946342
2942.000000	98.948320
2941.000000	98.950361
2940.000000	98.952043
2939.000000	98.952843
2938.000000	98.952285
2937.000000	98.950470
2936.000000	98.948582
2935.000000	98.948290
2934.000000	98.950375
2933.000000	98.954119
2932.000000	98.957877
2931.000000	98.960599
2930.000000	98.962449
2929.000000	98.964044
2928.000000	98.965567
2927.000000	98.966822
2926.000000	98.967948
2925.000000	98.969537
2924.000000	98.971868
2923.000000	98.974339
2922.000000	98.976027
2921.000000	98.976650
2920.000000	98.976694
2919.000000	98.976748
2918.000000	98.977048
2917.000000	98.977669
2916.000000	98.978671
2915.000000	98.979835
2914.000000	98.980549
2913.000000	98.980359
2912.000000	98.979566
2911.000000	98.979021
2910.000000	98.979177
2909.000000	98.979448
2908.000000	98.978663
2907.000000	98.976266
2906.000000	98.973146
2905.000000	98.971142
2904.000000	98.971584
2903.000000	98.974400
2902.000000	98.978405
2901.000000	98.982175
2900.000000	98.984785
2899.000000	98.985995
2898.000000	98.986221
2897.000000	98.986327
2896.000000	98.987022
2895.000000	98.988360
2894.000000	98.989936
2893.000000	98.991373
2892.000000	98.992385
2891.000000	98.992721
2890.000000	98.992549
2889.000000	98.992762
2888.000000	98.994294
2887.000000	98.997052
2886.000000	98.999979
2885.000000	99.002201
2884.000000	99.003782
2883.000000	99.005291
2882.000000	99.007008
2881.000000	99.008734
2880.000000	99.010112
2879.000000	99.010952
2878.000000	99.011427
2877.000000	99.012053
2876.000000	99.013288
2875.000000	99.015018
2874.000000	99.016608
2873.000000	99.017570
2872.000000	99.018009
2871.000000	99.018326
2870.000000	99.018734
2869.000000	99.019272
2868.000000	99.020101
2867.000000	99.021460
2866.000000	99.023283
2865.000000	99.025054
2864.000000	99.026170
2863.000000	99.026424
2862.000000	99.026163
2861.000000	99.026123
2860.000000	99.026964
2859.000000	99.028866
2858.000000	99.031477
2857.000000	99.034154
2856.000000	99.036378
2855.000000	99.037863
2854.000000	99.038482
2853.000000	99.038386
2852.000000	99.038148
2851.000000	99.038414
2850.000000	99.039278
2849.000000	99.040234
2848.000000	99.040767
2847.000000	99.040803
2846.000000	99.040550
2845.000000	99.040179
2844.000000	99.039886
2843.000000	99.040048
2842.000000	99.040989
2841.000000	99.042564
2840.000000	99.044188
2839.000000	99.045378
2838.000000	99.046159
2837.000000	99.046920
2836.000000	99.047977
2835.000000	99.049296
2834.000000	99.050550
2833.000000	99.051414
2832.000000	99.051833
2831.000000	99.052034
2830.000000	99.052273
2829.000000	99.052593
2828.000000	99.052866
2827.000000	99.053053
2826.000000	99.053294
2825.000000	99.053712
2824.000000	99.054280
2823.000000	99.054992
2822.000000	99.056063
2821.000000	99.057725
2820.000000	99.059828
2819.000000	99.061770
2818.000000	99.062941
2817.000000	99.063178
2816.000000	99.062801
2815.000000	99.062356
2814.000000	99.062292
2813.000000	99.062828
2812.000000	99.063897
2811.000000	99.065162
2810.000000	99.066190
2809.000000	99.066765
2808.000000	99.067024
2807.000000	99.067287
2806.000000	99.067753
2805.000000	99.068412
2804.000000	99.069207
2803.000000	99.070134
2802.000000	99.071166
2801.000000	99.072144
2800.000000	99.072872
2799.000000	99.073314
2798.000000	99.073678
2797.000000	99.074244
2796.000000	99.075112
2795.000000	99.076124
2794.000000	99.077066
2793.000000	99.077910
2792.000000	99.078801
2791.000000	99.079848
2790.000000	99.080998
2789.000000	99.082147
2788.000000	99.083324
2787.000000	99.084705
2786.000000	99.086420
2785.000000	99.088317
2784.000000	99.089944
2783.000000	99.090876
2782.000000	99.091110
2781.000000	99.091191
2780.000000	99.091798
2779.000000	99.093147
2778.000000	99.094925
2777.000000	99.096668
2776.000000	99.098137
2775.000000	99.099208
2774.000000	99.099713
2773.000000	99.099664
2772.000000	99.099506
2771.000000	99.099765
2770.000000	99.100450
2769.000000	99.101146
2768.000000	99.101745
2767.000000	99.102666
2766.000000	99.104157
2765.000000	99.105825
2764.000000	99.107176
2763.000000	99.108311
2762.000000	99.109675
2761.000000	99.111282
2760.000000	99.112587
2759.000000	99.113197
2758.000000	99.113435
2757.000000	99.114072
2756.000000	99.115570
2755.000000	99.117713
2754.000000	99.119812
2753.000000	99.121270
2752.000000	99.121997
2751.000000	99.122361
2750.000000	99.122777
2749.000000	99.123296
2748.000000	99.123685
2747.000000	99.123842
2746.000000	99.124000
2745.000000	99.124445
2744.000000	99.125096
2743.000000	99.125527
2742.000000	99.125431
2741.000000	99.124987
2740.000000	99.124748
2739.000000	99.125141
2738.000000	99.126186
2737.000000	99.127624
2736.000000	99.129137
2735.000000	99.130423
2734.000000	99.131159
2733.000000	99.131156
2732.000000	99.130595
2731.000000	99.129977
2730.000000	99.129739
2729.000000	99.129977
2728.000000	99.130526
2727.000000	99.131140
2726.000000	99.131578
2725.000000	99.131741
2724.000000	99.131848
2723.000000	99.132306
2722.000000	99.133210
2721.000000	99.134111
2720.000000	99.134507
2719.000000	99.134503
2718.000000	99.134680
2717.000000	99.135356
2716.000000	99.136273
2715.000000	99.137099
2714.000000	99.137820
2713.000000	99.138459
2712.000000	99.138787
2711.000000	99.138672
2710.000000	99.138484
2709.000000	99.138804
2708.000000	99.139788
2707.000000	99.141079
2706.000000	99.142180
2705.000000	99.142674
2704.000000	99.142207
2703.000000	99.140712
2702.000000	99.138716
2701.000000	99.137063
2700.000000	99.136186
2699.000000	99.135976
2698.000000	99.136354
2697.000000	99.137559
2696.000000	99.139599
2695.000000	99.141780
2694.000000	99.143261
2693.000000	99.143846
2692.000000	99.143877
2691.000000	99.143649
2690.000000	99.143235
2689.000000	99.142794
2688.000000	99.142685
2687.000000	99.143186
2686.000000	99.144273
2685.000000	99.145714
2684.000000	99.147234
2683.000000	99.148524
2682.000000	99.149312
2681.000000	99.149565
2680.000000	99.149535
2679.000000	99.149555
2678.000000	99.149749
2677.000000	99.149957
2676.000000	99.149939
2675.000000	99.149603
2674.000000	99.149086
2673.000000	99.148649
2672.000000	99.148512
2671.000000	99.148760
2670.000000	99.149294
2669.000000	99.149848
2668.000000	99.150134
2667.000000	99.150075
2666.000000	99.149890
2665.000000	99.149888
2664.000000	99.150166
2663.000000	99.150583
2662.000000	99.150979
2661.000000	99.151302
2660.000000	99.151555
2659.000000	99.151745
2658.000000	99.151942
2657.000000	99.152271
2656.000000	99.152787
2655.000000	99.153407
2654.000000	99.153942
2653.000000	99.154244
2652.000000	99.154323
2651.000000	99.154279
2650.000000	99.154195
2649.000000	99.154129
2648.000000	99.154169
2647.000000	99.154387
2646.000000	99.154745
2645.000000	99.155060
2644.000000	99.155151
2643.000000	99.154973
2642.000000	99.154670
2641.000000	99.154490
2640.000000	99.154581
2639.000000	99.154886
2638.000000	99.155197
2637.000000	99.155389
2636.000000	99.155542
2635.000000	99.155818
2634.000000	99.156233
2633.000000	99.156609
2632.000000	99.156769
2631.000000	99.156763
2630.000000	99.156874
2629.000000	99.157375
2628.000000	99.158215
2627.000000	99.158954
2626.000000	99.159104
2625.000000	99.158559
2624.000000	99.157690
2623.000000	99.157014
2622.000000	99.156771
2621.000000	99.156862
2620.000000	99.157023
2619.000000	99.156984
2618.000000	99.156554
2617.000000	99.155709
2616.000000	99.154693
2615.000000	99.154008
2614.000000	99.154163
2613.000000	99.155284
2612.000000	99.156895
2611.000000	99.158206
2610.000000	99.158800
2609.000000	99.158982
2608.000000	99.159353
2607.000000	99.160060
2606.000000	99.160678
2605.000000	99.160899
2604.000000	99.161063
2603.000000	99.161757
2602.000000	99.162993
2601.000000	99.164058
2600.000000	99.164271
2599.000000	99.163661
2598.000000	99.162842
2597.000000	99.162362
2596.000000	99.162196
2595.000000	99.161972
2594.000000	99.161579
2593.000000	99.161374
2592.000000	99.161731
2591.000000	99.162553
2590.000000	99.163341
2589.000000	99.163729
2588.000000	99.163773
2587.000000	99.163721
2586.000000	99.163710
2585.000000	99.163758
2584.000000	99.163902
2583.000000	99.164191
2582.000000	99.164589
2581.000000	99.164990
2580.000000	99.165293
2579.000000	99.165423
2578.000000	99.165361
2577.000000	99.165205
2576.000000	99.165177
2575.000000	99.165442
2574.000000	99.165952
2573.000000	99.166473
2572.000000	99.166770
2571.000000	99.166762
2570.000000	99.166514
2569.000000	99.166141
2568.000000	99.165719
2567.000000	99.165288
2566.000000	99.164921
2565.000000	99.164761
2564.000000	99.164916
2563.000000	99.165306
2562.000000	99.165689
2561.000000	99.165876
2560.000000	99.165871
2559.000000	99.165780
2558.000000	99.165669
2557.000000	99.165572
2556.000000	99.165576
2555.000000	99.165783
2554.000000	99.166175
2553.000000	99.166576
2552.000000	99.166817
2551.000000	99.166885
2550.000000	99.166878
2549.000000	99.166881
2548.000000	99.166900
2547.000000	99.166930
2546.000000	99.166998
2545.000000	99.167121
2544.000000	99.167279
2543.000000	99.167430
2542.000000	99.167543
2541.000000	99.167621
2540.000000	99.167704
2539.000000	99.167844
2538.000000	99.168057
2537.000000	99.168308
2536.000000	99.168544
2535.000000	99.168745
2534.000000	99.168925
2533.000000	99.169113
2532.000000	99.169330
2531.000000	99.169576
2530.000000	99.169839
2529.000000	99.170111
2528.000000	99.170387
2527.000000	99.170660
2526.000000	99.170921
2525.000000	99.171170
2524.000000	99.171409
2523.000000	99.171638
2522.000000	99.171862
2521.000000	99.172084
2520.000000	99.172305
2519.000000	99.172528
2518.000000	99.172756
2517.000000	99.172996
2516.000000	99.173251
2515.000000	99.173520
2514.000000	99.173798
2513.000000	99.174078
2512.000000	99.174357
2511.000000	99.174637
2510.000000	99.174921
2509.000000	99.175202
2508.000000	99.175472
2507.000000	99.175727
2506.000000	99.175971
2505.000000	99.176211
2504.000000	99.176451
2503.000000	99.176688
2502.000000	99.176917
2501.000000	99.177134
2500.000000	99.177339
2499.000000	99.177540
2498.000000	99.177748
2497.000000	99.177969
2496.000000	99.178203
2495.000000	99.178446
2494.000000	99.178698
2493.000000	99.178959
2492.000000	99.179232
2491.000000	99.179514
2490.000000	99.179794
2489.000000	99.180068
2488.000000	99.180334
2487.000000	99.180599
2486.000000	99.180870
2485.000000	99.181153
2484.000000	99.181448
2483.000000	99.181753
2482.000000	99.182064
2481.000000	99.182379
2480.000000	99.182697
2479.000000	99.183016
2478.000000	99.183338
2477.000000	99.183665
2476.000000	99.183996
2475.000000	99.184329
2474.000000	99.184658
2473.000000	99.184977
2472.000000	99.185285
2471.000000	99.185598
2470.000000	99.185929
2469.000000	99.186275
2468.000000	99.186598
2467.000000	99.186871
2466.000000	99.187099
2465.000000	99.187298
2464.000000	99.187461
2463.000000	99.187602
2462.000000	99.187845
2461.000000	99.188328
2460.000000	99.189013
2459.000000	99.189726
2458.000000	99.190339
2457.000000	99.190851
2456.000000	99.191305
2455.000000	99.191688
2454.000000	99.191957
2453.000000	99.192121
2452.000000	99.192261
2451.000000	99.192509
2450.000000	99.192994
2449.000000	99.193734
2448.000000	99.194526
2447.000000	99.195093
2446.000000	99.195383
2445.000000	99.195619
2444.000000	99.195958
2443.000000	99.196269
2442.000000	99.196355
2441.000000	99.196283
2440.000000	99.196334
2439.000000	99.196667
2438.000000	99.197193
2437.000000	99.197791
2436.000000	99.198471
2435.000000	99.199220
2434.000000	99.199839
2433.000000	99.200107
2432.000000	99.200092
2431.000000	99.200130
2430.000000	99.200469
2429.000000	99.201004
2428.000000	99.201421
2427.000000	99.201510
2426.000000	99.201289
2425.000000	99.200917
2424.000000	99.200587
2423.000000	99.200476
2422.000000	99.200647
2421.000000	99.200975
2420.000000	99.201224
2419.000000	99.201250
2418.000000	99.201076
2417.000000	99.200794
2416.000000	99.200516
2415.000000	99.200463
2414.000000	99.200933
2413.000000	99.202022
2412.000000	99.203417
2411.000000	99.204582
2410.000000	99.205186
2409.000000	99.205180
2408.000000	99.204545
2407.000000	99.203306
2406.000000	99.201851
2405.000000	99.200871
2404.000000	99.200704
2403.000000	99.200944
2402.000000	99.200859
2401.000000	99.200224
2400.000000	99.199477
2399.000000	99.199120
2398.000000	99.199190
2397.000000	99.199451
2396.000000	99.199769
2395.000000	99.200093
2394.000000	99.200238
2393.000000	99.199982
2392.000000	99.199387
2391.000000	99.198836
2390.000000	99.198672
2389.000000	99.198925
2388.000000	99.199415
2387.000000	99.199953
2386.000000	99.200332
2385.000000	99.200277
2384.000000	99.199598
2383.000000	99.198414
2382.000000	99.197133
2381.000000	99.196160
2380.000000	99.195701
2379.000000	99.195788
2378.000000	99.196304
2377.000000	99.196951
2376.000000	99.197382
2375.000000	99.197476
2374.000000	99.197359
2373.000000	99.197096
2372.000000	99.196451
2371.000000	99.195203
2370.000000	99.193614
2369.000000	99.192265
2368.000000	99.191495
2367.000000	99.191233
2366.000000	99.191329
2365.000000	99.191917
2364.000000	99.193291
2363.000000	99.195410
2362.000000	99.197631
2361.000000	99.198902
2360.000000	99.198529
2359.000000	99.196877
2358.000000	99.195108
2357.000000	99.194142
2356.000000	99.194014
2355.000000	99.194133
2354.000000	99.193962
2353.000000	99.193441
2352.000000	99.192952
2351.000000	99.192815
2350.000000	99.193009
2349.000000	99.193335
2348.000000	99.193473
2347.000000	99.193221
2346.000000	99.192758
2345.000000	99.192682
2344.000000	99.193443
2343.000000	99.194747
2342.000000	99.195949
2341.000000	99.196578
2340.000000	99.196564
2339.000000	99.196092
2338.000000	99.195377
2337.000000	99.194500
2336.000000	99.193263
2335.000000	99.191296
2334.000000	99.188697
2333.000000	99.186591
2332.000000	99.186459
2331.000000	99.188666
2330.000000	99.192014
2329.000000	99.194743
2328.000000	99.196019
2327.000000	99.196275
2326.000000	99.196428
2325.000000	99.197117
2324.000000	99.198260
2323.000000	99.199152
2322.000000	99.199120
2321.000000	99.197993
2320.000000	99.196188
2319.000000	99.194437
2318.000000	99.193434
2317.000000	99.193451
2316.000000	99.194159
2315.000000	99.194898
2314.000000	99.195286
2313.000000	99.195472
2312.000000	99.195670
2311.000000	99.195709
2310.000000	99.195237
2309.000000	99.194272
2308.000000	99.193293
2307.000000	99.192826
2306.000000	99.193044
2305.000000	99.193750
2304.000000	99.194498
2303.000000	99.194832
2302.000000	99.194602
2301.000000	99.194087
2300.000000	99.193731
2299.000000	99.193678
2298.000000	99.193683
2297.000000	99.193469
2296.000000	99.193004
2295.000000	99.192436
2294.000000	99.191905
2293.000000	99.191475
2292.000000	99.191145
2291.000000	99.190849
2290.000000	99.190486
2289.000000	99.190014
2288.000000	99.189453
2287.000000	99.188753
2286.000000	99.187776
2285.000000	99.186537
2284.000000	99.185362
2283.000000	99.184630
2282.000000	99.184465
2281.000000	99.184701
2280.000000	99.185097
2279.000000	99.185423
2278.000000	99.185393
2277.000000	99.184810
2276.000000	99.183848
2275.000000	99.183011
2274.000000	99.182663
2273.000000	99.182713
2272.000000	99.182884
2271.000000	99.183051
2270.000000	99.183144
2269.000000	99.182863
2268.000000	99.181861
2267.000000	99.180205
2266.000000	99.178478
2265.000000	99.177224
2264.000000	99.176472
2263.000000	99.175903
2262.000000	99.175318
2261.000000	99.174781
2260.000000	99.174322
2259.000000	99.173786
2258.000000	99.173068
2257.000000	99.172309
2256.000000	99.171753
2255.000000	99.171550
2254.000000	99.171764
2253.000000	99.172358
2252.000000	99.173046
2251.000000	99.173330
2250.000000	99.172900
2249.000000	99.171963
2248.000000	99.171064
2247.000000	99.170539
2246.000000	99.170294
2245.000000	99.170107
2244.000000	99.169986
2243.000000	99.170143
2242.000000	99.170730
2241.000000	99.171647
2240.000000	99.172451
2239.000000	99.172542
2238.000000	99.171614
2237.000000	99.170023
2236.000000	99.168695
2235.000000	99.168297
2234.000000	99.168647
2233.000000	99.168989
2232.000000	99.168813
2231.000000	99.168272
2230.000000	99.167788
2229.000000	99.167513
2228.000000	99.167296
2227.000000	99.166967
2226.000000	99.166471
2225.000000	99.165828
2224.000000	99.165161
2223.000000	99.164787
2222.000000	99.165066
2221.000000	99.166038
2220.000000	99.167347
2219.000000	99.168627
2218.000000	99.169875
2217.000000	99.171293
2216.000000	99.172761
2215.000000	99.173690
2214.000000	99.173633
2213.000000	99.172936
2212.000000	99.172542
2211.000000	99.173010
2210.000000	99.173899
2209.000000	99.174300
2208.000000	99.173834
2207.000000	99.172925
2206.000000	99.172189
2205.000000	99.171776
2204.000000	99.171462
2203.000000	99.171115
2202.000000	99.170871
2201.000000	99.170861
2200.000000	99.170978
2199.000000	99.170996
2198.000000	99.170858
2197.000000	99.170704
2196.000000	99.170675
2195.000000	99.170811
2194.000000	99.171167
2193.000000	99.171800
2192.000000	99.172511
2191.000000	99.172886
2190.000000	99.172805
2189.000000	99.172730
2188.000000	99.173256
2187.000000	99.174395
2186.000000	99.175505
2185.000000	99.175916
2184.000000	99.175444
2183.000000	99.174312
2182.000000	99.172913
2181.000000	99.171682
2180.000000	99.170998
2179.000000	99.170997
2178.000000	99.171456
2177.000000	99.171913
2176.000000	99.172021
2175.000000	99.171762
2174.000000	99.171304
2173.000000	99.170751
2172.000000	99.170097
2171.000000	99.169379
2170.000000	99.168777
2169.000000	99.168501
2168.000000	99.168592
2167.000000	99.168887
2166.000000	99.169202
2165.000000	99.169489
2164.000000	99.169752
2163.000000	99.169868
2162.000000	99.169636
2161.000000	99.169025
2160.000000	99.168295
2159.000000	99.167798
2158.000000	99.167688
2157.000000	99.167854
2156.000000	99.168123
2155.000000	99.168438
2154.000000	99.168791
2153.000000	99.169061
2152.000000	99.169070
2151.000000	99.168848
2150.000000	99.168757
2149.000000	99.169191
2148.000000	99.170182
2147.000000	99.171337
2146.000000	99.172136
2145.000000	99.172248
2144.000000	99.171615
2143.000000	99.170441
2142.000000	99.169147
2141.000000	99.168174
2140.000000	99.167738
2139.000000	99.167879
2138.000000	99.168682
2137.000000	99.170201
2136.000000	99.172104
2135.000000	99.173748
2134.000000	99.174806
2133.000000	99.175575
2132.000000	99.176486
2131.000000	99.177484
2130.000000	99.178125
2129.000000	99.178117
2128.000000	99.177487
2127.000000	99.176418
2126.000000	99.175299
2125.000000	99.174822
2124.000000	99.175537
2123.000000	99.177258
2122.000000	99.179040
2121.000000	99.180027
2120.000000	99.180180
2119.000000	99.180052
2118.000000	99.180144
2117.000000	99.180589
2116.000000	99.181310
2115.000000	99.182207
2114.000000	99.183198
2113.000000	99.184190
2112.000000	99.185044
2111.000000	99.185603
2110.000000	99.185881
2109.000000	99.186226
2108.000000	99.187088
2107.000000	99.188531
2106.000000	99.190137
2105.000000	99.191469
2104.000000	99.192426
2103.000000	99.193020
2102.000000	99.193090
2101.000000	99.192504
2100.000000	99.191495
2099.000000	99.190516
2098.000000	99.189784
2097.000000	99.189199
2096.000000	99.188709
2095.000000	99.188553
2094.000000	99.189009
2093.000000	99.190034
2092.000000	99.191268
2091.000000	99.192401
2090.000000	99.193462
2089.000000	99.194652
2088.000000	99.195939
2087.000000	99.196974
2086.000000	99.197461
2085.000000	99.197557
2084.000000	99.197846
2083.000000	99.198873
2082.000000	99.200589
2081.000000	99.202130
2080.000000	99.202456
2079.000000	99.201485
2078.000000	99.200547
2077.000000	99.201199
2076.000000	99.203396
2075.000000	99.205403
2074.000000	99.205791
2073.000000	99.204892
2072.000000	99.203921
2071.000000	99.203247
2070.000000	99.202364
2069.000000	99.201218
2068.000000	99.200488
2067.000000	99.200552
2066.000000	99.201057
2065.000000	99.201694
2064.000000	99.202673
2063.000000	99.204057
2062.000000	99.205230
2061.000000	99.205460
2060.000000	99.204705
2059.000000	99.203541
2058.000000	99.202477
2057.000000	99.201552
2056.000000	99.200532
2055.000000	99.199424
2054.000000	99.198833
2053.000000	99.199589
2052.000000	99.201711
2051.000000	99.203880
2050.000000	99.204473
2049.000000	99.203069
2048.000000	99.200575
2047.000000	99.198079
2046.000000	99.196027
2045.000000	99.194476
2044.000000	99.193312
2043.000000	99.191994
2042.000000	99.189798
2041.000000	99.186709
2040.000000	99.183636
2039.000000	99.181440
2038.000000	99.180194
2037.000000	99.179534
2036.000000	99.179155
2035.000000	99.178702
2034.000000	99.177659
2033.000000	99.175728
2032.000000	99.173021
2031.000000	99.169766
2030.000000	99.166296
2029.000000	99.163465
2028.000000	99.162411
2027.000000	99.163404
2026.000000	99.165287
2025.000000	99.166512
2024.000000	99.166567
2023.000000	99.165890
2022.000000	99.164766
2021.000000	99.162978
2020.000000	99.160479
2019.000000	99.157765
2018.000000	99.155401
2017.000000	99.153475
2016.000000	99.151701
2015.000000	99.149907
2014.000000	99.148219
2013.000000	99.146794
2012.000000	99.145460
2011.000000	99.143691
2010.000000	99.141043
2009.000000	99.137652
2008.000000	99.134263
2007.000000	99.131753
2006.000000	99.130654
2005.000000	99.130957
2004.000000	99.132090
2003.000000	99.133118
2002.000000	99.133360
2001.000000	99.132865
2000.000000	99.132087
1999.000000	99.131158
1998.000000	99.129824
1997.000000	99.128175
1996.000000	99.126993
1995.000000	99.126929
1994.000000	99.127668
1993.000000	99.128149
1992.000000	99.127643
1991.000000	99.126388
1990.000000	99.125143
1989.000000	99.124467
1988.000000	99.124465
1987.000000	99.124899
1986.000000	99.125312
1985.000000	99.125284
1984.000000	99.124762
1983.000000	99.124117
1982.000000	99.123771
1981.000000	99.123780
1980.000000	99.123888
1979.000000	99.123893
1978.000000	99.123849
1977.000000	99.123909
1976.000000	99.124107
1975.000000	99.124321
1974.000000	99.124390
1973.000000	99.124232
1972.000000	99.123900
1971.000000	99.123629
1970.000000	99.123721
1969.000000	99.124291
1968.000000	99.125106
1967.000000	99.125723
1966.000000	99.125932
1965.000000	99.125901
1964.000000	99.125882
1963.000000	99.125903
1962.000000	99.125833
1961.000000	99.125654
1960.000000	99.125531
1959.000000	99.125623
1958.000000	99.125957
1957.000000	99.126534
1956.000000	99.127326
1955.000000	99.128026
1954.000000	99.128112
1953.000000	99.127407
1952.000000	99.126405
1951.000000	99.125753
1950.000000	99.125477
1949.000000	99.125124
1948.000000	99.124518
1947.000000	99.123986
1946.000000	99.123794
1945.000000	99.123692
1944.000000	99.123221
1943.000000	99.122336
1942.000000	99.121566
1941.000000	99.121450
1940.000000	99.121988
1939.000000	99.122701
1938.000000	99.123010
1937.000000	99.122509
1936.000000	99.121017
1935.000000	99.118651
1934.000000	99.116041
1933.000000	99.114204
1932.000000	99.113736
1931.000000	99.114160
1930.000000	99.114322
1929.000000	99.113532
1928.000000	99.111971
1927.000000	99.110077
1926.000000	99.108079
1925.000000	99.106196
1924.000000	99.104696
1923.000000	99.103526
1922.000000	99.102345
1921.000000	99.101279
1920.000000	99.101086
1919.000000	99.101986
1918.000000	99.102680
1917.000000	99.101445
1916.000000	99.098122
1915.000000	99.094134
1914.000000	99.090755
1913.000000	99.087940
1912.000000	99.084681
1911.000000	99.080274
1910.000000	99.075439
1909.000000	99.072019
1908.000000	99.071106
1907.000000	99.071645
1906.000000	99.071508
1905.000000	99.069811
1904.000000	99.067423
1903.000000	99.065373
1902.000000	99.063673
1901.000000	99.062023
1900.000000	99.060623
1899.000000	99.059391
1898.000000	99.057201
1897.000000	99.052897
1896.000000	99.046620
1895.000000	99.039606
1894.000000	99.033116
1893.000000	99.028111
1892.000000	99.025300
1891.000000	99.024475
1890.000000	99.024073
1889.000000	99.022528
1888.000000	99.019965
1887.000000	99.017532
1886.000000	99.015553
1885.000000	99.013505
1884.000000	99.011511
1883.000000	99.010513
1882.000000	99.010597
1881.000000	99.010285
1880.000000	99.008396
1879.000000	99.005903
1878.000000	99.005118
1877.000000	99.007153
1876.000000	99.010510
1875.000000	99.012223
1874.000000	99.010531
1873.000000	99.006414
1872.000000	99.002330
1871.000000	98.999591
1870.000000	98.997535
1869.000000	98.995622
1868.000000	98.995149
1867.000000	98.997364
1866.000000	99.001280
1865.000000	99.004688
1864.000000	99.006804
1863.000000	99.009337
1862.000000	99.014512
1861.000000	99.022212
1860.000000	99.029701
1859.000000	99.034344
1858.000000	99.035984
1857.000000	99.036550
1856.000000	99.038122
1855.000000	99.041674
1854.000000	99.047052
1853.000000	99.053378
1852.000000	99.059555
1851.000000	99.064733
1850.000000	99.068530
1849.000000	99.071306
1848.000000	99.074177
1847.000000	99.078313
1846.000000	99.083894
1845.000000	99.089703
1844.000000	99.093999
1843.000000	99.095931
1842.000000	99.096038
1841.000000	99.095731
1840.000000	99.096314
1839.000000	99.098114
1838.000000	99.100416
1837.000000	99.101997
1836.000000	99.101789
1835.000000	99.099584
1834.000000	99.096627
1833.000000	99.095402
1832.000000	99.097967
1831.000000	99.103637
1830.000000	99.108705
1829.000000	99.110161
1828.000000	99.108809
1827.000000	99.107158
1826.000000	99.105964
1825.000000	99.104249
1824.000000	99.101627
1823.000000	99.099075
1822.000000	99.097792
1821.000000	99.098349
1820.000000	99.100584
1819.000000	99.103674
1818.000000	99.106458
1817.000000	99.107965
1816.000000	99.107651
1815.000000	99.105446
1814.000000	99.101929
1813.000000	99.098609
1812.000000	99.097275
1811.000000	99.098226
1810.000000	99.099710
1809.000000	99.099648
1808.000000	99.097489
1807.000000	99.094254
1806.000000	99.091358
1805.000000	99.089614
1804.000000	99.088869
1803.000000	99.088362
1802.000000	99.087683
1801.000000	99.087477
1800.000000	99.088336
1799.000000	99.089285
1798.000000	99.088897
1797.000000	99.087531
1796.000000	99.087207
1795.000000	99.089284
1794.000000	99.092876
1793.000000	99.096014
1792.000000	99.098214
1791.000000	99.100143
1790.000000	99.101493
1789.000000	99.101682
1788.000000	99.101377
1787.000000	99.101937
1786.000000	99.104092
1785.000000	99.107474
1784.000000	99.111304
1783.000000	99.114936
1782.000000	99.117501
1781.000000	99.118375
1780.000000	99.118700
1779.000000	99.120672
1778.000000	99.124750
1777.000000	99.129077
1776.000000	99.132178
1775.000000	99.134858
1774.000000	99.138610
1773.000000	99.143164
1772.000000	99.147060
1771.000000	99.150158
1770.000000	99.153943
1769.000000	99.159412
1768.000000	99.165322
1767.000000	99.169170
1766.000000	99.170093
1765.000000	99.169619
1764.000000	99.169588
1763.000000	99.170305
1762.000000	99.171006
1761.000000	99.171715
1760.000000	99.173584
1759.000000	99.177312
1758.000000	99.181924
1757.000000	99.185216
1756.000000	99.186085
1755.000000	99.185652
1754.000000	99.185655
1753.000000	99.186712
1752.000000	99.188269
1751.000000	99.189588
1750.000000	99.190519
1749.000000	99.191407
1748.000000	99.192614
1747.000000	99.194048
1746.000000	99.195124
1745.000000	99.195553
1744.000000	99.195943
1743.000000	99.197284
1742.000000	99.199894
1741.000000	99.202913
1740.000000	99.204632
1739.000000	99.203828
1738.000000	99.201107
1737.000000	99.198737
1736.000000	99.198885
1735.000000	99.202087
1734.000000	99.205839
1733.000000	99.206357
1732.000000	99.203219
1731.000000	99.198942
1730.000000	99.195316
1729.000000	99.192358
1728.000000	99.189706
1727.000000	99.187590
1726.000000	99.186459
1725.000000	99.186068
1724.000000	99.185441
1723.000000	99.183813
1722.000000	99.181627
1721.000000	99.180114
1720.000000	99.179854
1719.000000	99.179622
1718.000000	99.177435
1717.000000	99.173855
1716.000000	99.171384
1715.000000	99.170493
1714.000000	99.169562
1713.000000	99.167284
1712.000000	99.163876
1711.000000	99.160412
1710.000000	99.157550
1709.000000	99.155413
1708.000000	99.153957
1707.000000	99.152579
1706.000000	99.149731
1705.000000	99.144613
1704.000000	99.138731
1703.000000	99.134175
1702.000000	99.131055
1701.000000	99.127297
1700.000000	99.122423
1699.000000	99.118989
1698.000000	99.118219
1697.000000	99.118659
1696.000000	99.117426
1695.000000	99.113023
1694.000000	99.107098
1693.000000	99.101697
1692.000000	99.097305
1691.000000	99.093305
1690.000000	99.089036
1689.000000	99.084642
1688.000000	99.080981
1687.000000	99.078580
1686.000000	99.076610
1685.000000	99.072961
1684.000000	99.068246
1683.000000	99.065775
1682.000000	99.065616
1681.000000	99.065890
1680.000000	99.065703
1679.000000	99.064747
1678.000000	99.063102
1677.000000	99.060468
1676.000000	99.056645
1675.000000	99.052612
1674.000000	99.049692
1673.000000	99.047840
1672.000000	99.046544
1671.000000	99.045847
1670.000000	99.046002
1669.000000	99.046494
1668.000000	99.046084
1667.000000	99.044291
1666.000000	99.041511
1665.000000	99.038082
1664.000000	99.034200
1663.000000	99.030821
1662.000000	99.029200
1661.000000	99.028863
1660.000000	99.028423
1659.000000	99.027515
1658.000000	99.026762
1657.000000	99.026478
1656.000000	99.026396
1655.000000	99.025372
1654.000000	99.021427
1653.000000	99.016756
1652.000000	99.014800
1651.000000	99.013812
1650.000000	99.013100
1649.000000	99.013044
1648.000000	99.010900
1647.000000	99.004908
1646.000000	98.998188
1645.000000	98.995254
1644.000000	98.996013
1643.000000	98.998365
1642.000000	99.000342
1641.000000	99.000745
1640.000000	98.999323
1639.000000	98.996177
1638.000000	98.991107
1637.000000	98.983514
1636.000000	98.975472
1635.000000	98.971800
1634.000000	98.972474
1633.000000	98.973665
1632.000000	98.974126
1631.000000	98.974543
1630.000000	98.975588
1629.000000	98.977264
1628.000000	98.979481
1627.000000	98.982420
1626.000000	98.985568
1625.000000	98.987241
1624.000000	98.985856
1623.000000	98.982625
1622.000000	98.980898
1621.000000	98.981844
1620.000000	98.984022
1619.000000	98.985586
1618.000000	98.985308
1617.000000	98.984564
1616.000000	98.987059
1615.000000	98.993501
1614.000000	99.001021
1613.000000	99.007785
1612.000000	99.014072
1611.000000	99.020993
1610.000000	99.028514
1609.000000	99.034678
1608.000000	99.037814
1607.000000	99.038750
1606.000000	99.039759
1605.000000	99.042149
1604.000000	99.045898
1603.000000	99.050540
1602.000000	99.055618
1601.000000	99.060887
1600.000000	99.066684
1599.000000	99.073384
1598.000000	99.080155
1597.000000	99.085336
1596.000000	99.088644
1595.000000	99.092163
1594.000000	99.097932
1593.000000	99.105024
1592.000000	99.110577
1591.000000	99.113343
1590.000000	99.114813
1589.000000	99.117055
1588.000000	99.120657
1587.000000	99.125080
1586.000000	99.129691
1585.000000	99.133621
1584.000000	99.135683
1583.000000	99.135390
1582.000000	99.133844
1581.000000	99.133169
1580.000000	99.134963
1579.000000	99.139578
1578.000000	99.146273
1577.000000	99.153285
1576.000000	99.158686
1575.000000	99.161968
1574.000000	99.164081
1573.000000	99.166317
1572.000000	99.169112
1571.000000	99.171313
1570.000000	99.171859
1569.000000	99.171957
1568.000000	99.173803
1567.000000	99.177869
1566.000000	99.182874
1565.000000	99.186688
1564.000000	99.188155
1563.000000	99.188455
1562.000000	99.190030
1561.000000	99.194174
1560.000000	99.197841
1559.000000	99.197222
1558.000000	99.194211
1557.000000	99.191115
1556.000000	99.189024
1555.000000	99.189121
1554.000000	99.190024
1553.000000	99.190874
1552.000000	99.191707
1551.000000	99.193033
1550.000000	99.194557
1549.000000	99.195690
1548.000000	99.195904
1547.000000	99.194812
1546.000000	99.192007
1545.000000	99.187805
1544.000000	99.183709
1543.000000	99.180993
1542.000000	99.179812
1541.000000	99.180361
1540.000000	99.182691
1539.000000	99.184428
1538.000000	99.183225
1537.000000	99.180543
1536.000000	99.178748
1535.000000	99.177784
1534.000000	99.176227
1533.000000	99.174356
1532.000000	99.173994
1531.000000	99.175155
1530.000000	99.176463
1529.000000	99.176950
1528.000000	99.176957
1527.000000	99.177617
1526.000000	99.179036
1525.000000	99.180062
1524.000000	99.179996
1523.000000	99.179063
1522.000000	99.177466
1521.000000	99.175302
1520.000000	99.172788
1519.000000	99.170453
1518.000000	99.169185
1517.000000	99.169498
1516.000000	99.170627
1515.000000	99.170934
1514.000000	99.169824
1513.000000	99.168355
1512.000000	99.167916
1511.000000	99.168816
1510.000000	99.170221
1509.000000	99.171389
1508.000000	99.172400
1507.000000	99.174005
1506.000000	99.175709
1505.000000	99.175682
1504.000000	99.174404
1503.000000	99.173957
1502.000000	99.175257
1501.000000	99.178217
1500.000000	99.182232
1499.000000	99.186538
1498.000000	99.189837
1497.000000	99.190635
1496.000000	99.188578
1495.000000	99.185076
1494.000000	99.181939
1493.000000	99.179968
1492.000000	99.179173
1491.000000	99.179368
1490.000000	99.180475
1489.000000	99.182156
1488.000000	99.183451
1487.000000	99.183682
1486.000000	99.183112
1485.000000	99.182243
1484.000000	99.181419
1483.000000	99.180880
1482.000000	99.180768
1481.000000	99.181078
1480.000000	99.181400
1479.000000	99.181024
1478.000000	99.179565
1477.000000	99.177766
1476.000000	99.177290
1475.000000	99.178961
1474.000000	99.181484
1473.000000	99.182860
1472.000000	99.183084
1471.000000	99.183338
1470.000000	99.183684
1469.000000	99.183604
1468.000000	99.183183
1467.000000	99.183179
1466.000000	99.184292
1465.000000	99.186129
1464.000000	99.187332
1463.000000	99.186717
1462.000000	99.184127
1461.000000	99.180086
1460.000000	99.175275
1459.000000	99.170458
1458.000000	99.166198
1457.000000	99.163680
1456.000000	99.163380
1455.000000	99.163628
1454.000000	99.163383
1453.000000	99.162451
1452.000000	99.159962
1451.000000	99.155747
1450.000000	99.151048
1449.000000	99.147827
1448.000000	99.146896
1447.000000	99.146980
1446.000000	99.145934
1445.000000	99.143134
1444.000000	99.139879
1443.000000	99.137395
1442.000000	99.135425
1441.000000	99.133143
1440.000000	99.130824
1439.000000	99.129237
1438.000000	99.127442
1437.000000	99.123390
1436.000000	99.117891
1435.000000	99.113942
1434.000000	99.112492
1433.000000	99.112388
1432.000000	99.111755
1431.000000	99.109793
1430.000000	99.107884
1429.000000	99.107916
1428.000000	99.109748
1427.000000	99.111513
1426.000000	99.111743
1425.000000	99.110310
1424.000000	99.108586
1423.000000	99.108104
1422.000000	99.109192
1421.000000	99.111351
1420.000000	99.113559
1419.000000	99.114535
1418.000000	99.113823
1417.000000	99.112355
1416.000000	99.111314
1415.000000	99.110505
1414.000000	99.108798
1413.000000	99.106835
1412.000000	99.107607
1411.000000	99.113107
1410.000000	99.121532
1409.000000	99.129498
1408.000000	99.135566
1407.000000	99.140139
1406.000000	99.143459
1405.000000	99.145485
1404.000000	99.147266
1403.000000	99.149955
1402.000000	99.153110
1401.000000	99.155414
1400.000000	99.156597
1399.000000	99.158309
1398.000000	99.162045
1397.000000	99.167290
1396.000000	99.172730
1395.000000	99.177652
1394.000000	99.181593
1393.000000	99.184173
1392.000000	99.185815
1391.000000	99.187327
1390.000000	99.188716
1389.000000	99.189143
1388.000000	99.188614
1387.000000	99.189373
1386.000000	99.193676
1385.000000	99.200478
1384.000000	99.206285
1383.000000	99.208378
1382.000000	99.206879
1381.000000	99.204240
1380.000000	99.202486
1379.000000	99.201845
1378.000000	99.201957
1377.000000	99.202938
1376.000000	99.204666
1375.000000	99.206025
1374.000000	99.205945
1373.000000	99.204832
1372.000000	99.203862
1371.000000	99.203389
1370.000000	99.202878
1369.000000	99.202018
1368.000000	99.201380
1367.000000	99.201544
1366.000000	99.202333
1365.000000	99.203232
1364.000000	99.203818
1363.000000	99.203801
1362.000000	99.203339
1361.000000	99.203296
1360.000000	99.204500
1359.000000	99.206466
1358.000000	99.207343
1357.000000	99.205681
1356.000000	99.202116
1355.000000	99.198911
1354.000000	99.197878
1353.000000	99.199256
1352.000000	99.202181
1351.000000	99.205348
1350.000000	99.207287
1349.000000	99.207031
1348.000000	99.205178
1347.000000	99.203635
1346.000000	99.203771
1345.000000	99.205031
1344.000000	99.205577
1343.000000	99.203960
1342.000000	99.200200
1341.000000	99.195932
1340.000000	99.193761
1339.000000	99.195308
1338.000000	99.199480
1337.000000	99.203634
1336.000000	99.206295
1335.000000	99.207561
1334.000000	99.207541
1333.000000	99.205777
1332.000000	99.202452
1331.000000	99.199255
1330.000000	99.198277
1329.000000	99.200292
1328.000000	99.204346
1327.000000	99.208392
1326.000000	99.210216
1325.000000	99.208827
1324.000000	99.205706
1323.000000	99.203846
1322.000000	99.204699
1321.000000	99.206671
1320.000000	99.207236
1319.000000	99.205784
1318.000000	99.203702
1317.000000	99.202308
1316.000000	99.201760
1315.000000	99.201714
1314.000000	99.202051
1313.000000	99.202929
1312.000000	99.204486
1311.000000	99.206426
1310.000000	99.207838
1309.000000	99.207867
1308.000000	99.206749
1307.000000	99.205708
1306.000000	99.205400
1305.000000	99.204962
1304.000000	99.203290
1303.000000	99.200808
1302.000000	99.199309
1301.000000	99.199963
1300.000000	99.201797
1299.000000	99.202264
1298.000000	99.199543
1297.000000	99.194448
1296.000000	99.189817
1295.000000	99.187679
1294.000000	99.187449
1293.000000	99.187425
1292.000000	99.187135
1291.000000	99.187024
1290.000000	99.186312
1289.000000	99.182825
1288.000000	99.175420
1287.000000	99.165677
1286.000000	99.156853
1285.000000	99.151637
1284.000000	99.150773
1283.000000	99.152610
1282.000000	99.153995
1281.000000	99.152752
1280.000000	99.149284
1279.000000	99.144933
1278.000000	99.139533
1277.000000	99.132292
1276.000000	99.124576
1275.000000	99.119492
1274.000000	99.118326
1273.000000	99.119318
1272.000000	99.120337
1271.000000	99.120764
1270.000000	99.120232
1269.000000	99.117770
1268.000000	99.113432
1267.000000	99.109285
1266.000000	99.107720
1265.000000	99.109590
1264.000000	99.113835
1263.000000	99.117313
1262.000000	99.115498
1261.000000	99.106128
1260.000000	99.092769
1259.000000	99.082268
1258.000000	99.077628
1257.000000	99.075719
1256.000000	99.072342
1255.000000	99.066463
1254.000000	99.058529
1253.000000	99.047790
1252.000000	99.033574
1251.000000	99.017375
1250.000000	99.001648
1249.000000	98.987728
1248.000000	98.976039
1247.000000	98.966314
1246.000000	98.955998
1245.000000	98.940670
1244.000000	98.918454
1243.000000	98.893100
1242.000000	98.870958
1241.000000	98.855374
1240.000000	98.844911
1239.000000	98.835614
1238.000000	98.823863
1237.000000	98.808378
1236.000000	98.790596
1235.000000	98.772246
1234.000000	98.752336
1233.000000	98.728201
1232.000000	98.699693
1231.000000	98.669811
1230.000000	98.640183
1229.000000	98.608349
1228.000000	98.571012
1227.000000	98.527863
1226.000000	98.480779
1225.000000	98.431231
1224.000000	98.379923
1223.000000	98.326842
1222.000000	98.269815
1221.000000	98.204942
1220.000000	98.130333
1219.000000	98.048195
1218.000000	97.962186
1217.000000	97.874256
1216.000000	97.784835
1215.000000	97.693668
1214.000000	97.599407
1213.000000	97.501298
1212.000000	97.402522
1211.000000	97.308343
1210.000000	97.219118
1209.000000	97.128819
1208.000000	97.032774
1207.000000	96.933365
1206.000000	96.835745
1205.000000	96.741154
1204.000000	96.647161
1203.000000	96.551936
1202.000000	96.456054
1201.000000	96.362123
1200.000000	96.273489
1199.000000	96.190621
1198.000000	96.108469
1197.000000	96.020905
1196.000000	95.927781
1195.000000	95.833641
1194.000000	95.739917
1193.000000	95.643839
1192.000000	95.545478
1191.000000	95.449478
1190.000000	95.357621
1189.000000	95.265320
1188.000000	95.168282
1187.000000	95.068029
1186.000000	94.968341
1185.000000	94.870300
1184.000000	94.772575
1183.000000	94.672298
1182.000000	94.564529
1181.000000	94.445955
1180.000000	94.320491
1179.000000	94.196059
1178.000000	94.074646
1177.000000	93.951210
1176.000000	93.823033
1175.000000	93.692927
1174.000000	93.561607
1173.000000	93.425078
1172.000000	93.282774
1171.000000	93.140647
1170.000000	93.002438
1169.000000	92.865267
1168.000000	92.728044
1167.000000	92.597652
1166.000000	92.483295
1165.000000	92.391999
1164.000000	92.332937
1163.000000	92.317090
1162.000000	92.346292
1161.000000	92.407733
1160.000000	92.482438
1159.000000	92.553201
1158.000000	92.602755
1157.000000	92.614165
1156.000000	92.580105
1155.000000	92.507928
1154.000000	92.411804
1153.000000	92.302889
1152.000000	92.188767
1151.000000	92.075674
1150.000000	91.965928
1149.000000	91.857444
1148.000000	91.749536
1147.000000	91.644960
1146.000000	91.543984
1145.000000	91.442201
1144.000000	91.337071
1143.000000	91.231149
1142.000000	91.126501
1141.000000	91.021793
1140.000000	90.916863
1139.000000	90.813631
1138.000000	90.710563
1137.000000	90.603264
1136.000000	90.492384
1135.000000	90.383199
1134.000000	90.275224
1133.000000	90.160694
1132.000000	90.036301
1131.000000	89.908280
1130.000000	89.782919
1129.000000	89.660221
1128.000000	89.539913
1127.000000	89.424650
1126.000000	89.313212
1125.000000	89.198971
1124.000000	89.079273
1123.000000	88.958929
1122.000000	88.841411
1121.000000	88.724538
1120.000000	88.607319
1119.000000	88.492098
1118.000000	88.377612
1117.000000	88.259777
1116.000000	88.141531
1115.000000	88.031129
1114.000000	87.928042
1113.000000	87.822043
1112.000000	87.709266
1111.000000	87.596575
1110.000000	87.487288
1109.000000	87.376485
1108.000000	87.263904
1107.000000	87.157464
1106.000000	87.059155
1105.000000	86.960597
1104.000000	86.857742
1103.000000	86.757341
1102.000000	86.663675
1101.000000	86.571328
1100.000000	86.475989
1099.000000	86.380461
1098.000000	86.285667
1097.000000	86.187338
1096.000000	86.086014
1095.000000	85.989041
1094.000000	85.899548
1093.000000	85.814905
1092.000000	85.737437
1091.000000	85.672980
1090.000000	85.617034
1089.000000	85.556979
1088.000000	85.490264
1087.000000	85.425699
1086.000000	85.365586
1085.000000	85.303406
1084.000000	85.241284
1083.000000	85.191198
1082.000000	85.154332
1081.000000	85.117130
1080.000000	85.073287
1079.000000	85.032047
1078.000000	84.998761
1077.000000	84.964776
1076.000000	84.923729
1075.000000	84.880458
1074.000000	84.835075
1073.000000	84.773584
1072.000000	84.683007
1071.000000	84.562690
1070.000000	84.414474
1069.000000	84.235467
1068.000000	84.028042
1067.000000	83.804658
1066.000000	83.575766
1065.000000	83.344296
1064.000000	83.116891
1063.000000	82.906078
1062.000000	82.714794
1061.000000	82.532837
1060.000000	82.354560
1059.000000	82.185983
1058.000000	82.029532
1057.000000	81.876899
1056.000000	81.722553
1055.000000	81.569370
1054.000000	81.415485
1053.000000	81.250497
1052.000000	81.070409
1051.000000	80.881422
1050.000000	80.684674
1049.000000	80.475165
1048.000000	80.259136
1047.000000	80.050755
1046.000000	79.847799
1045.000000	79.632540
1044.000000	79.400328
1043.000000	79.166446
1042.000000	78.940631
1041.000000	78.715942
1040.000000	78.489151
1039.000000	78.271093
1038.000000	78.068307
1037.000000	77.873963
1036.000000	77.685477
1035.000000	77.512634
1034.000000	77.360266
1033.000000	77.220734
1032.000000	77.090032
1031.000000	76.973238
1030.000000	76.868419
1029.000000	76.764630
1028.000000	76.662074
1027.000000	76.574766
1026.000000	76.506730
1025.000000	76.444767
1024.000000	76.380491
1023.000000	76.319708
1022.000000	76.264163
1021.000000	76.204771
1020.000000	76.139894
1019.000000	76.080269
1018.000000	76.028214
1017.000000	75.971030
1016.000000	75.902618
1015.000000	75.833896
1014.000000	75.774658
1013.000000	75.721849
1012.000000	75.671272
1011.000000	75.624173
1010.000000	75.577708
1009.000000	75.525700
1008.000000	75.472729
1007.000000	75.430908
1006.000000	75.400457
1005.000000	75.370898
1004.000000	75.342428
1003.000000	75.326327
1002.000000	75.322508
1001.000000	75.317460
1000.000000	75.307466
999.000000	75.303473
998.000000	75.309818
997.000000	75.318849
996.000000	75.329824
995.000000	75.351994
994.000000	75.384615
993.000000	75.414419
992.000000	75.437632
991.000000	75.465134
990.000000	75.502032
989.000000	75.542118
988.000000	75.586506
987.000000	75.647746
986.000000	75.730714
985.000000	75.828015
984.000000	75.937482
983.000000	76.065174
982.000000	76.208521
981.000000	76.356836
980.000000	76.511818
979.000000	76.687220
978.000000	76.884540
977.000000	77.089241
976.000000	77.295430
975.000000	77.514815
974.000000	77.756096
973.000000	78.013404
972.000000	78.278991
971.000000	78.550050
970.000000	78.819831
969.000000	79.079950
968.000000	79.335280
967.000000	79.599827
966.000000	79.874746
965.000000	80.146581
964.000000	80.409254
963.000000	80.670555
962.000000	80.934190
961.000000	81.192501
960.000000	81.440528
959.000000	81.681408
958.000000	81.914828
957.000000	82.135642
956.000000	82.346591
955.000000	82.556690
954.000000	82.764012
953.000000	82.955703
952.000000	83.128191
951.000000	83.291872
950.000000	83.452518
949.000000	83.603836
948.000000	83.743177
947.000000	83.879072
946.000000	84.016699
945.000000	84.148760
944.000000	84.267129
943.000000	84.372915
942.000000	84.470872
941.000000	84.564276
940.000000	84.658502
939.000000	84.759010
938.000000	84.863048
937.000000	84.963466
936.000000	85.061380
935.000000	85.163597
934.000000	85.267744
933.000000	85.363995
932.000000	85.453139
931.000000	85.548814
930.000000	85.658742
929.000000	85.776499
928.000000	85.894235
927.000000	86.010380
926.000000	86.122243
925.000000	86.224616
924.000000	86.319863
923.000000	86.417536
922.000000	86.520130
921.000000	86.619901
920.000000	86.712271
919.000000	86.801166
918.000000	86.888818
917.000000	86.972066
916.000000	87.051868
915.000000	87.135442
914.000000	87.225998
913.000000	87.321122
912.000000	87.424026
911.000000	87.545135
910.000000	87.688487
909.000000	87.845921
908.000000	88.008047
907.000000	88.173589
906.000000	88.347293
905.000000	88.536845
904.000000	88.751063
903.000000	88.991497
902.000000	89.245878
901.000000	89.498693
900.000000	89.746425
899.000000	89.993598
898.000000	90.238762
897.000000	90.476221
896.000000	90.707540
895.000000	90.937712
894.000000	91.161806
893.000000	91.368745
892.000000	91.558024
891.000000	91.740876
890.000000	91.924790
889.000000	92.107037
888.000000	92.282629
887.000000	92.448559
886.000000	92.602196
885.000000	92.746214
884.000000	92.892842
883.000000	93.051371
882.000000	93.213567
881.000000	93.364173
880.000000	93.503219
879.000000	93.643713
878.000000	93.789207
877.000000	93.930299
876.000000	94.064239
875.000000	94.201139
874.000000	94.347340
873.000000	94.497121
872.000000	94.644775
871.000000	94.792286
870.000000	94.941783
869.000000	95.091027
868.000000	95.238250
867.000000	95.382023
866.000000	95.516938
865.000000	95.640358
864.000000	95.762864
863.000000	95.899496
862.000000	96.048645
861.000000	96.191395
860.000000	96.314442
859.000000	96.422960
858.000000	96.528466
857.000000	96.634494
856.000000	96.738479
855.000000	96.838766
854.000000	96.934552
853.000000	97.024375
852.000000	97.106912
851.000000	97.178618
850.000000	97.232448
849.000000	97.266985
848.000000	97.294783
847.000000	97.330569
846.000000	97.370920
845.000000	97.397847
844.000000	97.403997
843.000000	97.400598
842.000000	97.395832
841.000000	97.378732
840.000000	97.333432
839.000000	97.260042
838.000000	97.172407
837.000000	97.081777
836.000000	96.991597
835.000000	96.904249
834.000000	96.824581
833.000000	96.757880
832.000000	96.708614
831.000000	96.678999
830.000000	96.666396
829.000000	96.665762
828.000000	96.675834
827.000000	96.697573
826.000000	96.725969
825.000000	96.751408
824.000000	96.771082
823.000000	96.790526
822.000000	96.812025
821.000000	96.830280
820.000000	96.840038
819.000000	96.838019
818.000000	96.816417
817.000000	96.764271
816.000000	96.677723
815.000000	96.561376
814.000000	96.416791
813.000000	96.235791
812.000000	96.006463
811.000000	95.717640
810.000000	95.355020
809.000000	94.902849
808.000000	94.356906
807.000000	93.731230
806.000000	93.048307
805.000000	92.330585
804.000000	91.607546
803.000000	90.920217
802.000000	90.306578
801.000000	89.787415
800.000000	89.372937
799.000000	89.073857
798.000000	88.897331
797.000000	88.838727
796.000000	88.882451
795.000000	89.004420
794.000000	89.173340
793.000000	89.359473
792.000000	89.544098
791.000000	89.714507
790.000000	89.853685
789.000000	89.943830
788.000000	89.975282
787.000000	89.942266
786.000000	89.836548
785.000000	89.658888
784.000000	89.432383
783.000000	89.189740
782.000000	88.949932
781.000000	88.722265
780.000000	88.529263
779.000000	88.404699
778.000000	88.367367
777.000000	88.415224
776.000000	88.545109
775.000000	88.755559
774.000000	89.026256
773.000000	89.317705
772.000000	89.600790
771.000000	89.870668
770.000000	90.126108
769.000000	90.353360
768.000000	90.539879
767.000000	90.689882
766.000000	90.815980
765.000000	90.924570
764.000000	91.016497
763.000000	91.093498
762.000000	91.158586
761.000000	91.218462
760.000000	91.289036
759.000000	91.388045
758.000000	91.516777
757.000000	91.657638
756.000000	91.793106
755.000000	91.918345
754.000000	92.034013
753.000000	92.138942
752.000000	92.234921
751.000000	92.328689
750.000000	92.423671
749.000000	92.517404
748.000000	92.611215
747.000000	92.714839
746.000000	92.837262
745.000000	92.978869
744.000000	93.134636
743.000000	93.298614
742.000000	93.464834
741.000000	93.631720
740.000000	93.805793
739.000000	93.992470
738.000000	94.182554
737.000000	94.356652
736.000000	94.504211
735.000000	94.630358
734.000000	94.744217
733.000000	94.848572
732.000000	94.941212
731.000000	95.018252
730.000000	95.075066
729.000000	95.111138
728.000000	95.134374
727.000000	95.155743
726.000000	95.182547
725.000000	95.222421
724.000000	95.287492
723.000000	95.383035
722.000000	95.495138
721.000000	95.602078
720.000000	95.698033
719.000000	95.795029
718.000000	95.901910
717.000000	96.013368
716.000000	96.119394
715.000000	96.212926
714.000000	96.287922
713.000000	96.341979
712.000000	96.382365
711.000000	96.419281
710.000000	96.451943
709.000000	96.471161
708.000000	96.475060
707.000000	96.470418
706.000000	96.458028
705.000000	96.428300
704.000000	96.372469
703.000000	96.285450
702.000000	96.153703
701.000000	95.952751
700.000000	95.664831
699.000000	95.296404
698.000000	94.883172
697.000000	94.486977
696.000000	94.180374
695.000000	94.014116
694.000000	93.991872
693.000000	94.081889
692.000000	94.249449
691.000000	94.468061
690.000000	94.708112
689.000000	94.936792
688.000000	95.135371
687.000000	95.303503
686.000000	95.443338
685.000000	95.554790
684.000000	95.646606
683.000000	95.733100
682.000000	95.817853
681.000000	95.896184
680.000000	95.972911
679.000000	96.058311
678.000000	96.146140
677.000000	96.219012
676.000000	96.278458
675.000000	96.346483
674.000000	96.432965
673.000000	96.521076
672.000000	96.591755
671.000000	96.645376
670.000000	96.692446
669.000000	96.742992
668.000000	96.811979
667.000000	96.902886
666.000000	96.992650
665.000000	97.065201
664.000000	97.121043
663.000000	97.168494
662.000000	97.209945
661.000000	97.238336
660.000000	97.250427
659.000000	97.253697
658.000000	97.252509
657.000000	97.240447
656.000000	97.214665
655.000000	97.184704
654.000000	97.158712
653.000000	97.132205
652.000000	97.102658
651.000000	97.083743
650.000000	97.090937
649.000000	97.124947
648.000000	97.179325
647.000000	97.249241
646.000000	97.324230
645.000000	97.390626
644.000000	97.453649
643.000000	97.538755
642.000000	97.656652
641.000000	97.783613
640.000000	97.887109
639.000000	97.954945
638.000000	97.992356
637.000000	98.008722
636.000000	98.018929
635.000000	98.041883
634.000000	98.082434
633.000000	98.130374
632.000000	98.187426
631.000000	98.271551
630.000000	98.382437
629.000000	98.488785
628.000000	98.567103
627.000000	98.630002
626.000000	98.698901
625.000000	98.769265
624.000000	98.830454
623.000000	98.902082
622.000000	99.013150
621.000000	99.149281
620.000000	99.254617
619.000000	99.289569
618.000000	99.270885
617.000000	99.249475
616.000000	99.254364
615.000000	99.269585
614.000000	99.263835
613.000000	99.234514
612.000000	99.212492
611.000000	99.218131
610.000000	99.225694
609.000000	99.194010
608.000000	99.121368
607.000000	99.041155
606.000000	98.972994
605.000000	98.917836
604.000000	98.899376
603.000000	98.949695
602.000000	99.036678
601.000000	99.066444
600.000000	98.988677
599.000000	98.858585
598.000000	98.764371
597.000000	98.724303
596.000000	98.698070
595.000000	98.663673
594.000000	98.635037
593.000000	98.623055
592.000000	98.624727
591.000000	98.642356
590.000000	98.679434
589.000000	98.728249
588.000000	98.784005
587.000000	98.852902
586.000000	98.929534
585.000000	98.990421
584.000000	99.028021
583.000000	99.062650
582.000000	99.100735
581.000000	99.116922
580.000000	99.106235
579.000000	99.114465
578.000000	99.176544
577.000000	99.255460
576.000000	99.288490
575.000000	99.272250
574.000000	99.263586
573.000000	99.307262
572.000000	99.402363
571.000000	99.518400
570.000000	99.605018
569.000000	99.609216
568.000000	99.515407
567.000000	99.370224
566.000000	99.252227
565.000000	99.211251
564.000000	99.246642
563.000000	99.307400
562.000000	99.302240
561.000000	99.171465
560.000000	98.965148
559.000000	98.815956
558.000000	98.801539
557.000000	98.870567
556.000000	98.925250
555.000000	98.922048
554.000000	98.881196
553.000000	98.854502
552.000000	98.898079
551.000000	99.017858
550.000000	99.121851
