PE IR       SUBTECH     SPECTRUM    ASCII       PEDS        4.00        
   -1
BH1 8-1 4 70_1.asc
24/05/15
16:03:50.00
24/05/15
16:04:30.00
Administrator
?品 110 用? Administrator 日期 Wednesday, May 15 2024
550.000000
#HDR
-1
-1
#GR
cm-1
%T
1.0
0.0
4000.000000
-1.000000
3451
8
99.525768
85.283693
#DATA
4000.000000	99.370373
3999.000000	99.371067
3998.000000	99.371557
3997.000000	99.370246
3996.000000	99.366486
3995.000000	99.361201
3994.000000	99.356293
3993.000000	99.353255
3992.000000	99.352445
3991.000000	99.353374
3990.000000	99.355394
3989.000000	99.357904
3988.000000	99.360276
3987.000000	99.362012
3986.000000	99.362959
3985.000000	99.363392
3984.000000	99.363889
3983.000000	99.365044
3982.000000	99.367083
3981.000000	99.369610
3980.000000	99.371723
3979.000000	99.372540
3978.000000	99.371571
3977.000000	99.368841
3976.000000	99.365046
3975.000000	99.361471
3974.000000	99.359291
3973.000000	99.358705
3972.000000	99.358891
3971.000000	99.358902
3970.000000	99.358629
3969.000000	99.358689
3968.000000	99.359430
3967.000000	99.360293
3966.000000	99.360263
3965.000000	99.358915
3964.000000	99.356944
3963.000000	99.355613
3962.000000	99.355617
3961.000000	99.356539
3960.000000	99.357484
3959.000000	99.358152
3958.000000	99.359097
3957.000000	99.360897
3956.000000	99.363226
3955.000000	99.364860
3954.000000	99.364689
3953.000000	99.362657
3952.000000	99.359784
3951.000000	99.357392
3950.000000	99.356181
3949.000000	99.355892
3948.000000	99.355667
3947.000000	99.354824
3946.000000	99.353451
3945.000000	99.352350
3944.000000	99.352297
3943.000000	99.353178
3942.000000	99.353817
3941.000000	99.352984
3940.000000	99.350683
3939.000000	99.348352
3938.000000	99.347633
3937.000000	99.348956
3936.000000	99.351395
3935.000000	99.353553
3934.000000	99.354564
3933.000000	99.354298
3932.000000	99.353063
3931.000000	99.351501
3930.000000	99.350437
3929.000000	99.350376
3928.000000	99.351137
3927.000000	99.352088
3926.000000	99.352827
3925.000000	99.353487
3924.000000	99.354277
3923.000000	99.355067
3922.000000	99.355625
3921.000000	99.356014
3920.000000	99.356549
3919.000000	99.357400
3918.000000	99.358342
3917.000000	99.358894
3916.000000	99.358687
3915.000000	99.357727
3914.000000	99.356426
3913.000000	99.355467
3912.000000	99.355607
3911.000000	99.357330
3910.000000	99.360418
3909.000000	99.363689
3908.000000	99.365475
3907.000000	99.364692
3906.000000	99.361568
3905.000000	99.357492
3904.000000	99.353854
3903.000000	99.351029
3902.000000	99.348826
3901.000000	99.347479
3900.000000	99.347618
3899.000000	99.349277
3898.000000	99.351458
3897.000000	99.352857
3896.000000	99.352792
3895.000000	99.351435
3894.000000	99.349727
3893.000000	99.349004
3892.000000	99.350156
3891.000000	99.352660
3890.000000	99.354714
3889.000000	99.354700
3888.000000	99.352264
3887.000000	99.348480
3886.000000	99.345287
3885.000000	99.343987
3884.000000	99.344356
3883.000000	99.345346
3882.000000	99.346299
3881.000000	99.347393
3880.000000	99.349073
3879.000000	99.351236
3878.000000	99.353137
3877.000000	99.354063
3876.000000	99.354059
3875.000000	99.354092
3874.000000	99.355130
3873.000000	99.356938
3872.000000	99.358238
3871.000000	99.358022
3870.000000	99.356470
3869.000000	99.354560
3868.000000	99.353200
3867.000000	99.352894
3866.000000	99.353712
3865.000000	99.355013
3864.000000	99.355766
3863.000000	99.355616
3862.000000	99.355244
3861.000000	99.355285
3860.000000	99.355565
3859.000000	99.355302
3858.000000	99.353639
3857.000000	99.350076
3856.000000	99.344865
3855.000000	99.339655
3854.000000	99.337510
3853.000000	99.340192
3852.000000	99.345757
3851.000000	99.350661
3850.000000	99.353443
3849.000000	99.354802
3848.000000	99.356070
3847.000000	99.357927
3846.000000	99.359983
3845.000000	99.361176
3844.000000	99.360730
3843.000000	99.358743
3842.000000	99.356046
3841.000000	99.353631
3840.000000	99.352251
3839.000000	99.352114
3838.000000	99.352737
3837.000000	99.353379
3836.000000	99.353596
3835.000000	99.353389
3834.000000	99.353098
3833.000000	99.353184
3832.000000	99.353850
3831.000000	99.354728
3830.000000	99.355154
3829.000000	99.354801
3828.000000	99.354063
3827.000000	99.353783
3826.000000	99.354433
3825.000000	99.355565
3824.000000	99.356254
3823.000000	99.355961
3822.000000	99.355036
3821.000000	99.354429
3820.000000	99.354490
3819.000000	99.354670
3818.000000	99.354437
3817.000000	99.353872
3816.000000	99.353449
3815.000000	99.353465
3814.000000	99.353814
3813.000000	99.354211
3812.000000	99.354458
3811.000000	99.354430
3810.000000	99.354079
3809.000000	99.353536
3808.000000	99.353147
3807.000000	99.353197
3806.000000	99.353506
3805.000000	99.353683
3804.000000	99.353633
3803.000000	99.353618
3802.000000	99.353887
3801.000000	99.354354
3800.000000	99.354725
3799.000000	99.354894
3798.000000	99.355009
3797.000000	99.355266
3796.000000	99.355701
3795.000000	99.356168
3794.000000	99.356490
3793.000000	99.356592
3792.000000	99.356505
3791.000000	99.356335
3790.000000	99.356206
3789.000000	99.356175
3788.000000	99.356200
3787.000000	99.356179
3786.000000	99.356051
3785.000000	99.355866
3784.000000	99.355730
3783.000000	99.355672
3782.000000	99.355624
3781.000000	99.355499
3780.000000	99.355291
3779.000000	99.355055
3778.000000	99.354812
3777.000000	99.354509
3776.000000	99.354075
3775.000000	99.353493
3774.000000	99.352844
3773.000000	99.352321
3772.000000	99.352178
3771.000000	99.352593
3770.000000	99.353397
3769.000000	99.353958
3768.000000	99.353709
3767.000000	99.352579
3766.000000	99.351133
3765.000000	99.350081
3764.000000	99.349625
3763.000000	99.349466
3762.000000	99.349277
3761.000000	99.348973
3760.000000	99.348576
3759.000000	99.348040
3758.000000	99.347414
3757.000000	99.346944
3756.000000	99.346766
3755.000000	99.346748
3754.000000	99.346544
3753.000000	99.345530
3752.000000	99.342933
3751.000000	99.339002
3750.000000	99.335670
3749.000000	99.334271
3748.000000	99.333552
3747.000000	99.331407
3746.000000	99.327914
3745.000000	99.325817
3744.000000	99.327124
3743.000000	99.330549
3742.000000	99.333524
3741.000000	99.335001
3740.000000	99.335759
3739.000000	99.337120
3738.000000	99.339703
3737.000000	99.342972
3736.000000	99.345307
3735.000000	99.345239
3734.000000	99.342889
3733.000000	99.339786
3732.000000	99.336998
3731.000000	99.334040
3730.000000	99.329951
3729.000000	99.324799
3728.000000	99.319807
3727.000000	99.316148
3726.000000	99.313903
3725.000000	99.312670
3724.000000	99.312536
3723.000000	99.313649
3722.000000	99.315513
3721.000000	99.317287
3720.000000	99.318471
3719.000000	99.318530
3718.000000	99.316545
3717.000000	99.311808
3716.000000	99.304586
3715.000000	99.296411
3714.000000	99.289224
3713.000000	99.283800
3712.000000	99.279342
3711.000000	99.274901
3710.000000	99.270804
3709.000000	99.268276
3708.000000	99.268214
3707.000000	99.270341
3706.000000	99.272830
3705.000000	99.272989
3704.000000	99.268956
3703.000000	99.261310
3702.000000	99.253164
3701.000000	99.247602
3700.000000	99.244857
3699.000000	99.242841
3698.000000	99.239659
3697.000000	99.234814
3696.000000	99.228566
3695.000000	99.221289
3694.000000	99.213691
3693.000000	99.206834
3692.000000	99.201625
3691.000000	99.198368
3690.000000	99.196550
3689.000000	99.194580
3688.000000	99.190632
3687.000000	99.183984
3686.000000	99.175329
3685.000000	99.166818
3684.000000	99.161432
3683.000000	99.161044
3682.000000	99.164765
3681.000000	99.169389
3680.000000	99.170942
3679.000000	99.166267
3678.000000	99.154283
3677.000000	99.137293
3676.000000	99.121171
3675.000000	99.110427
3674.000000	99.103653
3673.000000	99.096917
3672.000000	99.088768
3671.000000	99.080042
3670.000000	99.071141
3669.000000	99.060831
3668.000000	99.047989
3667.000000	99.033009
3666.000000	99.017162
3665.000000	99.001675
3664.000000	98.987553
3663.000000	98.975959
3662.000000	98.968090
3661.000000	98.963943
3660.000000	98.961022
3659.000000	98.955388
3658.000000	98.944647
3657.000000	98.930672
3656.000000	98.918411
3655.000000	98.910793
3654.000000	98.906421
3653.000000	98.902205
3652.000000	98.896130
3651.000000	98.887112
3650.000000	98.874518
3649.000000	98.859717
3648.000000	98.846799
3647.000000	98.839310
3646.000000	98.836987
3645.000000	98.836580
3644.000000	98.834507
3643.000000	98.828807
3642.000000	98.819979
3641.000000	98.810415
3640.000000	98.802508
3639.000000	98.796722
3638.000000	98.791145
3637.000000	98.783323
3636.000000	98.773001
3635.000000	98.763062
3634.000000	98.756841
3633.000000	98.754471
3632.000000	98.752691
3631.000000	98.747819
3630.000000	98.738850
3629.000000	98.728745
3628.000000	98.721232
3627.000000	98.716619
3626.000000	98.713310
3625.000000	98.711063
3624.000000	98.711210
3623.000000	98.714506
3622.000000	98.719646
3621.000000	98.723974
3620.000000	98.725696
3619.000000	98.725556
3618.000000	98.725732
3617.000000	98.726993
3616.000000	98.728077
3615.000000	98.728102
3614.000000	98.728893
3613.000000	98.734297
3612.000000	98.746601
3611.000000	98.763743
3610.000000	98.780061
3609.000000	98.790259
3608.000000	98.793541
3607.000000	98.793391
3606.000000	98.793538
3605.000000	98.795249
3604.000000	98.798143
3603.000000	98.801867
3602.000000	98.806512
3601.000000	98.812104
3600.000000	98.818274
3599.000000	98.824925
3598.000000	98.832453
3597.000000	98.840519
3596.000000	98.846862
3595.000000	98.848713
3594.000000	98.845666
3593.000000	98.840381
3592.000000	98.835815
3591.000000	98.832302
3590.000000	98.828016
3589.000000	98.822455
3588.000000	98.818905
3587.000000	98.821205
3586.000000	98.828137
3585.000000	98.834141
3584.000000	98.834857
3583.000000	98.829963
3582.000000	98.822067
3581.000000	98.814367
3580.000000	98.809116
3579.000000	98.807384
3578.000000	98.809173
3577.000000	98.813089
3576.000000	98.816400
3575.000000	98.816434
3574.000000	98.812547
3573.000000	98.806662
3572.000000	98.801797
3571.000000	98.799818
3570.000000	98.800471
3569.000000	98.801949
3568.000000	98.802188
3567.000000	98.800034
3566.000000	98.795572
3565.000000	98.789733
3564.000000	98.783716
3563.000000	98.778581
3562.000000	98.775085
3561.000000	98.773551
3560.000000	98.773658
3559.000000	98.774323
3558.000000	98.774089
3557.000000	98.772030
3556.000000	98.768387
3555.000000	98.764365
3554.000000	98.761289
3553.000000	98.759758
3552.000000	98.759501
3551.000000	98.759852
3550.000000	98.760221
3549.000000	98.760201
3548.000000	98.759452
3547.000000	98.757767
3546.000000	98.755334
3545.000000	98.752713
3544.000000	98.750383
3543.000000	98.748392
3542.000000	98.746538
3541.000000	98.744730
3540.000000	98.742987
3539.000000	98.741304
3538.000000	98.739740
3537.000000	98.738645
3536.000000	98.738482
3535.000000	98.739273
3534.000000	98.740351
3533.000000	98.740871
3532.000000	98.740492
3531.000000	98.739535
3530.000000	98.738566
3529.000000	98.737873
3528.000000	98.737306
3527.000000	98.736526
3526.000000	98.735369
3525.000000	98.733995
3524.000000	98.732733
3523.000000	98.731784
3522.000000	98.731039
3521.000000	98.730199
3520.000000	98.729070
3519.000000	98.727741
3518.000000	98.726500
3517.000000	98.725612
3516.000000	98.725169
3515.000000	98.725083
3514.000000	98.725149
3513.000000	98.725101
3512.000000	98.724721
3511.000000	98.723954
3510.000000	98.722973
3509.000000	98.722110
3508.000000	98.721621
3507.000000	98.721518
3506.000000	98.721544
3505.000000	98.721324
3504.000000	98.720685
3503.000000	98.719792
3502.000000	98.718995
3501.000000	98.718417
3500.000000	98.717856
3499.000000	98.717055
3498.000000	98.715961
3497.000000	98.714763
3496.000000	98.713737
3495.000000	98.713030
3494.000000	98.712586
3493.000000	98.712208
3492.000000	98.711740
3491.000000	98.711206
3490.000000	98.710726
3489.000000	98.710246
3488.000000	98.709441
3487.000000	98.707980
3486.000000	98.705890
3485.000000	98.703657
3484.000000	98.701894
3483.000000	98.700868
3482.000000	98.700398
3481.000000	98.700047
3480.000000	98.699470
3479.000000	98.698568
3478.000000	98.697429
3477.000000	98.696226
3476.000000	98.695101
3475.000000	98.694022
3474.000000	98.692781
3473.000000	98.691261
3472.000000	98.689697
3471.000000	98.688522
3470.000000	98.687912
3469.000000	98.687632
3468.000000	98.687414
3467.000000	98.687298
3466.000000	98.687315
3465.000000	98.686949
3464.000000	98.685331
3463.000000	98.682077
3462.000000	98.677792
3461.000000	98.673777
3460.000000	98.671108
3459.000000	98.670013
3458.000000	98.669977
3457.000000	98.670193
3456.000000	98.669952
3455.000000	98.668826
3454.000000	98.666768
3453.000000	98.664131
3452.000000	98.661401
3451.000000	98.658641
3450.000000	98.655311
3449.000000	98.650980
3448.000000	98.646316
3447.000000	98.643015
3446.000000	98.642333
3445.000000	98.643864
3444.000000	98.645775
3443.000000	98.646352
3442.000000	98.645211
3441.000000	98.642927
3440.000000	98.639940
3439.000000	98.636142
3438.000000	98.631495
3437.000000	98.626659
3436.000000	98.622611
3435.000000	98.619744
3434.000000	98.617661
3433.000000	98.615861
3432.000000	98.614373
3431.000000	98.613619
3430.000000	98.613890
3429.000000	98.615134
3428.000000	98.617055
3427.000000	98.619069
3426.000000	98.620242
3425.000000	98.619718
3424.000000	98.617446
3423.000000	98.614450
3422.000000	98.612219
3421.000000	98.611488
3420.000000	98.611580
3419.000000	98.611038
3418.000000	98.609046
3417.000000	98.606243
3416.000000	98.604116
3415.000000	98.603462
3414.000000	98.603654
3413.000000	98.603432
3412.000000	98.602356
3411.000000	98.601192
3410.000000	98.600839
3409.000000	98.601267
3408.000000	98.601634
3407.000000	98.601310
3406.000000	98.600490
3405.000000	98.599836
3404.000000	98.599788
3403.000000	98.600307
3402.000000	98.601025
3401.000000	98.601536
3400.000000	98.601598
3399.000000	98.601309
3398.000000	98.601099
3397.000000	98.601402
3396.000000	98.602281
3395.000000	98.603414
3394.000000	98.604426
3393.000000	98.605158
3392.000000	98.605610
3391.000000	98.605773
3390.000000	98.605661
3389.000000	98.605502
3388.000000	98.605756
3387.000000	98.606799
3386.000000	98.608575
3385.000000	98.610502
3384.000000	98.611886
3383.000000	98.612477
3382.000000	98.612541
3381.000000	98.612515
3380.000000	98.612606
3379.000000	98.612792
3378.000000	98.613061
3377.000000	98.613504
3376.000000	98.614253
3375.000000	98.615450
3374.000000	98.617254
3373.000000	98.619725
3372.000000	98.622587
3371.000000	98.625221
3370.000000	98.627058
3369.000000	98.628021
3368.000000	98.628575
3367.000000	98.629340
3366.000000	98.630564
3365.000000	98.631975
3364.000000	98.633144
3363.000000	98.633950
3362.000000	98.634716
3361.000000	98.635900
3360.000000	98.637668
3359.000000	98.639777
3358.000000	98.641812
3357.000000	98.643547
3356.000000	98.645091
3355.000000	98.646695
3354.000000	98.648443
3353.000000	98.650133
3352.000000	98.651483
3351.000000	98.652427
3350.000000	98.653193
3349.000000	98.654087
3348.000000	98.655225
3347.000000	98.656543
3346.000000	98.658032
3345.000000	98.659816
3344.000000	98.661944
3343.000000	98.664161
3342.000000	98.666045
3341.000000	98.667362
3340.000000	98.668236
3339.000000	98.669032
3338.000000	98.670080
3337.000000	98.671517
3336.000000	98.673335
3335.000000	98.675471
3334.000000	98.677814
3333.000000	98.680132
3332.000000	98.682063
3331.000000	98.683305
3330.000000	98.683888
3329.000000	98.684305
3328.000000	98.685212
3327.000000	98.686936
3326.000000	98.689217
3325.000000	98.691382
3324.000000	98.692839
3323.000000	98.693483
3322.000000	98.693734
3321.000000	98.694143
3320.000000	98.694943
3319.000000	98.696030
3318.000000	98.697341
3317.000000	98.699056
3316.000000	98.701363
3315.000000	98.704224
3314.000000	98.707447
3313.000000	98.710809
3312.000000	98.714019
3311.000000	98.716766
3310.000000	98.719022
3309.000000	98.721183
3308.000000	98.723643
3307.000000	98.726274
3306.000000	98.728501
3305.000000	98.729849
3304.000000	98.730241
3303.000000	98.729862
3302.000000	98.728965
3301.000000	98.727742
3300.000000	98.726350
3299.000000	98.725255
3298.000000	98.725528
3297.000000	98.728286
3296.000000	98.733605
3295.000000	98.740097
3294.000000	98.745916
3293.000000	98.750218
3292.000000	98.753211
3291.000000	98.755181
3290.000000	98.756140
3289.000000	98.756396
3288.000000	98.756660
3287.000000	98.757214
3286.000000	98.757668
3285.000000	98.757839
3284.000000	98.758334
3283.000000	98.759840
3282.000000	98.762248
3281.000000	98.764920
3280.000000	98.767558
3279.000000	98.770306
3278.000000	98.773047
3277.000000	98.775197
3276.000000	98.776422
3275.000000	98.777231
3274.000000	98.778549
3273.000000	98.780768
3272.000000	98.783382
3271.000000	98.785571
3270.000000	98.786978
3269.000000	98.787838
3268.000000	98.788520
3267.000000	98.789164
3266.000000	98.789799
3265.000000	98.790635
3264.000000	98.792026
3263.000000	98.794095
3262.000000	98.796538
3261.000000	98.798860
3260.000000	98.800783
3259.000000	98.802366
3258.000000	98.803769
3257.000000	98.805033
3256.000000	98.806097
3255.000000	98.806934
3254.000000	98.807581
3253.000000	98.808111
3252.000000	98.808741
3251.000000	98.809955
3250.000000	98.812221
3249.000000	98.815471
3248.000000	98.818916
3247.000000	98.821608
3246.000000	98.823248
3245.000000	98.824313
3244.000000	98.825518
3243.000000	98.827135
3242.000000	98.828954
3241.000000	98.830722
3240.000000	98.832364
3239.000000	98.833822
3238.000000	98.834945
3237.000000	98.835698
3236.000000	98.836437
3235.000000	98.837810
3234.000000	98.840290
3233.000000	98.843717
3232.000000	98.847261
3231.000000	98.849965
3230.000000	98.851367
3229.000000	98.851578
3228.000000	98.850964
3227.000000	98.850066
3226.000000	98.849798
3225.000000	98.851245
3224.000000	98.854850
3223.000000	98.859837
3222.000000	98.864716
3221.000000	98.868519
3220.000000	98.871293
3219.000000	98.873636
3218.000000	98.876096
3217.000000	98.878885
3216.000000	98.881710
3215.000000	98.883817
3214.000000	98.884601
3213.000000	98.884323
3212.000000	98.883957
3211.000000	98.884247
3210.000000	98.885195
3209.000000	98.886401
3208.000000	98.887490
3207.000000	98.888168
3206.000000	98.888334
3205.000000	98.888382
3204.000000	98.889076
3203.000000	98.890839
3202.000000	98.893374
3201.000000	98.896176
3200.000000	98.899104
3199.000000	98.902235
3198.000000	98.905400
3197.000000	98.908162
3196.000000	98.910207
3195.000000	98.911549
3194.000000	98.912439
3193.000000	98.913191
3192.000000	98.914070
3191.000000	98.915237
3190.000000	98.916785
3189.000000	98.918798
3188.000000	98.921248
3187.000000	98.923809
3186.000000	98.925964
3185.000000	98.927436
3184.000000	98.928429
3183.000000	98.929433
3182.000000	98.930839
3181.000000	98.932670
3180.000000	98.934703
3179.000000	98.936684
3178.000000	98.938497
3177.000000	98.940186
3176.000000	98.941823
3175.000000	98.943424
3174.000000	98.944974
3173.000000	98.946504
3172.000000	98.948096
3171.000000	98.949821
3170.000000	98.951686
3169.000000	98.953598
3168.000000	98.955444
3167.000000	98.957226
3166.000000	98.959047
3165.000000	98.960963
3164.000000	98.962871
3163.000000	98.964611
3162.000000	98.966126
3161.000000	98.967522
3160.000000	98.969023
3159.000000	98.970827
3158.000000	98.972974
3157.000000	98.975248
3156.000000	98.977276
3155.000000	98.978822
3154.000000	98.980018
3153.000000	98.981301
3152.000000	98.982980
3151.000000	98.984910
3150.000000	98.986653
3149.000000	98.987978
3148.000000	98.989089
3147.000000	98.990366
3146.000000	98.991984
3145.000000	98.993858
3144.000000	98.995774
3143.000000	98.997436
3142.000000	98.998500
3141.000000	98.998826
3140.000000	98.998733
3139.000000	98.998887
3138.000000	98.999869
3137.000000	99.001882
3136.000000	99.004830
3135.000000	99.008445
3134.000000	99.012330
3133.000000	99.016019
3132.000000	99.019145
3131.000000	99.021645
3130.000000	99.023765
3129.000000	99.025721
3128.000000	99.027311
3127.000000	99.028088
3126.000000	99.028056
3125.000000	99.028055
3124.000000	99.029139
3123.000000	99.031593
3122.000000	99.034781
3121.000000	99.037802
3120.000000	99.040155
3119.000000	99.041734
3118.000000	99.042636
3117.000000	99.043257
3116.000000	99.044258
3115.000000	99.045962
3114.000000	99.047956
3113.000000	99.049626
3112.000000	99.050985
3111.000000	99.052597
3110.000000	99.054702
3109.000000	99.056828
3108.000000	99.058428
3107.000000	99.059521
3106.000000	99.060454
3105.000000	99.061337
3104.000000	99.062035
3103.000000	99.062659
3102.000000	99.063673
3101.000000	99.065399
3100.000000	99.067610
3099.000000	99.069675
3098.000000	99.071097
3097.000000	99.071813
3096.000000	99.072107
3095.000000	99.072421
3094.000000	99.073169
3093.000000	99.074582
3092.000000	99.076613
3091.000000	99.078967
3090.000000	99.081277
3089.000000	99.083271
3088.000000	99.084805
3087.000000	99.085900
3086.000000	99.086872
3085.000000	99.088239
3084.000000	99.090259
3083.000000	99.092549
3082.000000	99.094411
3081.000000	99.095596
3080.000000	99.096532
3079.000000	99.097660
3078.000000	99.098770
3077.000000	99.099243
3076.000000	99.098726
3075.000000	99.097451
3074.000000	99.096105
3073.000000	99.095512
3072.000000	99.096271
3071.000000	99.098418
3070.000000	99.101366
3069.000000	99.104350
3068.000000	99.106936
3067.000000	99.109022
3066.000000	99.110577
3065.000000	99.111584
3064.000000	99.112159
3063.000000	99.112510
3062.000000	99.112756
3061.000000	99.112943
3060.000000	99.113259
3059.000000	99.114047
3058.000000	99.115447
3057.000000	99.117148
3056.000000	99.118670
3055.000000	99.119913
3054.000000	99.121249
3053.000000	99.122989
3052.000000	99.124908
3051.000000	99.126451
3050.000000	99.127346
3049.000000	99.127822
3048.000000	99.128225
3047.000000	99.128627
3046.000000	99.128884
3045.000000	99.128956
3044.000000	99.128973
3043.000000	99.129014
3042.000000	99.129020
3041.000000	99.128902
3040.000000	99.128675
3039.000000	99.128486
3038.000000	99.128568
3037.000000	99.129113
3036.000000	99.130123
3035.000000	99.131358
3034.000000	99.132415
3033.000000	99.132916
3032.000000	99.132705
3031.000000	99.131954
3030.000000	99.131143
3029.000000	99.130765
3028.000000	99.130984
3027.000000	99.131599
3026.000000	99.132258
3025.000000	99.132704
3024.000000	99.132818
3023.000000	99.132564
3022.000000	99.132047
3021.000000	99.131536
3020.000000	99.131270
3019.000000	99.131278
3018.000000	99.131488
3017.000000	99.131911
3016.000000	99.132535
3015.000000	99.133025
3014.000000	99.132856
3013.000000	99.131913
3012.000000	99.130735
3011.000000	99.129936
3010.000000	99.129612
3009.000000	99.129505
3008.000000	99.129334
3007.000000	99.128635
3006.000000	99.126759
3005.000000	99.123677
3004.000000	99.120704
3003.000000	99.119678
3002.000000	99.121420
3001.000000	99.125246
3000.000000	99.129599
2999.000000	99.132968
2998.000000	99.134432
2997.000000	99.134059
2996.000000	99.133055
2995.000000	99.132911
2994.000000	99.133976
2993.000000	99.135132
2992.000000	99.134992
2991.000000	99.133194
2990.000000	99.130631
2989.000000	99.128820
2988.000000	99.128976
2987.000000	99.131180
2986.000000	99.134125
2985.000000	99.136041
2984.000000	99.136230
2983.000000	99.135504
2982.000000	99.134980
2981.000000	99.134710
2980.000000	99.133699
2979.000000	99.131167
2978.000000	99.127669
2977.000000	99.124978
2976.000000	99.124798
2975.000000	99.127391
2974.000000	99.131459
2973.000000	99.135464
2972.000000	99.139031
2971.000000	99.142967
2970.000000	99.148091
2969.000000	99.154438
2968.000000	99.161523
2967.000000	99.168765
2966.000000	99.175384
2965.000000	99.180307
2964.000000	99.182732
2963.000000	99.182912
2962.000000	99.182160
2961.000000	99.181811
2960.000000	99.182177
2959.000000	99.182640
2958.000000	99.182930
2957.000000	99.184153
2956.000000	99.188030
2955.000000	99.194800
2954.000000	99.202156
2953.000000	99.206949
2952.000000	99.208038
2951.000000	99.207179
2950.000000	99.207046
2949.000000	99.208691
2948.000000	99.211138
2947.000000	99.212922
2946.000000	99.213403
2945.000000	99.212670
2944.000000	99.210986
2943.000000	99.208948
2942.000000	99.207922
2941.000000	99.209560
2940.000000	99.214618
2939.000000	99.222555
2938.000000	99.232453
2937.000000	99.243878
2936.000000	99.256244
2935.000000	99.267513
2934.000000	99.274548
2933.000000	99.275615
2932.000000	99.272755
2931.000000	99.271113
2930.000000	99.274846
2929.000000	99.283169
2928.000000	99.290918
2927.000000	99.293803
2926.000000	99.292768
2925.000000	99.292473
2924.000000	99.295548
2923.000000	99.299789
2922.000000	99.301680
2921.000000	99.300820
2920.000000	99.299326
2919.000000	99.298114
2918.000000	99.296034
2917.000000	99.292608
2916.000000	99.289429
2915.000000	99.287887
2914.000000	99.286720
2913.000000	99.282926
2912.000000	99.274659
2911.000000	99.262805
2910.000000	99.250364
2909.000000	99.240696
2908.000000	99.235559
2907.000000	99.234155
2906.000000	99.233996
2905.000000	99.233053
2904.000000	99.231096
2903.000000	99.229072
2902.000000	99.227633
2901.000000	99.226592
2900.000000	99.225352
2899.000000	99.223517
2898.000000	99.221174
2897.000000	99.218745
2896.000000	99.216740
2895.000000	99.215851
2894.000000	99.217171
2893.000000	99.221494
2892.000000	99.227803
2891.000000	99.233068
2890.000000	99.234634
2889.000000	99.232711
2888.000000	99.229707
2887.000000	99.227357
2886.000000	99.225453
2885.000000	99.223278
2884.000000	99.221125
2883.000000	99.220019
2882.000000	99.220743
2881.000000	99.223325
2880.000000	99.226840
2879.000000	99.229709
2878.000000	99.230901
2877.000000	99.231072
2876.000000	99.231923
2875.000000	99.234485
2874.000000	99.238591
2873.000000	99.243582
2872.000000	99.248396
2871.000000	99.251153
2870.000000	99.250299
2869.000000	99.246791
2868.000000	99.243992
2867.000000	99.244435
2866.000000	99.247534
2865.000000	99.251042
2864.000000	99.253779
2863.000000	99.256117
2862.000000	99.258748
2861.000000	99.262262
2860.000000	99.267308
2859.000000	99.273848
2858.000000	99.280381
2857.000000	99.284900
2856.000000	99.286602
2855.000000	99.286251
2854.000000	99.285310
2853.000000	99.285151
2852.000000	99.286386
2851.000000	99.288069
2850.000000	99.288062
2849.000000	99.285007
2848.000000	99.279686
2847.000000	99.274050
2846.000000	99.269434
2845.000000	99.266391
2844.000000	99.265540
2843.000000	99.267277
2842.000000	99.270824
2841.000000	99.274584
2840.000000	99.277579
2839.000000	99.279805
2838.000000	99.281285
2837.000000	99.281630
2836.000000	99.280644
2835.000000	99.278675
2834.000000	99.276190
2833.000000	99.273577
2832.000000	99.271402
2831.000000	99.270186
2830.000000	99.269813
2829.000000	99.269635
2828.000000	99.269337
2827.000000	99.269212
2826.000000	99.269477
2825.000000	99.269824
2824.000000	99.269874
2823.000000	99.269691
2822.000000	99.269654
2821.000000	99.270083
2820.000000	99.271193
2819.000000	99.273213
2818.000000	99.276279
2817.000000	99.280159
2816.000000	99.284119
2815.000000	99.287097
2814.000000	99.288224
2813.000000	99.287361
2812.000000	99.285217
2811.000000	99.282932
2810.000000	99.281447
2809.000000	99.281135
2808.000000	99.281922
2807.000000	99.283532
2806.000000	99.285597
2805.000000	99.287700
2804.000000	99.289447
2803.000000	99.290604
2802.000000	99.291196
2801.000000	99.291417
2800.000000	99.291440
2799.000000	99.291378
2798.000000	99.291455
2797.000000	99.291982
2796.000000	99.292988
2795.000000	99.293981
2794.000000	99.294377
2793.000000	99.294132
2792.000000	99.293807
2791.000000	99.294015
2790.000000	99.294842
2789.000000	99.295921
2788.000000	99.296830
2787.000000	99.297431
2786.000000	99.297861
2785.000000	99.298343
2784.000000	99.298997
2783.000000	99.299764
2782.000000	99.300514
2781.000000	99.301193
2780.000000	99.301848
2779.000000	99.302541
2778.000000	99.303270
2777.000000	99.303994
2776.000000	99.304690
2775.000000	99.305337
2774.000000	99.305892
2773.000000	99.306313
2772.000000	99.306601
2771.000000	99.306787
2770.000000	99.306945
2769.000000	99.307259
2768.000000	99.307973
2767.000000	99.309155
2766.000000	99.310487
2765.000000	99.311472
2764.000000	99.311891
2763.000000	99.311920
2762.000000	99.311861
2761.000000	99.311837
2760.000000	99.311831
2759.000000	99.311859
2758.000000	99.312033
2757.000000	99.312509
2756.000000	99.313392
2755.000000	99.314563
2754.000000	99.315661
2753.000000	99.316406
2752.000000	99.316924
2751.000000	99.317578
2750.000000	99.318568
2749.000000	99.319897
2748.000000	99.321577
2747.000000	99.323466
2746.000000	99.324973
2745.000000	99.325406
2744.000000	99.324739
2743.000000	99.323741
2742.000000	99.323136
2741.000000	99.322893
2740.000000	99.322550
2739.000000	99.321948
2738.000000	99.321460
2737.000000	99.321630
2736.000000	99.322759
2735.000000	99.324732
2734.000000	99.327025
2733.000000	99.328917
2732.000000	99.329918
2731.000000	99.330055
2730.000000	99.329790
2729.000000	99.329651
2728.000000	99.329858
2727.000000	99.330284
2726.000000	99.330672
2725.000000	99.330878
2724.000000	99.330951
2723.000000	99.331017
2722.000000	99.331156
2721.000000	99.331350
2720.000000	99.331491
2719.000000	99.331459
2718.000000	99.331268
2717.000000	99.331142
2716.000000	99.331338
2715.000000	99.331848
2714.000000	99.332369
2713.000000	99.332630
2712.000000	99.332694
2711.000000	99.332908
2710.000000	99.333571
2709.000000	99.334673
2708.000000	99.335857
2707.000000	99.336616
2706.000000	99.336685
2705.000000	99.336195
2704.000000	99.335533
2703.000000	99.335002
2702.000000	99.334699
2701.000000	99.334693
2700.000000	99.335080
2699.000000	99.335789
2698.000000	99.336484
2697.000000	99.336852
2696.000000	99.336923
2695.000000	99.336960
2694.000000	99.337061
2693.000000	99.337046
2692.000000	99.336749
2691.000000	99.336291
2690.000000	99.335974
2689.000000	99.336015
2688.000000	99.336399
2687.000000	99.336877
2686.000000	99.337088
2685.000000	99.336859
2684.000000	99.336439
2683.000000	99.336333
2682.000000	99.336835
2681.000000	99.337837
2680.000000	99.339059
2679.000000	99.340191
2678.000000	99.340767
2677.000000	99.340231
2676.000000	99.338453
2675.000000	99.336145
2674.000000	99.334419
2673.000000	99.333763
2672.000000	99.333709
2671.000000	99.333481
2670.000000	99.332900
2669.000000	99.332460
2668.000000	99.332654
2667.000000	99.333501
2666.000000	99.334725
2665.000000	99.336102
2664.000000	99.337414
2663.000000	99.338291
2662.000000	99.338482
2661.000000	99.338154
2660.000000	99.337540
2659.000000	99.336361
2658.000000	99.334133
2657.000000	99.331231
2656.000000	99.329026
2655.000000	99.328509
2654.000000	99.329272
2653.000000	99.330247
2652.000000	99.331050
2651.000000	99.331870
2650.000000	99.332408
2649.000000	99.331928
2648.000000	99.330446
2647.000000	99.329077
2646.000000	99.328908
2645.000000	99.329962
2644.000000	99.331442
2643.000000	99.332650
2642.000000	99.333612
2641.000000	99.335057
2640.000000	99.337702
2639.000000	99.341269
2638.000000	99.344514
2637.000000	99.346639
2636.000000	99.348149
2635.000000	99.349654
2634.000000	99.350388
2633.000000	99.349023
2632.000000	99.345720
2631.000000	99.342226
2630.000000	99.339823
2629.000000	99.338200
2628.000000	99.336737
2627.000000	99.335813
2626.000000	99.336109
2625.000000	99.337295
2624.000000	99.338207
2623.000000	99.338013
2622.000000	99.336694
2621.000000	99.334548
2620.000000	99.331813
2619.000000	99.328877
2618.000000	99.326492
2617.000000	99.325454
2616.000000	99.325987
2615.000000	99.327556
2614.000000	99.329425
2613.000000	99.331363
2612.000000	99.333494
2611.000000	99.335578
2610.000000	99.336990
2609.000000	99.337524
2608.000000	99.337670
2607.000000	99.337790
2606.000000	99.337512
2605.000000	99.336421
2604.000000	99.334946
2603.000000	99.333980
2602.000000	99.333841
2601.000000	99.334091
2600.000000	99.334208
2599.000000	99.334013
2598.000000	99.333577
2597.000000	99.333154
2596.000000	99.333122
2595.000000	99.333605
2594.000000	99.334213
2593.000000	99.334416
2592.000000	99.334149
2591.000000	99.333794
2590.000000	99.333695
2589.000000	99.333805
2588.000000	99.333856
2587.000000	99.333714
2586.000000	99.333504
2585.000000	99.333455
2584.000000	99.333703
2583.000000	99.334214
2582.000000	99.334771
2581.000000	99.335101
2580.000000	99.335113
2579.000000	99.334985
2578.000000	99.334969
2577.000000	99.335104
2576.000000	99.335227
2575.000000	99.335231
2574.000000	99.335226
2573.000000	99.335362
2572.000000	99.335610
2571.000000	99.335838
2570.000000	99.336038
2569.000000	99.336336
2568.000000	99.336755
2567.000000	99.337130
2566.000000	99.337334
2565.000000	99.337419
2564.000000	99.337465
2563.000000	99.337390
2562.000000	99.337062
2561.000000	99.336511
2560.000000	99.335965
2559.000000	99.335676
2558.000000	99.335746
2557.000000	99.336123
2556.000000	99.336654
2555.000000	99.337184
2554.000000	99.337631
2553.000000	99.337985
2552.000000	99.338242
2551.000000	99.338383
2550.000000	99.338452
2549.000000	99.338568
2548.000000	99.338804
2547.000000	99.339073
2546.000000	99.339234
2545.000000	99.339277
2544.000000	99.339323
2543.000000	99.339447
2542.000000	99.339614
2541.000000	99.339785
2540.000000	99.339973
2539.000000	99.340136
2538.000000	99.340139
2537.000000	99.339927
2536.000000	99.339710
2535.000000	99.339824
2534.000000	99.340367
2533.000000	99.341157
2532.000000	99.341895
2531.000000	99.342431
2530.000000	99.342780
2529.000000	99.342998
2528.000000	99.343149
2527.000000	99.343318
2526.000000	99.343589
2525.000000	99.344000
2524.000000	99.344502
2523.000000	99.344990
2522.000000	99.345380
2521.000000	99.345678
2520.000000	99.345960
2519.000000	99.346263
2518.000000	99.346517
2517.000000	99.346641
2516.000000	99.346679
2515.000000	99.346784
2514.000000	99.347053
2513.000000	99.347456
2512.000000	99.347934
2511.000000	99.348504
2510.000000	99.349144
2509.000000	99.349663
2508.000000	99.349856
2507.000000	99.349753
2506.000000	99.349618
2505.000000	99.349661
2504.000000	99.349864
2503.000000	99.350091
2502.000000	99.350251
2501.000000	99.350313
2500.000000	99.350273
2499.000000	99.350215
2498.000000	99.350342
2497.000000	99.350856
2496.000000	99.351752
2495.000000	99.352737
2494.000000	99.353409
2493.000000	99.353572
2492.000000	99.353361
2491.000000	99.353154
2490.000000	99.353265
2489.000000	99.353648
2488.000000	99.353946
2487.000000	99.353844
2486.000000	99.353345
2485.000000	99.352678
2484.000000	99.351979
2483.000000	99.351188
2482.000000	99.350334
2481.000000	99.349755
2480.000000	99.349837
2479.000000	99.350548
2478.000000	99.351413
2477.000000	99.352015
2476.000000	99.352343
2475.000000	99.352548
2474.000000	99.352613
2473.000000	99.352451
2472.000000	99.352258
2471.000000	99.352496
2470.000000	99.353455
2469.000000	99.354936
2468.000000	99.356293
2467.000000	99.356938
2466.000000	99.356803
2465.000000	99.356348
2464.000000	99.356190
2463.000000	99.356506
2462.000000	99.356974
2461.000000	99.357243
2460.000000	99.357331
2459.000000	99.357468
2458.000000	99.357725
2457.000000	99.357975
2456.000000	99.358148
2455.000000	99.358334
2454.000000	99.358629
2453.000000	99.359040
2452.000000	99.359570
2451.000000	99.360248
2450.000000	99.361032
2449.000000	99.361784
2448.000000	99.362398
2447.000000	99.362856
2446.000000	99.363169
2445.000000	99.363364
2444.000000	99.363554
2443.000000	99.363907
2442.000000	99.364439
2441.000000	99.364946
2440.000000	99.365217
2439.000000	99.365241
2438.000000	99.365205
2437.000000	99.365365
2436.000000	99.365909
2435.000000	99.366749
2434.000000	99.367397
2433.000000	99.367302
2432.000000	99.366407
2431.000000	99.365326
2430.000000	99.364790
2429.000000	99.364967
2428.000000	99.365444
2427.000000	99.365659
2426.000000	99.365345
2425.000000	99.364716
2424.000000	99.364368
2423.000000	99.364835
2422.000000	99.366144
2421.000000	99.367838
2420.000000	99.369361
2419.000000	99.370392
2418.000000	99.370839
2417.000000	99.370743
2416.000000	99.370364
2415.000000	99.370013
2414.000000	99.369728
2413.000000	99.369375
2412.000000	99.369094
2411.000000	99.369312
2410.000000	99.370112
2409.000000	99.370878
2408.000000	99.370913
2407.000000	99.370204
2406.000000	99.369311
2405.000000	99.368636
2404.000000	99.368092
2403.000000	99.367430
2402.000000	99.366575
2401.000000	99.365562
2400.000000	99.364410
2399.000000	99.363214
2398.000000	99.362306
2397.000000	99.362101
2396.000000	99.362671
2395.000000	99.363503
2394.000000	99.363781
2393.000000	99.363129
2392.000000	99.361883
2391.000000	99.360676
2390.000000	99.359812
2389.000000	99.359051
2388.000000	99.358001
2387.000000	99.356600
2386.000000	99.355226
2385.000000	99.354340
2384.000000	99.354066
2383.000000	99.354087
2382.000000	99.353988
2381.000000	99.353682
2380.000000	99.353363
2379.000000	99.353041
2378.000000	99.352318
2377.000000	99.350859
2376.000000	99.348915
2375.000000	99.347197
2374.000000	99.346158
2373.000000	99.345634
2372.000000	99.345239
2371.000000	99.344876
2370.000000	99.344660
2369.000000	99.344565
2368.000000	99.344404
2367.000000	99.344049
2366.000000	99.343520
2365.000000	99.342899
2364.000000	99.342267
2363.000000	99.341667
2362.000000	99.341062
2361.000000	99.340410
2360.000000	99.339737
2359.000000	99.339100
2358.000000	99.338494
2357.000000	99.337931
2356.000000	99.337594
2355.000000	99.337641
2354.000000	99.337947
2353.000000	99.338179
2352.000000	99.338135
2351.000000	99.337888
2350.000000	99.337589
2349.000000	99.337359
2348.000000	99.337256
2347.000000	99.337293
2346.000000	99.337428
2345.000000	99.337545
2344.000000	99.337549
2343.000000	99.337443
2342.000000	99.337316
2341.000000	99.337261
2340.000000	99.337288
2339.000000	99.337337
2338.000000	99.337336
2337.000000	99.337265
2336.000000	99.337192
2335.000000	99.337251
2334.000000	99.337523
2333.000000	99.337943
2332.000000	99.338324
2331.000000	99.338547
2330.000000	99.338658
2329.000000	99.338811
2328.000000	99.339112
2327.000000	99.339523
2326.000000	99.339920
2325.000000	99.340196
2324.000000	99.340345
2323.000000	99.340422
2322.000000	99.340459
2321.000000	99.340408
2320.000000	99.340188
2319.000000	99.339895
2318.000000	99.339854
2317.000000	99.340415
2316.000000	99.341612
2315.000000	99.343082
2314.000000	99.344320
2313.000000	99.345106
2312.000000	99.345582
2311.000000	99.346035
2310.000000	99.346578
2309.000000	99.347111
2308.000000	99.347540
2307.000000	99.347808
2306.000000	99.347803
2305.000000	99.347431
2304.000000	99.346788
2303.000000	99.346077
2302.000000	99.345424
2301.000000	99.344962
2300.000000	99.345019
2299.000000	99.345937
2298.000000	99.347616
2297.000000	99.349395
2296.000000	99.350580
2295.000000	99.350949
2294.000000	99.350715
2293.000000	99.350211
2292.000000	99.349818
2291.000000	99.349875
2290.000000	99.350375
2289.000000	99.350801
2288.000000	99.350606
2287.000000	99.349779
2286.000000	99.348785
2285.000000	99.348104
2284.000000	99.347924
2283.000000	99.348188
2282.000000	99.348710
2281.000000	99.349282
2280.000000	99.349801
2279.000000	99.350259
2278.000000	99.350554
2277.000000	99.350476
2276.000000	99.349977
2275.000000	99.349262
2274.000000	99.348460
2273.000000	99.347377
2272.000000	99.345782
2271.000000	99.343896
2270.000000	99.342388
2269.000000	99.341815
2268.000000	99.342251
2267.000000	99.343319
2266.000000	99.344413
2265.000000	99.345040
2264.000000	99.345130
2263.000000	99.344994
2262.000000	99.344871
2261.000000	99.344561
2260.000000	99.343732
2259.000000	99.342437
2258.000000	99.341036
2257.000000	99.339671
2256.000000	99.338200
2255.000000	99.336737
2254.000000	99.335850
2253.000000	99.335958
2252.000000	99.336755
2251.000000	99.337479
2250.000000	99.337723
2249.000000	99.337676
2248.000000	99.337532
2247.000000	99.336986
2246.000000	99.335571
2245.000000	99.333379
2244.000000	99.331293
2243.000000	99.330269
2242.000000	99.330505
2241.000000	99.331409
2240.000000	99.332147
2239.000000	99.332305
2238.000000	99.331905
2237.000000	99.331142
2236.000000	99.330304
2235.000000	99.329732
2234.000000	99.329599
2233.000000	99.329767
2232.000000	99.330042
2231.000000	99.330479
2230.000000	99.331217
2229.000000	99.332072
2228.000000	99.332600
2227.000000	99.332625
2226.000000	99.332411
2225.000000	99.332267
2224.000000	99.332183
2223.000000	99.332019
2222.000000	99.331834
2221.000000	99.331779
2220.000000	99.331812
2219.000000	99.331741
2218.000000	99.331526
2217.000000	99.331358
2216.000000	99.331417
2215.000000	99.331702
2214.000000	99.332128
2213.000000	99.332669
2212.000000	99.333339
2211.000000	99.334088
2210.000000	99.334756
2209.000000	99.335148
2208.000000	99.335186
2207.000000	99.335035
2206.000000	99.334985
2205.000000	99.335121
2204.000000	99.335236
2203.000000	99.335217
2202.000000	99.335360
2201.000000	99.336040
2200.000000	99.337132
2199.000000	99.338021
2198.000000	99.338322
2197.000000	99.338186
2196.000000	99.337938
2195.000000	99.337641
2194.000000	99.337178
2193.000000	99.336643
2192.000000	99.336405
2191.000000	99.336734
2190.000000	99.337451
2189.000000	99.338027
2188.000000	99.338126
2187.000000	99.338042
2186.000000	99.338448
2185.000000	99.339621
2184.000000	99.341073
2183.000000	99.342134
2182.000000	99.342736
2181.000000	99.343279
2180.000000	99.343791
2179.000000	99.343718
2178.000000	99.342713
2177.000000	99.341176
2176.000000	99.339903
2175.000000	99.339329
2174.000000	99.339385
2173.000000	99.339838
2172.000000	99.340481
2171.000000	99.341092
2170.000000	99.341430
2169.000000	99.341374
2168.000000	99.341006
2167.000000	99.340553
2166.000000	99.340196
2165.000000	99.339876
2164.000000	99.339343
2163.000000	99.338552
2162.000000	99.337954
2161.000000	99.338138
2160.000000	99.339176
2159.000000	99.340520
2158.000000	99.341555
2157.000000	99.342145
2156.000000	99.342472
2155.000000	99.342638
2154.000000	99.342640
2153.000000	99.342560
2152.000000	99.342544
2151.000000	99.342627
2150.000000	99.342743
2149.000000	99.342853
2148.000000	99.342974
2147.000000	99.343105
2146.000000	99.343234
2145.000000	99.343390
2144.000000	99.343597
2143.000000	99.343821
2142.000000	99.344020
2141.000000	99.344223
2140.000000	99.344503
2139.000000	99.344867
2138.000000	99.345246
2137.000000	99.345573
2136.000000	99.345853
2135.000000	99.346142
2134.000000	99.346493
2133.000000	99.346906
2132.000000	99.347318
2131.000000	99.347681
2130.000000	99.348003
2129.000000	99.348340
2128.000000	99.348730
2127.000000	99.349168
2126.000000	99.349611
2125.000000	99.350020
2124.000000	99.350382
2123.000000	99.350712
2122.000000	99.351050
2121.000000	99.351439
2120.000000	99.351886
2119.000000	99.352354
2118.000000	99.352789
2117.000000	99.353192
2116.000000	99.353623
2115.000000	99.354118
2114.000000	99.354624
2113.000000	99.355044
2112.000000	99.355301
2111.000000	99.355367
2110.000000	99.355335
2109.000000	99.355432
2108.000000	99.355839
2107.000000	99.356499
2106.000000	99.357202
2105.000000	99.357905
2104.000000	99.358782
2103.000000	99.359859
2102.000000	99.360809
2101.000000	99.361293
2100.000000	99.361306
2099.000000	99.361052
2098.000000	99.360646
2097.000000	99.360141
2096.000000	99.359740
2095.000000	99.359756
2094.000000	99.360361
2093.000000	99.361427
2092.000000	99.362566
2091.000000	99.363335
2090.000000	99.363498
2089.000000	99.363193
2088.000000	99.362807
2087.000000	99.362627
2086.000000	99.362729
2085.000000	99.363154
2084.000000	99.363875
2083.000000	99.364533
2082.000000	99.364527
2081.000000	99.363653
2080.000000	99.362456
2079.000000	99.361705
2078.000000	99.361712
2077.000000	99.362382
2076.000000	99.363663
2075.000000	99.365545
2074.000000	99.367727
2073.000000	99.369643
2072.000000	99.370811
2071.000000	99.371032
2070.000000	99.370400
2069.000000	99.369393
2068.000000	99.368713
2067.000000	99.368653
2066.000000	99.368703
2065.000000	99.368141
2064.000000	99.366994
2063.000000	99.366074
2062.000000	99.366030
2061.000000	99.366669
2060.000000	99.367263
2059.000000	99.367338
2058.000000	99.367099
2057.000000	99.367182
2056.000000	99.368041
2055.000000	99.369537
2054.000000	99.371116
2053.000000	99.372278
2052.000000	99.372672
2051.000000	99.371881
2050.000000	99.369656
2049.000000	99.366619
2048.000000	99.364230
2047.000000	99.363473
2046.000000	99.363898
2045.000000	99.364333
2044.000000	99.364290
2043.000000	99.364149
2042.000000	99.364048
2041.000000	99.363324
2040.000000	99.361292
2039.000000	99.358166
2038.000000	99.354982
2037.000000	99.352779
2036.000000	99.351941
2035.000000	99.352128
2034.000000	99.352560
2033.000000	99.352568
2032.000000	99.352030
2031.000000	99.351281
2030.000000	99.350669
2029.000000	99.350251
2028.000000	99.349876
2027.000000	99.349404
2026.000000	99.348841
2025.000000	99.348341
2024.000000	99.348051
2023.000000	99.347899
2022.000000	99.347602
2021.000000	99.346999
2020.000000	99.346291
2019.000000	99.345818
2018.000000	99.345688
2017.000000	99.345706
2016.000000	99.345561
2015.000000	99.344953
2014.000000	99.343690
2013.000000	99.341873
2012.000000	99.339991
2011.000000	99.338611
2010.000000	99.337891
2009.000000	99.337587
2008.000000	99.337348
2007.000000	99.336969
2006.000000	99.336409
2005.000000	99.335715
2004.000000	99.335000
2003.000000	99.334398
2002.000000	99.333961
2001.000000	99.333628
2000.000000	99.333301
1999.000000	99.332925
1998.000000	99.332497
1997.000000	99.332055
1996.000000	99.331668
1995.000000	99.331392
1994.000000	99.331202
1993.000000	99.330988
1992.000000	99.330660
1991.000000	99.330258
1990.000000	99.329918
1989.000000	99.329704
1988.000000	99.329524
1987.000000	99.329232
1986.000000	99.328777
1985.000000	99.328254
1984.000000	99.327827
1983.000000	99.327598
1982.000000	99.327547
1981.000000	99.327553
1980.000000	99.327474
1979.000000	99.327236
1978.000000	99.326869
1977.000000	99.326460
1976.000000	99.326041
1975.000000	99.325585
1974.000000	99.325171
1973.000000	99.325051
1972.000000	99.325423
1971.000000	99.326146
1970.000000	99.326740
1969.000000	99.326812
1968.000000	99.326412
1967.000000	99.326014
1966.000000	99.326070
1965.000000	99.326581
1964.000000	99.327108
1963.000000	99.327143
1962.000000	99.326543
1961.000000	99.325697
1960.000000	99.325233
1959.000000	99.325449
1958.000000	99.326087
1957.000000	99.326706
1956.000000	99.327156
1955.000000	99.327505
1954.000000	99.327582
1953.000000	99.326950
1952.000000	99.325460
1951.000000	99.323631
1950.000000	99.322234
1949.000000	99.321503
1948.000000	99.320884
1947.000000	99.319631
1946.000000	99.317671
1945.000000	99.315799
1944.000000	99.314954
1943.000000	99.315352
1942.000000	99.316399
1941.000000	99.317490
1940.000000	99.318572
1939.000000	99.319687
1938.000000	99.320442
1937.000000	99.320243
1936.000000	99.318894
1935.000000	99.316751
1934.000000	99.314362
1933.000000	99.312187
1932.000000	99.310563
1931.000000	99.309636
1930.000000	99.309209
1929.000000	99.308855
1928.000000	99.308152
1927.000000	99.306814
1926.000000	99.304814
1925.000000	99.302622
1924.000000	99.301140
1923.000000	99.300923
1922.000000	99.301436
1921.000000	99.301486
1920.000000	99.300386
1919.000000	99.298400
1918.000000	99.296260
1917.000000	99.294403
1916.000000	99.292642
1915.000000	99.290517
1914.000000	99.287857
1913.000000	99.284992
1912.000000	99.282446
1911.000000	99.280413
1910.000000	99.278647
1909.000000	99.276904
1908.000000	99.275312
1907.000000	99.274180
1906.000000	99.273523
1905.000000	99.272909
1904.000000	99.271681
1903.000000	99.269301
1902.000000	99.265882
1901.000000	99.262617
1900.000000	99.261077
1899.000000	99.261759
1898.000000	99.263501
1897.000000	99.264458
1896.000000	99.263738
1895.000000	99.261663
1894.000000	99.258988
1893.000000	99.256451
1892.000000	99.254806
1891.000000	99.254469
1890.000000	99.254841
1889.000000	99.254643
1888.000000	99.253328
1887.000000	99.251313
1886.000000	99.248939
1885.000000	99.246412
1884.000000	99.244600
1883.000000	99.244595
1882.000000	99.246018
1881.000000	99.246699
1880.000000	99.244878
1879.000000	99.241308
1878.000000	99.238402
1877.000000	99.237570
1876.000000	99.238252
1875.000000	99.239151
1874.000000	99.239395
1873.000000	99.238644
1872.000000	99.237091
1871.000000	99.235667
1870.000000	99.235621
1869.000000	99.237225
1868.000000	99.239334
1867.000000	99.240703
1866.000000	99.241004
1865.000000	99.240585
1864.000000	99.240172
1863.000000	99.240752
1862.000000	99.243114
1861.000000	99.247207
1860.000000	99.252229
1859.000000	99.257554
1858.000000	99.263139
1857.000000	99.268649
1856.000000	99.272845
1855.000000	99.274589
1854.000000	99.274298
1853.000000	99.273827
1852.000000	99.274463
1851.000000	99.275801
1850.000000	99.277093
1849.000000	99.278612
1848.000000	99.281063
1847.000000	99.284071
1846.000000	99.286235
1845.000000	99.286533
1844.000000	99.285584
1843.000000	99.285342
1842.000000	99.286856
1841.000000	99.289253
1840.000000	99.290997
1839.000000	99.291125
1838.000000	99.289783
1837.000000	99.288278
1836.000000	99.287968
1835.000000	99.288727
1834.000000	99.289335
1833.000000	99.289250
1832.000000	99.289044
1831.000000	99.289085
1830.000000	99.288427
1829.000000	99.286311
1828.000000	99.283977
1827.000000	99.283129
1826.000000	99.283855
1825.000000	99.284819
1824.000000	99.285079
1823.000000	99.285062
1822.000000	99.285293
1821.000000	99.285571
1820.000000	99.285637
1819.000000	99.285554
1818.000000	99.285178
1817.000000	99.284102
1816.000000	99.282590
1815.000000	99.281682
1814.000000	99.282051
1813.000000	99.283261
1812.000000	99.284390
1811.000000	99.284976
1810.000000	99.285026
1809.000000	99.284662
1808.000000	99.284190
1807.000000	99.284099
1806.000000	99.284687
1805.000000	99.285853
1804.000000	99.287362
1803.000000	99.289030
1802.000000	99.290529
1801.000000	99.291322
1800.000000	99.291229
1799.000000	99.290799
1798.000000	99.290686
1797.000000	99.291012
1796.000000	99.291593
1795.000000	99.292419
1794.000000	99.293650
1793.000000	99.295009
1792.000000	99.295645
1791.000000	99.295252
1790.000000	99.294601
1789.000000	99.294593
1788.000000	99.295440
1787.000000	99.296823
1786.000000	99.298280
1785.000000	99.299600
1784.000000	99.300946
1783.000000	99.302598
1782.000000	99.304665
1781.000000	99.306796
1780.000000	99.308166
1779.000000	99.308213
1778.000000	99.307210
1777.000000	99.306016
1776.000000	99.305370
1775.000000	99.305625
1774.000000	99.307016
1773.000000	99.309312
1772.000000	99.311247
1771.000000	99.312034
1770.000000	99.312602
1769.000000	99.314240
1768.000000	99.317223
1767.000000	99.320493
1766.000000	99.322731
1765.000000	99.323825
1764.000000	99.324964
1763.000000	99.327513
1762.000000	99.331184
1761.000000	99.333878
1760.000000	99.334475
1759.000000	99.334252
1758.000000	99.335249
1757.000000	99.337951
1756.000000	99.340495
1755.000000	99.341296
1754.000000	99.341133
1753.000000	99.341892
1752.000000	99.344320
1751.000000	99.347042
1750.000000	99.348583
1749.000000	99.349548
1748.000000	99.351302
1747.000000	99.354035
1746.000000	99.357101
1745.000000	99.359615
1744.000000	99.360607
1743.000000	99.359624
1742.000000	99.357474
1741.000000	99.355809
1740.000000	99.355411
1739.000000	99.355016
1738.000000	99.352899
1737.000000	99.348871
1736.000000	99.344725
1735.000000	99.343094
1734.000000	99.343784
1733.000000	99.344131
1732.000000	99.343414
1731.000000	99.342470
1730.000000	99.342065
1729.000000	99.342783
1728.000000	99.344263
1727.000000	99.345596
1726.000000	99.346130
1725.000000	99.346017
1724.000000	99.345981
1723.000000	99.346286
1722.000000	99.345863
1721.000000	99.343462
1720.000000	99.339370
1719.000000	99.335766
1718.000000	99.334226
1717.000000	99.333616
1716.000000	99.333003
1715.000000	99.333203
1714.000000	99.334316
1713.000000	99.335162
1712.000000	99.334736
1711.000000	99.333241
1710.000000	99.331838
1709.000000	99.331404
1708.000000	99.331422
1707.000000	99.330268
1706.000000	99.326546
1705.000000	99.320609
1704.000000	99.314770
1703.000000	99.310502
1702.000000	99.308053
1701.000000	99.306637
1700.000000	99.304154
1699.000000	99.300659
1698.000000	99.297594
1697.000000	99.295090
1696.000000	99.292802
1695.000000	99.290555
1694.000000	99.288524
1693.000000	99.286817
1692.000000	99.285311
1691.000000	99.283923
1690.000000	99.282339
1689.000000	99.280302
1688.000000	99.278106
1687.000000	99.276396
1686.000000	99.275812
1685.000000	99.276007
1684.000000	99.274987
1683.000000	99.272261
1682.000000	99.269432
1681.000000	99.267210
1680.000000	99.265350
1679.000000	99.263665
1678.000000	99.262055
1677.000000	99.260557
1676.000000	99.259101
1675.000000	99.257529
1674.000000	99.255917
1673.000000	99.254466
1672.000000	99.253157
1671.000000	99.251866
1670.000000	99.250438
1669.000000	99.248850
1668.000000	99.247269
1667.000000	99.245761
1666.000000	99.244204
1665.000000	99.242505
1664.000000	99.240777
1663.000000	99.239267
1662.000000	99.238134
1661.000000	99.237312
1660.000000	99.236515
1659.000000	99.235582
1658.000000	99.234549
1657.000000	99.233604
1656.000000	99.232955
1655.000000	99.233226
1654.000000	99.234828
1653.000000	99.235366
1652.000000	99.233277
1651.000000	99.230519
1650.000000	99.228305
1649.000000	99.226456
1648.000000	99.225197
1647.000000	99.224012
1646.000000	99.222343
1645.000000	99.220714
1644.000000	99.219979
1643.000000	99.219688
1642.000000	99.218954
1641.000000	99.217546
1640.000000	99.216204
1639.000000	99.215842
1638.000000	99.216641
1637.000000	99.217920
1636.000000	99.218082
1635.000000	99.216448
1634.000000	99.214931
1633.000000	99.215048
1632.000000	99.216604
1631.000000	99.218964
1630.000000	99.221179
1629.000000	99.222211
1628.000000	99.221752
1627.000000	99.220667
1626.000000	99.220050
1625.000000	99.220279
1624.000000	99.221282
1623.000000	99.223014
1622.000000	99.225465
1621.000000	99.228273
1620.000000	99.230669
1619.000000	99.232347
1618.000000	99.233627
1617.000000	99.234103
1616.000000	99.233080
1615.000000	99.231808
1614.000000	99.232110
1613.000000	99.234099
1612.000000	99.236727
1611.000000	99.238891
1610.000000	99.240856
1609.000000	99.243978
1608.000000	99.248450
1607.000000	99.252853
1606.000000	99.255949
1605.000000	99.257959
1604.000000	99.259729
1603.000000	99.261990
1602.000000	99.265219
1601.000000	99.269306
1600.000000	99.273332
1599.000000	99.276345
1598.000000	99.278459
1597.000000	99.280765
1596.000000	99.284198
1595.000000	99.288763
1594.000000	99.293738
1593.000000	99.298278
1592.000000	99.301763
1591.000000	99.304132
1590.000000	99.306139
1589.000000	99.308812
1588.000000	99.312217
1587.000000	99.315287
1586.000000	99.317206
1585.000000	99.318478
1584.000000	99.320128
1583.000000	99.322436
1582.000000	99.324968
1581.000000	99.327161
1580.000000	99.328601
1579.000000	99.329161
1578.000000	99.329345
1577.000000	99.330012
1576.000000	99.331348
1575.000000	99.333105
1574.000000	99.335474
1573.000000	99.338528
1572.000000	99.342146
1571.000000	99.346162
1570.000000	99.349584
1569.000000	99.351533
1568.000000	99.352699
1567.000000	99.354530
1566.000000	99.357735
1565.000000	99.361801
1564.000000	99.364763
1563.000000	99.364774
1562.000000	99.361615
1561.000000	99.356964
1560.000000	99.353722
1559.000000	99.352910
1558.000000	99.353893
1557.000000	99.357058
1556.000000	99.361769
1555.000000	99.366225
1554.000000	99.369653
1553.000000	99.371635
1552.000000	99.372622
1551.000000	99.372902
1550.000000	99.372438
1549.000000	99.371134
1548.000000	99.369363
1547.000000	99.367721
1546.000000	99.367008
1545.000000	99.367969
1544.000000	99.370362
1543.000000	99.372540
1542.000000	99.372619
1541.000000	99.370085
1540.000000	99.366800
1539.000000	99.365350
1538.000000	99.365733
1537.000000	99.366079
1536.000000	99.365518
1535.000000	99.364767
1534.000000	99.364297
1533.000000	99.363135
1532.000000	99.360817
1531.000000	99.358549
1530.000000	99.357289
1529.000000	99.356966
1528.000000	99.356699
1527.000000	99.355438
1526.000000	99.353035
1525.000000	99.350431
1524.000000	99.348550
1523.000000	99.347646
1522.000000	99.347119
1521.000000	99.345979
1520.000000	99.344480
1519.000000	99.343434
1518.000000	99.342684
1517.000000	99.341693
1516.000000	99.340617
1515.000000	99.340343
1514.000000	99.341230
1513.000000	99.342457
1512.000000	99.342715
1511.000000	99.341242
1510.000000	99.338276
1509.000000	99.334671
1508.000000	99.331639
1507.000000	99.330186
1506.000000	99.330422
1505.000000	99.331986
1504.000000	99.333784
1503.000000	99.334472
1502.000000	99.333901
1501.000000	99.332812
1500.000000	99.332059
1499.000000	99.331882
1498.000000	99.332040
1497.000000	99.332236
1496.000000	99.332619
1495.000000	99.333493
1494.000000	99.334642
1493.000000	99.335613
1492.000000	99.336206
1491.000000	99.336255
1490.000000	99.335604
1489.000000	99.334936
1488.000000	99.335499
1487.000000	99.337288
1486.000000	99.338936
1485.000000	99.339630
1484.000000	99.339492
1483.000000	99.338747
1482.000000	99.337472
1481.000000	99.336057
1480.000000	99.335307
1479.000000	99.335490
1478.000000	99.336092
1477.000000	99.336766
1476.000000	99.338276
1475.000000	99.341636
1474.000000	99.346387
1473.000000	99.349989
1472.000000	99.350637
1471.000000	99.350149
1470.000000	99.350741
1469.000000	99.352146
1468.000000	99.353369
1467.000000	99.354185
1466.000000	99.354893
1465.000000	99.355342
1464.000000	99.354887
1463.000000	99.353508
1462.000000	99.351443
1461.000000	99.348678
1460.000000	99.345566
1459.000000	99.343358
1458.000000	99.343408
1457.000000	99.344454
1456.000000	99.344326
1455.000000	99.343646
1454.000000	99.343599
1453.000000	99.344282
1452.000000	99.345530
1451.000000	99.346511
1450.000000	99.345824
1449.000000	99.342228
1448.000000	99.336146
1447.000000	99.330027
1446.000000	99.326156
1445.000000	99.324575
1444.000000	99.323969
1443.000000	99.323664
1442.000000	99.323853
1441.000000	99.324438
1440.000000	99.324541
1439.000000	99.323784
1438.000000	99.323410
1437.000000	99.325010
1436.000000	99.327886
1435.000000	99.329683
1434.000000	99.329293
1433.000000	99.327157
1432.000000	99.324257
1431.000000	99.321145
1430.000000	99.317787
1429.000000	99.314466
1428.000000	99.312140
1427.000000	99.311379
1426.000000	99.311981
1425.000000	99.313759
1424.000000	99.316499
1423.000000	99.319495
1422.000000	99.321612
1421.000000	99.322042
1420.000000	99.320595
1419.000000	99.317739
1418.000000	99.314720
1417.000000	99.312502
1416.000000	99.311282
1415.000000	99.311326
1414.000000	99.312981
1413.000000	99.316000
1412.000000	99.319551
1411.000000	99.322717
1410.000000	99.324881
1409.000000	99.325962
1408.000000	99.326651
1407.000000	99.327917
1406.000000	99.330021
1405.000000	99.332117
1404.000000	99.333213
1403.000000	99.333668
1402.000000	99.334786
1401.000000	99.337339
1400.000000	99.340754
1399.000000	99.343321
1398.000000	99.344040
1397.000000	99.343884
1396.000000	99.344645
1395.000000	99.346955
1394.000000	99.349800
1393.000000	99.352101
1392.000000	99.354079
1391.000000	99.356545
1390.000000	99.359466
1389.000000	99.361553
1388.000000	99.361395
1387.000000	99.359149
1386.000000	99.356761
1385.000000	99.355923
1384.000000	99.356674
1383.000000	99.358165
1382.000000	99.359529
1381.000000	99.360342
1380.000000	99.360803
1379.000000	99.361451
1378.000000	99.362599
1377.000000	99.363980
1376.000000	99.364991
1375.000000	99.365230
1374.000000	99.364879
1373.000000	99.364600
1372.000000	99.364911
1371.000000	99.365831
1370.000000	99.367020
1369.000000	99.368028
1368.000000	99.368554
1367.000000	99.368762
1366.000000	99.369171
1365.000000	99.370076
1364.000000	99.371116
1363.000000	99.371471
1362.000000	99.370753
1361.000000	99.369557
1360.000000	99.368795
1359.000000	99.368726
1358.000000	99.368970
1357.000000	99.369013
1356.000000	99.368648
1355.000000	99.368095
1354.000000	99.367761
1353.000000	99.367870
1352.000000	99.368394
1351.000000	99.369262
1350.000000	99.370467
1349.000000	99.371836
1348.000000	99.372759
1347.000000	99.372592
1346.000000	99.371338
1345.000000	99.369755
1344.000000	99.368619
1343.000000	99.368112
1342.000000	99.368143
1341.000000	99.368744
1340.000000	99.369679
1339.000000	99.370212
1338.000000	99.370031
1337.000000	99.369810
1336.000000	99.370081
1335.000000	99.370212
1334.000000	99.369403
1333.000000	99.368324
1332.000000	99.368726
1331.000000	99.371154
1330.000000	99.373872
1329.000000	99.374554
1328.000000	99.372477
1327.000000	99.368829
1326.000000	99.365565
1325.000000	99.364043
1324.000000	99.364054
1323.000000	99.363959
1322.000000	99.362358
1321.000000	99.359947
1320.000000	99.359123
1319.000000	99.361418
1318.000000	99.365920
1317.000000	99.370656
1316.000000	99.374562
1315.000000	99.377262
1314.000000	99.377990
1313.000000	99.376149
1312.000000	99.372563
1311.000000	99.369058
1310.000000	99.366833
1309.000000	99.366071
1308.000000	99.366775
1307.000000	99.368817
1306.000000	99.371182
1305.000000	99.372360
1304.000000	99.371811
1303.000000	99.370462
1302.000000	99.369456
1301.000000	99.369063
1300.000000	99.369179
1299.000000	99.370117
1298.000000	99.372164
1297.000000	99.374660
1296.000000	99.376029
1295.000000	99.374731
1294.000000	99.370156
1293.000000	99.363015
1292.000000	99.355276
1291.000000	99.349288
1290.000000	99.346188
1289.000000	99.344995
1288.000000	99.343645
1287.000000	99.341154
1286.000000	99.338582
1285.000000	99.337531
1284.000000	99.337892
1283.000000	99.337613
1282.000000	99.334997
1281.000000	99.330778
1280.000000	99.327257
1279.000000	99.325708
1278.000000	99.325741
1277.000000	99.327084
1276.000000	99.330258
1275.000000	99.334675
1274.000000	99.337772
1273.000000	99.337769
1272.000000	99.336225
1271.000000	99.335914
1270.000000	99.336774
1269.000000	99.336320
1268.000000	99.334006
1267.000000	99.332731
1266.000000	99.335398
1265.000000	99.341925
1264.000000	99.350267
1263.000000	99.358139
1262.000000	99.362615
1261.000000	99.360527
1260.000000	99.351738
1259.000000	99.340980
1258.000000	99.334020
1257.000000	99.332136
1256.000000	99.331926
1255.000000	99.329706
1254.000000	99.324260
1253.000000	99.315932
1252.000000	99.305500
1251.000000	99.294605
1250.000000	99.285247
1249.000000	99.277568
1248.000000	99.269379
1247.000000	99.259167
1246.000000	99.248714
1245.000000	99.241260
1244.000000	99.237426
1243.000000	99.234369
1242.000000	99.229194
1241.000000	99.221750
1240.000000	99.213165
1239.000000	99.202756
1238.000000	99.188350
1237.000000	99.170120
1236.000000	99.152649
1235.000000	99.141581
1234.000000	99.137909
1233.000000	99.136336
1232.000000	99.129653
1231.000000	99.114473
1230.000000	99.093017
1229.000000	99.069997
1228.000000	99.048001
1227.000000	99.025746
1226.000000	99.000478
1225.000000	98.971512
1224.000000	98.940746
1223.000000	98.909629
1222.000000	98.876703
1221.000000	98.839025
1220.000000	98.795543
1219.000000	98.748315
1218.000000	98.700698
1217.000000	98.654920
1216.000000	98.610796
1215.000000	98.565683
1214.000000	98.516075
1213.000000	98.460594
1212.000000	98.401552
1211.000000	98.342718
1210.000000	98.285775
1209.000000	98.230013
1208.000000	98.174819
1207.000000	98.120726
1206.000000	98.068526
1205.000000	98.019041
1204.000000	97.972971
1203.000000	97.928721
1202.000000	97.881261
1201.000000	97.826212
1200.000000	97.765212
1199.000000	97.704797
1198.000000	97.649811
1197.000000	97.599972
1196.000000	97.552299
1195.000000	97.503731
1194.000000	97.451600
1193.000000	97.395174
1192.000000	97.337684
1191.000000	97.284191
1190.000000	97.236453
1189.000000	97.191685
1188.000000	97.145936
1187.000000	97.096001
1186.000000	97.038986
1185.000000	96.974310
1184.000000	96.906675
1183.000000	96.842976
1182.000000	96.784721
1181.000000	96.726539
1180.000000	96.663052
1179.000000	96.593873
1178.000000	96.521206
1177.000000	96.446770
1176.000000	96.372684
1175.000000	96.301196
1174.000000	96.230953
1173.000000	96.156880
1172.000000	96.076312
1171.000000	95.992669
1170.000000	95.911241
1169.000000	95.834220
1168.000000	95.761736
1167.000000	95.694890
1166.000000	95.635913
1165.000000	95.588182
1164.000000	95.557680
1163.000000	95.551121
1162.000000	95.569870
1161.000000	95.606574
1160.000000	95.648070
1159.000000	95.680522
1158.000000	95.693728
1157.000000	95.684539
1156.000000	95.656816
1155.000000	95.616142
1154.000000	95.565161
1153.000000	95.506048
1152.000000	95.444997
1151.000000	95.388804
1150.000000	95.337021
1149.000000	95.282789
1148.000000	95.222275
1147.000000	95.158748
1146.000000	95.096752
1145.000000	95.036856
1144.000000	94.977301
1143.000000	94.916526
1142.000000	94.852887
1141.000000	94.785887
1140.000000	94.718551
1139.000000	94.654876
1138.000000	94.594342
1137.000000	94.532513
1136.000000	94.466618
1135.000000	94.396524
1134.000000	94.321689
1133.000000	94.242768
1132.000000	94.165154
1131.000000	94.094197
1130.000000	94.027030
1129.000000	93.956085
1128.000000	93.880809
1127.000000	93.808234
1126.000000	93.740934
1125.000000	93.672461
1124.000000	93.597052
1123.000000	93.516768
1122.000000	93.436559
1121.000000	93.358908
1120.000000	93.285795
1119.000000	93.219178
1118.000000	93.156520
1117.000000	93.091699
1116.000000	93.022625
1115.000000	92.952593
1114.000000	92.883156
1113.000000	92.812057
1112.000000	92.738938
1111.000000	92.665835
1110.000000	92.591443
1109.000000	92.513021
1108.000000	92.434930
1107.000000	92.366480
1106.000000	92.309387
1105.000000	92.255454
1104.000000	92.198359
1103.000000	92.139583
1102.000000	92.081266
1101.000000	92.022222
1100.000000	91.962959
1099.000000	91.906085
1098.000000	91.850006
1097.000000	91.790930
1096.000000	91.731671
1095.000000	91.678756
1094.000000	91.630386
1093.000000	91.578604
1092.000000	91.524689
1091.000000	91.479632
1090.000000	91.446067
1089.000000	91.412484
1088.000000	91.370424
1087.000000	91.325890
1086.000000	91.287871
1085.000000	91.256148
1084.000000	91.226815
1083.000000	91.200238
1082.000000	91.176657
1081.000000	91.151714
1080.000000	91.122502
1079.000000	91.091740
1078.000000	91.061722
1077.000000	91.030578
1076.000000	90.997559
1075.000000	90.964550
1074.000000	90.929274
1073.000000	90.884483
1072.000000	90.826373
1071.000000	90.756358
1070.000000	90.673067
1069.000000	90.571259
1068.000000	90.450958
1067.000000	90.319158
1066.000000	90.180477
1065.000000	90.035326
1064.000000	89.889463
1063.000000	89.754217
1062.000000	89.633053
1061.000000	89.518437
1060.000000	89.406063
1059.000000	89.301141
1058.000000	89.205916
1057.000000	89.111951
1056.000000	89.010818
1055.000000	88.903046
1054.000000	88.791148
1053.000000	88.673060
1052.000000	88.548624
1051.000000	88.423880
1050.000000	88.302329
1049.000000	88.179942
1048.000000	88.053729
1047.000000	87.925909
1046.000000	87.796134
1045.000000	87.659944
1044.000000	87.518035
1043.000000	87.377281
1042.000000	87.239923
1041.000000	87.101688
1040.000000	86.963467
1039.000000	86.834283
1038.000000	86.718845
1037.000000	86.612157
1036.000000	86.509886
1035.000000	86.414238
1034.000000	86.326588
1033.000000	86.244507
1032.000000	86.168962
1031.000000	86.104224
1030.000000	86.048246
1029.000000	85.993532
1028.000000	85.939755
1027.000000	85.894567
1026.000000	85.859812
1025.000000	85.828327
1024.000000	85.796564
1023.000000	85.768598
1022.000000	85.744858
1021.000000	85.718573
1020.000000	85.686781
1019.000000	85.654267
1018.000000	85.623781
1017.000000	85.592378
1016.000000	85.559226
1015.000000	85.526903
1014.000000	85.493737
1013.000000	85.455545
1012.000000	85.416203
1011.000000	85.385650
1010.000000	85.366308
1009.000000	85.351760
1008.000000	85.338850
1007.000000	85.329775
1006.000000	85.322414
1005.000000	85.311052
1004.000000	85.297433
1003.000000	85.289077
1002.000000	85.286340
1001.000000	85.283693
1000.000000	85.284027
999.000000	85.297772
998.000000	85.325766
997.000000	85.355823
996.000000	85.379044
995.000000	85.398419
994.000000	85.419510
993.000000	85.444039
992.000000	85.474221
991.000000	85.512208
990.000000	85.553899
989.000000	85.593933
988.000000	85.637065
987.000000	85.693405
986.000000	85.762840
985.000000	85.836017
984.000000	85.910333
983.000000	85.992623
982.000000	86.086421
981.000000	86.189561
980.000000	86.303934
979.000000	86.433661
978.000000	86.572943
977.000000	86.709594
976.000000	86.842591
975.000000	86.983448
974.000000	87.138649
973.000000	87.302913
972.000000	87.470815
971.000000	87.642453
970.000000	87.815707
969.000000	87.985009
968.000000	88.150403
967.000000	88.317454
966.000000	88.486588
965.000000	88.652348
964.000000	88.813621
963.000000	88.974165
962.000000	89.132714
961.000000	89.283246
960.000000	89.425383
959.000000	89.563756
958.000000	89.696923
957.000000	89.818442
956.000000	89.929898
955.000000	90.041387
954.000000	90.156845
953.000000	90.269408
952.000000	90.373529
951.000000	90.471199
950.000000	90.564043
949.000000	90.649428
948.000000	90.727581
947.000000	90.803731
946.000000	90.880240
945.000000	90.954099
944.000000	91.023795
943.000000	91.091215
942.000000	91.156253
941.000000	91.217441
940.000000	91.277621
939.000000	91.340243
938.000000	91.400502
937.000000	91.449948
936.000000	91.490079
935.000000	91.531559
934.000000	91.579505
933.000000	91.629864
932.000000	91.681041
931.000000	91.737998
930.000000	91.802657
929.000000	91.870135
928.000000	91.936453
927.000000	92.000860
926.000000	92.059989
925.000000	92.110065
924.000000	92.155931
923.000000	92.207054
922.000000	92.262745
921.000000	92.312113
920.000000	92.350803
919.000000	92.386992
918.000000	92.428259
917.000000	92.473631
916.000000	92.521778
915.000000	92.575836
914.000000	92.635757
913.000000	92.696307
912.000000	92.757545
911.000000	92.827444
910.000000	92.909236
909.000000	92.995840
908.000000	93.082224
907.000000	93.174320
906.000000	93.279527
905.000000	93.396060
904.000000	93.517185
903.000000	93.639737
902.000000	93.764505
901.000000	93.894390
900.000000	94.035010
899.000000	94.189720
898.000000	94.350692
897.000000	94.502421
896.000000	94.637933
895.000000	94.764571
894.000000	94.890422
893.000000	95.012482
892.000000	95.123345
891.000000	95.223319
890.000000	95.319726
889.000000	95.417706
888.000000	95.516485
887.000000	95.612359
886.000000	95.702244
885.000000	95.786730
884.000000	95.871263
883.000000	95.960978
882.000000	96.053190
881.000000	96.139444
880.000000	96.216601
879.000000	96.291253
878.000000	96.371113
877.000000	96.456423
876.000000	96.542005
875.000000	96.623491
874.000000	96.699845
873.000000	96.774114
872.000000	96.853346
871.000000	96.943569
870.000000	97.042979
869.000000	97.143192
868.000000	97.237323
867.000000	97.323401
866.000000	97.401259
865.000000	97.471402
864.000000	97.537288
863.000000	97.603870
862.000000	97.672760
861.000000	97.742281
860.000000	97.811705
859.000000	97.880674
858.000000	97.945156
857.000000	98.000157
856.000000	98.047103
855.000000	98.092865
854.000000	98.140247
853.000000	98.184974
852.000000	98.223643
851.000000	98.258841
850.000000	98.293761
849.000000	98.326382
848.000000	98.351849
847.000000	98.367399
846.000000	98.373651
845.000000	98.374755
844.000000	98.377859
843.000000	98.387095
842.000000	98.396112
841.000000	98.391576
840.000000	98.366504
839.000000	98.326250
838.000000	98.280068
837.000000	98.231958
836.000000	98.182657
835.000000	98.135276
834.000000	98.093878
833.000000	98.059078
832.000000	98.028578
831.000000	98.000204
830.000000	97.973127
829.000000	97.950020
828.000000	97.939662
827.000000	97.951329
826.000000	97.982242
825.000000	98.015984
824.000000	98.038863
823.000000	98.053428
822.000000	98.070415
821.000000	98.091722
820.000000	98.106964
819.000000	98.103370
818.000000	98.074882
817.000000	98.024582
816.000000	97.961780
815.000000	97.894500
814.000000	97.821050
813.000000	97.729362
812.000000	97.605603
811.000000	97.441614
810.000000	97.233768
809.000000	96.979520
808.000000	96.679609
807.000000	96.341768
806.000000	95.978310
805.000000	95.601388
804.000000	95.224041
803.000000	94.863871
802.000000	94.541642
801.000000	94.276783
800.000000	94.084462
799.000000	93.971362
798.000000	93.930598
797.000000	93.944577
796.000000	93.995781
795.000000	94.073068
794.000000	94.169187
793.000000	94.277091
792.000000	94.387736
791.000000	94.487070
790.000000	94.557505
789.000000	94.588257
788.000000	94.583228
787.000000	94.553849
786.000000	94.505201
785.000000	94.433237
784.000000	94.333327
783.000000	94.206770
782.000000	94.062681
781.000000	93.921198
780.000000	93.812636
779.000000	93.763430
778.000000	93.779993
777.000000	93.850533
776.000000	93.960219
775.000000	94.097626
774.000000	94.250462
773.000000	94.406422
772.000000	94.558590
771.000000	94.701858
770.000000	94.825627
769.000000	94.919142
768.000000	94.983300
767.000000	95.028624
766.000000	95.062583
765.000000	95.087851
764.000000	95.111510
763.000000	95.143828
762.000000	95.185819
761.000000	95.228943
760.000000	95.270651
759.000000	95.320210
758.000000	95.384163
757.000000	95.454475
756.000000	95.517061
755.000000	95.566666
754.000000	95.609272
753.000000	95.654678
752.000000	95.709844
751.000000	95.774685
750.000000	95.840995
749.000000	95.899095
748.000000	95.947533
747.000000	95.993212
746.000000	96.042236
745.000000	96.095974
744.000000	96.156399
743.000000	96.228407
742.000000	96.314381
741.000000	96.411511
740.000000	96.516193
739.000000	96.626116
738.000000	96.736720
737.000000	96.841023
736.000000	96.935235
735.000000	97.020515
734.000000	97.097678
733.000000	97.163828
732.000000	97.215160
731.000000	97.249761
730.000000	97.267822
729.000000	97.273329
728.000000	97.275786
727.000000	97.285693
726.000000	97.307150
725.000000	97.337872
724.000000	97.375735
723.000000	97.421015
722.000000	97.472873
721.000000	97.528274
720.000000	97.584370
719.000000	97.638422
718.000000	97.686443
717.000000	97.725946
716.000000	97.758729
715.000000	97.787267
714.000000	97.811032
713.000000	97.831255
712.000000	97.855452
711.000000	97.888899
710.000000	97.923170
709.000000	97.942382
708.000000	97.941545
707.000000	97.931352
706.000000	97.923003
705.000000	97.914253
704.000000	97.892370
703.000000	97.844639
702.000000	97.763628
701.000000	97.647462
700.000000	97.498780
699.000000	97.323123
698.000000	97.131069
697.000000	96.945570
696.000000	96.801366
695.000000	96.726874
694.000000	96.726347
693.000000	96.783738
692.000000	96.879385
691.000000	96.996796
690.000000	97.118932
689.000000	97.230800
688.000000	97.328272
687.000000	97.415865
686.000000	97.494572
685.000000	97.559860
684.000000	97.610703
683.000000	97.651395
682.000000	97.685358
681.000000	97.715738
680.000000	97.750061
679.000000	97.793679
678.000000	97.839138
677.000000	97.873306
676.000000	97.895422
675.000000	97.917613
674.000000	97.949395
673.000000	97.988927
672.000000	98.027445
671.000000	98.054947
670.000000	98.065294
669.000000	98.065449
668.000000	98.082253
667.000000	98.138295
666.000000	98.211167
665.000000	98.262281
664.000000	98.286870
663.000000	98.305905
662.000000	98.333080
661.000000	98.356666
660.000000	98.360136
659.000000	98.346812
658.000000	98.333067
657.000000	98.328217
656.000000	98.331327
655.000000	98.336396
654.000000	98.331757
653.000000	98.305357
652.000000	98.262067
651.000000	98.228415
650.000000	98.228765
649.000000	98.261820
648.000000	98.308038
647.000000	98.350698
646.000000	98.384138
645.000000	98.412454
644.000000	98.447995
643.000000	98.502113
642.000000	98.568804
641.000000	98.625953
640.000000	98.659818
639.000000	98.679339
638.000000	98.701394
637.000000	98.732061
636.000000	98.770174
635.000000	98.817332
634.000000	98.872793
633.000000	98.927668
632.000000	98.973131
631.000000	99.007092
630.000000	99.029446
629.000000	99.040664
628.000000	99.051361
627.000000	99.084607
626.000000	99.156730
625.000000	99.256087
624.000000	99.346826
623.000000	99.392771
622.000000	99.383527
621.000000	99.347009
620.000000	99.330000
619.000000	99.354258
618.000000	99.394900
617.000000	99.416592
616.000000	99.419833
615.000000	99.426601
614.000000	99.432365
613.000000	99.409178
612.000000	99.357629
611.000000	99.318579
610.000000	99.319666
609.000000	99.339614
608.000000	99.343020
607.000000	99.322762
606.000000	99.294010
605.000000	99.268750
604.000000	99.253015
603.000000	99.250150
602.000000	99.250991
601.000000	99.238220
600.000000	99.210075
599.000000	99.181511
598.000000	99.155460
597.000000	99.118005
596.000000	99.073986
595.000000	99.058447
594.000000	99.092373
593.000000	99.150545
592.000000	99.193694
591.000000	99.209124
590.000000	99.201537
589.000000	99.171284
588.000000	99.127218
587.000000	99.099152
586.000000	99.107947
585.000000	99.137606
584.000000	99.164953
583.000000	99.197452
582.000000	99.252912
581.000000	99.320716
580.000000	99.372335
579.000000	99.396983
578.000000	99.405621
577.000000	99.412537
576.000000	99.433244
575.000000	99.477853
574.000000	99.522494
573.000000	99.518997
572.000000	99.456333
571.000000	99.392350
570.000000	99.395423
569.000000	99.459195
568.000000	99.517006
567.000000	99.525768
566.000000	99.502520
565.000000	99.486760
564.000000	99.493304
563.000000	99.498811
562.000000	99.459440
561.000000	99.353857
560.000000	99.215457
559.000000	99.110146
558.000000	99.067639
557.000000	99.059144
556.000000	99.057420
555.000000	99.074734
554.000000	99.122420
553.000000	99.179996
552.000000	99.227161
551.000000	99.265580
550.000000	99.296878
