PE IR       SUBTECH     SPECTRUM    ASCII       PEDS        4.00        
   -1
BH1 8-1 1 30_1.asc
24/05/17
15:27:36.00
24/05/17
15:27:40.00
Administrator
?品 028 用? Administrator 日期 Friday, May 17 2024
550.000000
#HDR
-1
-1
#GR
cm-1
%T
1.0
0.0
4000.000000
-1.000000
3451
8
100.607364
86.461666
#DATA
4000.000000	100.447232
3999.000000	100.446250
3998.000000	100.445346
3997.000000	100.444445
3996.000000	100.443336
3995.000000	100.441803
3994.000000	100.439892
3993.000000	100.438198
3992.000000	100.437233
3991.000000	100.436985
3990.000000	100.436985
3989.000000	100.436682
3988.000000	100.435977
3987.000000	100.435048
3986.000000	100.434130
3985.000000	100.433362
3984.000000	100.432756
3983.000000	100.432262
3982.000000	100.431791
3981.000000	100.431233
3980.000000	100.430509
3979.000000	100.429676
3978.000000	100.428937
3977.000000	100.428485
3976.000000	100.428325
3975.000000	100.428255
3974.000000	100.428016
3973.000000	100.427514
3972.000000	100.426884
3971.000000	100.426377
3970.000000	100.426096
3969.000000	100.425902
3968.000000	100.425586
3967.000000	100.425117
3966.000000	100.424681
3965.000000	100.424490
3964.000000	100.424523
3963.000000	100.424515
3962.000000	100.424210
3961.000000	100.423572
3960.000000	100.422765
3959.000000	100.422026
3958.000000	100.421507
3957.000000	100.421247
3956.000000	100.421266
3955.000000	100.421583
3954.000000	100.422108
3953.000000	100.422592
3952.000000	100.422802
3951.000000	100.422757
3950.000000	100.422680
3949.000000	100.422747
3948.000000	100.422909
3947.000000	100.422978
3946.000000	100.422849
3945.000000	100.422609
3944.000000	100.422410
3943.000000	100.422271
3942.000000	100.422072
3941.000000	100.421694
3940.000000	100.421142
3939.000000	100.420565
3938.000000	100.420164
3937.000000	100.420047
3936.000000	100.420197
3935.000000	100.420507
3934.000000	100.420785
3933.000000	100.420817
3932.000000	100.420513
3931.000000	100.420017
3930.000000	100.419646
3929.000000	100.419622
3928.000000	100.419921
3927.000000	100.420314
3926.000000	100.420547
3925.000000	100.420510
3924.000000	100.420312
3923.000000	100.420143
3922.000000	100.420020
3921.000000	100.419706
3920.000000	100.418983
3919.000000	100.418039
3918.000000	100.417431
3917.000000	100.417542
3916.000000	100.418255
3915.000000	100.419210
3914.000000	100.420128
3913.000000	100.420804
3912.000000	100.420963
3911.000000	100.420430
3910.000000	100.419396
3909.000000	100.418374
3908.000000	100.417872
3907.000000	100.418103
3906.000000	100.418895
3905.000000	100.419615
3904.000000	100.419491
3903.000000	100.418328
3902.000000	100.416821
3901.000000	100.415970
3900.000000	100.416135
3899.000000	100.416906
3898.000000	100.417663
3897.000000	100.418088
3896.000000	100.418075
3895.000000	100.417758
3894.000000	100.417698
3893.000000	100.418872
3892.000000	100.421734
3891.000000	100.425397
3890.000000	100.428314
3889.000000	100.429740
3888.000000	100.430212
3887.000000	100.430495
3886.000000	100.430239
3885.000000	100.428829
3884.000000	100.426685
3883.000000	100.424870
3882.000000	100.424131
3881.000000	100.424468
3880.000000	100.425439
3879.000000	100.426729
3878.000000	100.428085
3877.000000	100.429232
3876.000000	100.429964
3875.000000	100.429934
3874.000000	100.428846
3873.000000	100.427124
3872.000000	100.426001
3871.000000	100.426235
3870.000000	100.426931
3869.000000	100.426732
3868.000000	100.425747
3867.000000	100.425350
3866.000000	100.426389
3865.000000	100.428381
3864.000000	100.430235
3863.000000	100.431477
3862.000000	100.432186
3861.000000	100.432532
3860.000000	100.432664
3859.000000	100.432711
3858.000000	100.432725
3857.000000	100.432724
3856.000000	100.432872
3855.000000	100.433307
3854.000000	100.433744
3853.000000	100.434005
3852.000000	100.434347
3851.000000	100.434864
3850.000000	100.435405
3849.000000	100.435812
3848.000000	100.436004
3847.000000	100.436012
3846.000000	100.435924
3845.000000	100.435901
3844.000000	100.436123
3843.000000	100.436713
3842.000000	100.437647
3841.000000	100.438732
3840.000000	100.439591
3839.000000	100.439838
3838.000000	100.439444
3837.000000	100.438890
3836.000000	100.438669
3835.000000	100.438872
3834.000000	100.439377
3833.000000	100.440086
3832.000000	100.440859
3831.000000	100.441451
3830.000000	100.441495
3829.000000	100.440749
3828.000000	100.439464
3827.000000	100.438406
3826.000000	100.438235
3825.000000	100.438953
3824.000000	100.439966
3823.000000	100.440698
3822.000000	100.441020
3821.000000	100.441298
3820.000000	100.442014
3819.000000	100.442829
3818.000000	100.443039
3817.000000	100.442035
3816.000000	100.439191
3815.000000	100.434978
3814.000000	100.431185
3813.000000	100.429222
3812.000000	100.429139
3811.000000	100.429829
3810.000000	100.430119
3809.000000	100.429999
3808.000000	100.430131
3807.000000	100.430525
3806.000000	100.430630
3805.000000	100.430332
3804.000000	100.430563
3803.000000	100.432674
3802.000000	100.435881
3801.000000	100.437570
3800.000000	100.436951
3799.000000	100.435401
3798.000000	100.434445
3797.000000	100.433898
3796.000000	100.432147
3795.000000	100.428374
3794.000000	100.423550
3793.000000	100.419312
3792.000000	100.416645
3791.000000	100.415798
3790.000000	100.416551
3789.000000	100.418072
3788.000000	100.419271
3787.000000	100.419607
3786.000000	100.419446
3785.000000	100.419393
3784.000000	100.419547
3783.000000	100.419758
3782.000000	100.420081
3781.000000	100.420679
3780.000000	100.421318
3779.000000	100.421476
3778.000000	100.421045
3777.000000	100.420480
3776.000000	100.420246
3775.000000	100.420362
3774.000000	100.420583
3773.000000	100.420847
3772.000000	100.421323
3771.000000	100.422001
3770.000000	100.422527
3769.000000	100.422623
3768.000000	100.422384
3767.000000	100.422136
3766.000000	100.422108
3765.000000	100.422241
3764.000000	100.422315
3763.000000	100.422199
3762.000000	100.421909
3761.000000	100.421537
3760.000000	100.421217
3759.000000	100.421077
3758.000000	100.421073
3757.000000	100.420951
3756.000000	100.420518
3755.000000	100.419825
3754.000000	100.419081
3753.000000	100.418406
3752.000000	100.417815
3751.000000	100.417432
3750.000000	100.417353
3749.000000	100.417262
3748.000000	100.416624
3747.000000	100.415283
3746.000000	100.413701
3745.000000	100.412427
3744.000000	100.411492
3743.000000	100.410699
3742.000000	100.409818
3741.000000	100.408569
3740.000000	100.406719
3739.000000	100.404344
3738.000000	100.402123
3737.000000	100.400850
3736.000000	100.400468
3735.000000	100.399804
3734.000000	100.397867
3733.000000	100.394732
3732.000000	100.391098
3731.000000	100.387419
3730.000000	100.383768
3729.000000	100.380319
3728.000000	100.377482
3727.000000	100.375412
3726.000000	100.373696
3725.000000	100.371715
3724.000000	100.369098
3723.000000	100.365858
3722.000000	100.362256
3721.000000	100.358565
3720.000000	100.354989
3719.000000	100.351852
3718.000000	100.349473
3717.000000	100.347613
3716.000000	100.345419
3715.000000	100.342076
3714.000000	100.337267
3713.000000	100.331074
3712.000000	100.324044
3711.000000	100.317263
3710.000000	100.311628
3709.000000	100.307384
3708.000000	100.304318
3707.000000	100.301523
3706.000000	100.297449
3705.000000	100.290845
3704.000000	100.282172
3703.000000	100.274226
3702.000000	100.270368
3701.000000	100.270932
3700.000000	100.272185
3699.000000	100.270177
3698.000000	100.264374
3697.000000	100.256950
3696.000000	100.250206
3695.000000	100.245311
3694.000000	100.241917
3693.000000	100.238405
3692.000000	100.233136
3691.000000	100.226275
3690.000000	100.219834
3689.000000	100.214843
3688.000000	100.209827
3687.000000	100.202866
3686.000000	100.194070
3685.000000	100.185240
3684.000000	100.177716
3683.000000	100.171509
3682.000000	100.167263
3681.000000	100.166286
3680.000000	100.167830
3679.000000	100.168912
3678.000000	100.167824
3677.000000	100.164680
3676.000000	100.156589
3675.000000	100.140086
3674.000000	100.116831
3673.000000	100.091347
3672.000000	100.068141
3671.000000	100.049206
3670.000000	100.033574
3669.000000	100.021615
3668.000000	100.013934
3667.000000	100.007983
3666.000000	99.999556
3665.000000	99.985811
3664.000000	99.967474
3663.000000	99.948488
3662.000000	99.933026
3661.000000	99.921972
3660.000000	99.913063
3659.000000	99.904088
3658.000000	99.895555
3657.000000	99.889299
3656.000000	99.885580
3655.000000	99.883009
3654.000000	99.880166
3653.000000	99.876692
3652.000000	99.872246
3651.000000	99.864620
3650.000000	99.851725
3649.000000	99.835257
3648.000000	99.817950
3647.000000	99.800136
3646.000000	99.781502
3645.000000	99.762869
3644.000000	99.745179
3643.000000	99.728154
3642.000000	99.710945
3641.000000	99.694213
3640.000000	99.680581
3639.000000	99.671691
3638.000000	99.666154
3637.000000	99.661351
3636.000000	99.656425
3635.000000	99.652121
3634.000000	99.648559
3633.000000	99.645491
3632.000000	99.643444
3631.000000	99.642315
3630.000000	99.636346
3629.000000	99.617231
3628.000000	99.589523
3627.000000	99.568168
3626.000000	99.560972
3625.000000	99.565053
3624.000000	99.572931
3623.000000	99.578893
3622.000000	99.582467
3621.000000	99.586324
3620.000000	99.591988
3619.000000	99.598750
3618.000000	99.605586
3617.000000	99.612067
3616.000000	99.618299
3615.000000	99.624788
3614.000000	99.631839
3613.000000	99.639471
3612.000000	99.647566
3611.000000	99.655297
3610.000000	99.660499
3609.000000	99.660796
3608.000000	99.656945
3607.000000	99.653890
3606.000000	99.656702
3605.000000	99.666017
3604.000000	99.678090
3603.000000	99.688047
3602.000000	99.693149
3601.000000	99.693284
3600.000000	99.689934
3599.000000	99.685304
3598.000000	99.681969
3597.000000	99.682335
3596.000000	99.687323
3595.000000	99.694753
3594.000000	99.700208
3593.000000	99.700688
3592.000000	99.696782
3591.000000	99.691640
3590.000000	99.688563
3589.000000	99.688805
3588.000000	99.690896
3587.000000	99.692423
3586.000000	99.692156
3585.000000	99.690163
3584.000000	99.687196
3583.000000	99.684314
3582.000000	99.682200
3581.000000	99.680356
3580.000000	99.677443
3579.000000	99.672754
3578.000000	99.667084
3577.000000	99.662196
3576.000000	99.659394
3575.000000	99.658620
3574.000000	99.658731
3573.000000	99.658677
3572.000000	99.658316
3571.000000	99.658271
3570.000000	99.659027
3569.000000	99.659778
3568.000000	99.658479
3567.000000	99.654321
3566.000000	99.649394
3565.000000	99.645971
3564.000000	99.643554
3563.000000	99.640076
3562.000000	99.634835
3561.000000	99.629456
3560.000000	99.625954
3559.000000	99.624447
3558.000000	99.623285
3557.000000	99.621081
3556.000000	99.617981
3555.000000	99.615058
3554.000000	99.613077
3553.000000	99.612022
3552.000000	99.611490
3551.000000	99.611073
3550.000000	99.610298
3549.000000	99.608553
3548.000000	99.605338
3547.000000	99.600690
3546.000000	99.595423
3545.000000	99.590764
3544.000000	99.587594
3543.000000	99.586066
3542.000000	99.585688
3541.000000	99.585574
3540.000000	99.584903
3539.000000	99.583381
3538.000000	99.581320
3537.000000	99.579209
3536.000000	99.577246
3535.000000	99.575329
3534.000000	99.573435
3533.000000	99.571798
3532.000000	99.570653
3531.000000	99.569925
3530.000000	99.569227
3529.000000	99.568047
3528.000000	99.565987
3527.000000	99.563067
3526.000000	99.559921
3525.000000	99.557478
3524.000000	99.556177
3523.000000	99.555623
3522.000000	99.555219
3521.000000	99.555028
3520.000000	99.555644
3519.000000	99.557117
3518.000000	99.558385
3517.000000	99.558088
3516.000000	99.555827
3515.000000	99.552342
3514.000000	99.548634
3513.000000	99.545143
3512.000000	99.541871
3511.000000	99.539076
3510.000000	99.537482
3509.000000	99.537635
3508.000000	99.539191
3507.000000	99.541061
3506.000000	99.542390
3505.000000	99.543203
3504.000000	99.543969
3503.000000	99.544587
3502.000000	99.544149
3501.000000	99.541972
3500.000000	99.538649
3499.000000	99.535748
3498.000000	99.534383
3497.000000	99.534234
3496.000000	99.534070
3495.000000	99.533170
3494.000000	99.532076
3493.000000	99.531858
3492.000000	99.532748
3491.000000	99.533606
3490.000000	99.532844
3489.000000	99.529923
3488.000000	99.525972
3487.000000	99.522986
3486.000000	99.522119
3485.000000	99.522714
3484.000000	99.522875
3483.000000	99.521107
3482.000000	99.517637
3481.000000	99.514220
3480.000000	99.512431
3479.000000	99.512104
3478.000000	99.511606
3477.000000	99.509518
3476.000000	99.505874
3475.000000	99.501885
3474.000000	99.498645
3473.000000	99.496232
3472.000000	99.493996
3471.000000	99.491427
3470.000000	99.488651
3469.000000	99.486127
3468.000000	99.483984
3467.000000	99.481782
3466.000000	99.479064
3465.000000	99.476001
3464.000000	99.473262
3463.000000	99.471283
3462.000000	99.470003
3461.000000	99.469360
3460.000000	99.469519
3459.000000	99.470332
3458.000000	99.471037
3457.000000	99.470780
3456.000000	99.469250
3455.000000	99.466713
3454.000000	99.463709
3453.000000	99.460889
3452.000000	99.458838
3451.000000	99.457649
3450.000000	99.456714
3449.000000	99.455217
3448.000000	99.452964
3447.000000	99.450556
3446.000000	99.448717
3445.000000	99.447551
3444.000000	99.446615
3443.000000	99.445483
3442.000000	99.444071
3441.000000	99.442448
3440.000000	99.440570
3439.000000	99.438355
3438.000000	99.435936
3437.000000	99.433724
3436.000000	99.432084
3435.000000	99.431025
3434.000000	99.430217
3433.000000	99.429262
3432.000000	99.427959
3431.000000	99.426357
3430.000000	99.424702
3429.000000	99.423315
3428.000000	99.422350
3427.000000	99.421582
3426.000000	99.420510
3425.000000	99.418762
3424.000000	99.416379
3423.000000	99.413766
3422.000000	99.411416
3421.000000	99.409665
3420.000000	99.408558
3419.000000	99.407747
3418.000000	99.406578
3417.000000	99.404547
3416.000000	99.401749
3415.000000	99.398958
3414.000000	99.397043
3413.000000	99.396259
3412.000000	99.396138
3411.000000	99.395927
3410.000000	99.395158
3409.000000	99.393834
3408.000000	99.392296
3407.000000	99.391000
3406.000000	99.390228
3405.000000	99.389870
3404.000000	99.389486
3403.000000	99.388675
3402.000000	99.387437
3401.000000	99.386152
3400.000000	99.385133
3399.000000	99.384246
3398.000000	99.383164
3397.000000	99.382008
3396.000000	99.381432
3395.000000	99.381858
3394.000000	99.382894
3393.000000	99.383740
3392.000000	99.384123
3391.000000	99.384448
3390.000000	99.385014
3389.000000	99.385464
3388.000000	99.385229
3387.000000	99.384285
3386.000000	99.383339
3385.000000	99.383237
3384.000000	99.384187
3383.000000	99.385560
3382.000000	99.386348
3381.000000	99.386063
3380.000000	99.385127
3379.000000	99.384441
3378.000000	99.384439
3377.000000	99.384749
3376.000000	99.384776
3375.000000	99.384412
3374.000000	99.384051
3373.000000	99.384117
3372.000000	99.384835
3371.000000	99.386277
3370.000000	99.388239
3369.000000	99.390172
3368.000000	99.391512
3367.000000	99.392129
3366.000000	99.392393
3365.000000	99.392769
3364.000000	99.393472
3363.000000	99.394489
3362.000000	99.395731
3361.000000	99.397052
3360.000000	99.398216
3359.000000	99.398994
3358.000000	99.399326
3357.000000	99.399415
3356.000000	99.399631
3355.000000	99.400266
3354.000000	99.401307
3353.000000	99.402473
3352.000000	99.403466
3351.000000	99.404206
3350.000000	99.404810
3349.000000	99.405449
3348.000000	99.406249
3347.000000	99.407259
3346.000000	99.408428
3345.000000	99.409718
3344.000000	99.411278
3343.000000	99.413357
3342.000000	99.415929
3341.000000	99.418505
3340.000000	99.420468
3339.000000	99.421591
3338.000000	99.422074
3337.000000	99.422300
3336.000000	99.422658
3335.000000	99.423507
3334.000000	99.425022
3333.000000	99.427044
3332.000000	99.429152
3331.000000	99.431017
3330.000000	99.432637
3329.000000	99.434185
3328.000000	99.435796
3327.000000	99.437484
3326.000000	99.439160
3325.000000	99.440704
3324.000000	99.442081
3323.000000	99.443431
3322.000000	99.444957
3321.000000	99.446700
3320.000000	99.448473
3319.000000	99.450039
3318.000000	99.451361
3317.000000	99.452593
3316.000000	99.453935
3315.000000	99.455459
3314.000000	99.457109
3313.000000	99.458789
3312.000000	99.460448
3311.000000	99.462094
3310.000000	99.463755
3309.000000	99.465423
3308.000000	99.467047
3307.000000	99.468585
3306.000000	99.470027
3305.000000	99.471389
3304.000000	99.472690
3303.000000	99.473975
3302.000000	99.475325
3301.000000	99.476791
3300.000000	99.478358
3299.000000	99.479946
3298.000000	99.481489
3297.000000	99.483004
3296.000000	99.484540
3295.000000	99.486114
3294.000000	99.487689
3293.000000	99.489218
3292.000000	99.490686
3291.000000	99.492111
3290.000000	99.493535
3289.000000	99.494994
3288.000000	99.496507
3287.000000	99.498063
3286.000000	99.499645
3285.000000	99.501218
3284.000000	99.502708
3283.000000	99.504041
3282.000000	99.505238
3281.000000	99.506457
3280.000000	99.507842
3279.000000	99.509364
3278.000000	99.510846
3277.000000	99.512197
3276.000000	99.513537
3275.000000	99.515040
3274.000000	99.516717
3273.000000	99.518449
3272.000000	99.520150
3271.000000	99.521822
3270.000000	99.523460
3269.000000	99.525044
3268.000000	99.526652
3267.000000	99.528446
3266.000000	99.530444
3265.000000	99.532361
3264.000000	99.533844
3263.000000	99.534849
3262.000000	99.535736
3261.000000	99.536953
3260.000000	99.538672
3259.000000	99.540787
3258.000000	99.543096
3257.000000	99.545381
3256.000000	99.547364
3255.000000	99.548743
3254.000000	99.549364
3253.000000	99.549294
3252.000000	99.548798
3251.000000	99.548331
3250.000000	99.548488
3249.000000	99.549771
3248.000000	99.552307
3247.000000	99.555794
3246.000000	99.559690
3245.000000	99.563448
3244.000000	99.566553
3243.000000	99.568510
3242.000000	99.569086
3241.000000	99.568650
3240.000000	99.568163
3239.000000	99.568612
3238.000000	99.570354
3237.000000	99.572879
3236.000000	99.575221
3235.000000	99.576798
3234.000000	99.577899
3233.000000	99.579290
3232.000000	99.581302
3231.000000	99.583500
3230.000000	99.585353
3229.000000	99.586988
3228.000000	99.588941
3227.000000	99.591213
3226.000000	99.592988
3225.000000	99.593530
3224.000000	99.593228
3223.000000	99.593482
3222.000000	99.595385
3221.000000	99.598518
3220.000000	99.601060
3219.000000	99.601370
3218.000000	99.599594
3217.000000	99.597639
3216.000000	99.597173
3215.000000	99.597726
3214.000000	99.597292
3213.000000	99.594917
3212.000000	99.592125
3211.000000	99.591287
3210.000000	99.593157
3209.000000	99.596777
3208.000000	99.601283
3207.000000	99.606838
3206.000000	99.613488
3205.000000	99.619961
3204.000000	99.624385
3203.000000	99.626045
3202.000000	99.626016
3201.000000	99.626235
3200.000000	99.628138
3199.000000	99.632012
3198.000000	99.637131
3197.000000	99.642208
3196.000000	99.645990
3195.000000	99.647860
3194.000000	99.648060
3193.000000	99.647344
3192.000000	99.646347
3191.000000	99.645285
3190.000000	99.644207
3189.000000	99.643412
3188.000000	99.643464
3187.000000	99.644853
3186.000000	99.647734
3185.000000	99.651926
3184.000000	99.656859
3183.000000	99.661512
3182.000000	99.664804
3181.000000	99.666421
3180.000000	99.667211
3179.000000	99.668546
3178.000000	99.671125
3177.000000	99.674520
3176.000000	99.677796
3175.000000	99.680318
3174.000000	99.681980
3173.000000	99.682977
3172.000000	99.683686
3171.000000	99.684654
3170.000000	99.686404
3169.000000	99.689097
3168.000000	99.692384
3167.000000	99.695585
3166.000000	99.698161
3165.000000	99.700110
3164.000000	99.701903
3163.000000	99.703972
3162.000000	99.706227
3161.000000	99.708217
3160.000000	99.709756
3159.000000	99.711195
3158.000000	99.713047
3157.000000	99.715510
3156.000000	99.718437
3155.000000	99.721596
3154.000000	99.724763
3153.000000	99.727702
3152.000000	99.730258
3151.000000	99.732470
3150.000000	99.734503
3149.000000	99.736500
3148.000000	99.738511
3147.000000	99.740547
3146.000000	99.742631
3145.000000	99.744776
3144.000000	99.746967
3143.000000	99.749189
3142.000000	99.751439
3141.000000	99.753725
3140.000000	99.756080
3139.000000	99.758538
3138.000000	99.761029
3137.000000	99.763332
3136.000000	99.765256
3135.000000	99.766861
3134.000000	99.768514
3133.000000	99.770560
3132.000000	99.773031
3131.000000	99.775644
3130.000000	99.778040
3129.000000	99.780075
3128.000000	99.781869
3127.000000	99.783665
3126.000000	99.785616
3125.000000	99.787647
3124.000000	99.789533
3123.000000	99.791123
3122.000000	99.792475
3121.000000	99.793772
3120.000000	99.795185
3119.000000	99.796873
3118.000000	99.798980
3117.000000	99.801487
3116.000000	99.804069
3115.000000	99.806274
3114.000000	99.807912
3113.000000	99.809250
3112.000000	99.810829
3111.000000	99.813059
3110.000000	99.815932
3109.000000	99.818951
3108.000000	99.821374
3107.000000	99.822733
3106.000000	99.823172
3105.000000	99.823297
3104.000000	99.823662
3103.000000	99.824431
3102.000000	99.825462
3101.000000	99.826470
3100.000000	99.827155
3099.000000	99.827469
3098.000000	99.827889
3097.000000	99.829219
3096.000000	99.831921
3095.000000	99.835692
3094.000000	99.839665
3093.000000	99.842939
3092.000000	99.844920
3091.000000	99.845380
3090.000000	99.844580
3089.000000	99.843395
3088.000000	99.842915
3087.000000	99.843783
3086.000000	99.845915
3085.000000	99.848767
3084.000000	99.851825
3083.000000	99.854828
3082.000000	99.857627
3081.000000	99.860030
3080.000000	99.861874
3079.000000	99.863206
3078.000000	99.864319
3077.000000	99.865593
3076.000000	99.867239
3075.000000	99.869139
3074.000000	99.870901
3073.000000	99.872165
3072.000000	99.872976
3071.000000	99.873840
3070.000000	99.875245
3069.000000	99.877087
3068.000000	99.878719
3067.000000	99.879576
3066.000000	99.879580
3065.000000	99.878947
3064.000000	99.878010
3063.000000	99.877366
3062.000000	99.877813
3061.000000	99.879787
3060.000000	99.882884
3059.000000	99.886229
3058.000000	99.889303
3057.000000	99.892122
3056.000000	99.894664
3055.000000	99.896485
3054.000000	99.897040
3053.000000	99.896259
3052.000000	99.894752
3051.000000	99.893554
3050.000000	99.893561
3049.000000	99.894982
3048.000000	99.897299
3047.000000	99.899872
3046.000000	99.902554
3045.000000	99.905487
3044.000000	99.908481
3043.000000	99.910925
3042.000000	99.912317
3041.000000	99.912700
3040.000000	99.912647
3039.000000	99.912968
3038.000000	99.914294
3037.000000	99.916703
3036.000000	99.919731
3035.000000	99.922865
3034.000000	99.925949
3033.000000	99.928991
3032.000000	99.931779
3031.000000	99.934007
3030.000000	99.935634
3029.000000	99.936765
3028.000000	99.937300
3027.000000	99.937179
3026.000000	99.937059
3025.000000	99.938178
3024.000000	99.941173
3023.000000	99.945213
3022.000000	99.948644
3021.000000	99.950515
3020.000000	99.951094
3019.000000	99.951129
3018.000000	99.950982
3017.000000	99.950592
3016.000000	99.950063
3015.000000	99.950044
3014.000000	99.951282
3013.000000	99.953629
3012.000000	99.955769
3011.000000	99.956563
3010.000000	99.956687
3009.000000	99.958170
3008.000000	99.962110
3007.000000	99.967516
3006.000000	99.972574
3005.000000	99.976352
3004.000000	99.978747
3003.000000	99.979680
3002.000000	99.979378
3001.000000	99.979024
3000.000000	99.980065
2999.000000	99.982869
2998.000000	99.986675
2997.000000	99.990704
2996.000000	99.994684
2995.000000	99.998404
2994.000000	100.001457
2993.000000	100.003452
2992.000000	100.004035
2991.000000	100.002959
2990.000000	100.000717
2989.000000	99.998814
2988.000000	99.998637
2987.000000	100.000205
2986.000000	100.002651
2985.000000	100.005796
2984.000000	100.010332
2983.000000	100.016292
2982.000000	100.022215
2981.000000	100.026403
2980.000000	100.028893
2979.000000	100.031705
2978.000000	100.036967
2977.000000	100.044866
2976.000000	100.053425
2975.000000	100.060443
2974.000000	100.065617
2973.000000	100.070341
2972.000000	100.075605
2971.000000	100.081018
2970.000000	100.086231
2969.000000	100.092292
2968.000000	100.100495
2967.000000	100.110231
2966.000000	100.119204
2965.000000	100.126012
2964.000000	100.131601
2963.000000	100.137892
2962.000000	100.145602
2961.000000	100.153613
2960.000000	100.159907
2959.000000	100.163100
2958.000000	100.163716
2957.000000	100.164138
2956.000000	100.166854
2955.000000	100.172527
2954.000000	100.179691
2953.000000	100.185802
2952.000000	100.188344
2951.000000	100.186028
2950.000000	100.180261
2949.000000	100.175156
2948.000000	100.174920
2947.000000	100.180986
2946.000000	100.191989
2945.000000	100.205680
2944.000000	100.219742
2943.000000	100.231569
2942.000000	100.239491
2941.000000	100.244930
2940.000000	100.251899
2939.000000	100.263245
2938.000000	100.277936
2937.000000	100.292601
2936.000000	100.305423
2935.000000	100.318103
2934.000000	100.333987
2933.000000	100.354015
2932.000000	100.374313
2931.000000	100.388984
2930.000000	100.396395
2929.000000	100.401977
2928.000000	100.413148
2927.000000	100.431383
2926.000000	100.450848
2925.000000	100.464476
2924.000000	100.469226
2923.000000	100.465826
2922.000000	100.456471
2921.000000	100.443871
2920.000000	100.430266
2919.000000	100.415734
2918.000000	100.398720
2917.000000	100.379130
2916.000000	100.359326
2915.000000	100.341073
2914.000000	100.323314
2913.000000	100.304560
2912.000000	100.285841
2911.000000	100.269228
2910.000000	100.254587
2909.000000	100.240262
2908.000000	100.226774
2907.000000	100.217478
2906.000000	100.214910
2905.000000	100.217966
2904.000000	100.223308
2903.000000	100.228282
2902.000000	100.231625
2901.000000	100.232220
2900.000000	100.228418
2899.000000	100.219042
2898.000000	100.204954
2897.000000	100.189675
2896.000000	100.177920
2895.000000	100.172416
2894.000000	100.171759
2893.000000	100.171692
2892.000000	100.168964
2891.000000	100.163918
2890.000000	100.159249
2889.000000	100.156766
2888.000000	100.155853
2887.000000	100.154715
2886.000000	100.152459
2885.000000	100.149774
2884.000000	100.147910
2883.000000	100.147525
2882.000000	100.148521
2881.000000	100.150630
2880.000000	100.153876
2879.000000	100.158383
2878.000000	100.163761
2877.000000	100.168890
2876.000000	100.172708
2875.000000	100.175488
2874.000000	100.178929
2873.000000	100.184237
2872.000000	100.190163
2871.000000	100.193816
2870.000000	100.193927
2869.000000	100.192570
2868.000000	100.192940
2867.000000	100.196096
2866.000000	100.200903
2865.000000	100.206705
2864.000000	100.214450
2863.000000	100.224638
2862.000000	100.235351
2861.000000	100.243561
2860.000000	100.248576
2859.000000	100.253760
2858.000000	100.264365
2857.000000	100.282723
2856.000000	100.304834
2855.000000	100.322418
2854.000000	100.329389
2853.000000	100.326233
2852.000000	100.317900
2851.000000	100.308151
2850.000000	100.297204
2849.000000	100.284470
2848.000000	100.270961
2847.000000	100.257801
2846.000000	100.244133
2845.000000	100.228206
2844.000000	100.209945
2843.000000	100.191416
2842.000000	100.175321
2841.000000	100.163738
2840.000000	100.157379
2839.000000	100.154701
2838.000000	100.152254
2837.000000	100.147450
2836.000000	100.141185
2835.000000	100.136768
2834.000000	100.136036
2833.000000	100.137298
2832.000000	100.137324
2831.000000	100.134781
2830.000000	100.131359
2829.000000	100.129788
2828.000000	100.131186
2827.000000	100.134447
2826.000000	100.137985
2825.000000	100.141319
2824.000000	100.144214
2823.000000	100.144987
2822.000000	100.141570
2821.000000	100.134905
2820.000000	100.129558
2819.000000	100.129295
2818.000000	100.132907
2817.000000	100.135898
2816.000000	100.135921
2815.000000	100.134882
2814.000000	100.135690
2813.000000	100.138836
2812.000000	100.142746
2811.000000	100.145948
2810.000000	100.147920
2809.000000	100.148637
2808.000000	100.148284
2807.000000	100.147260
2806.000000	100.146042
2805.000000	100.145195
2804.000000	100.145496
2803.000000	100.147347
2802.000000	100.149765
2801.000000	100.150759
2800.000000	100.149507
2799.000000	100.147785
2798.000000	100.148345
2797.000000	100.151936
2796.000000	100.156625
2795.000000	100.160030
2794.000000	100.161595
2793.000000	100.162376
2792.000000	100.163208
2791.000000	100.163776
2790.000000	100.163464
2789.000000	100.162486
2788.000000	100.161779
2787.000000	100.161957
2786.000000	100.162787
2785.000000	100.163745
2784.000000	100.164726
2783.000000	100.165992
2782.000000	100.167551
2781.000000	100.168875
2780.000000	100.169384
2779.000000	100.169085
2778.000000	100.168589
2777.000000	100.168586
2776.000000	100.169398
2775.000000	100.170953
2774.000000	100.172972
2773.000000	100.175101
2772.000000	100.177070
2771.000000	100.178800
2770.000000	100.180327
2769.000000	100.181606
2768.000000	100.182457
2767.000000	100.182765
2766.000000	100.182630
2765.000000	100.182228
2764.000000	100.181693
2763.000000	100.181313
2762.000000	100.181637
2761.000000	100.183023
2760.000000	100.185050
2759.000000	100.186626
2758.000000	100.186963
2757.000000	100.186254
2756.000000	100.185353
2755.000000	100.185006
2754.000000	100.185490
2753.000000	100.186817
2752.000000	100.188867
2751.000000	100.191241
2750.000000	100.193309
2749.000000	100.194577
2748.000000	100.194962
2747.000000	100.194757
2746.000000	100.194438
2745.000000	100.194424
2744.000000	100.194915
2743.000000	100.195928
2742.000000	100.197474
2741.000000	100.199569
2740.000000	100.201973
2739.000000	100.204081
2738.000000	100.205365
2737.000000	100.205927
2736.000000	100.206427
2735.000000	100.207386
2734.000000	100.208730
2733.000000	100.210089
2732.000000	100.211303
2731.000000	100.212467
2730.000000	100.213598
2729.000000	100.214525
2728.000000	100.215106
2727.000000	100.215410
2726.000000	100.215602
2725.000000	100.215718
2724.000000	100.215638
2723.000000	100.215291
2722.000000	100.214875
2721.000000	100.214833
2720.000000	100.215502
2719.000000	100.216804
2718.000000	100.218256
2717.000000	100.219287
2716.000000	100.219682
2715.000000	100.219690
2714.000000	100.219827
2713.000000	100.220451
2712.000000	100.221541
2711.000000	100.222804
2710.000000	100.223907
2709.000000	100.224679
2708.000000	100.225106
2707.000000	100.225242
2706.000000	100.225217
2705.000000	100.225252
2704.000000	100.225539
2703.000000	100.226100
2702.000000	100.226800
2701.000000	100.227506
2700.000000	100.228177
2699.000000	100.228769
2698.000000	100.229171
2697.000000	100.229366
2696.000000	100.229546
2695.000000	100.229927
2694.000000	100.230468
2693.000000	100.230908
2692.000000	100.231064
2691.000000	100.231019
2690.000000	100.231012
2689.000000	100.231240
2688.000000	100.231788
2687.000000	100.232609
2686.000000	100.233531
2685.000000	100.234323
2684.000000	100.234797
2683.000000	100.234850
2682.000000	100.234515
2681.000000	100.234040
2680.000000	100.233771
2679.000000	100.233780
2678.000000	100.233721
2677.000000	100.233325
2676.000000	100.233014
2675.000000	100.233638
2674.000000	100.235564
2673.000000	100.238233
2672.000000	100.240690
2671.000000	100.242388
2670.000000	100.243275
2669.000000	100.243395
2668.000000	100.242664
2667.000000	100.241082
2666.000000	100.239077
2665.000000	100.237465
2664.000000	100.236886
2663.000000	100.237331
2662.000000	100.238269
2661.000000	100.239257
2660.000000	100.240283
2659.000000	100.241411
2658.000000	100.242432
2657.000000	100.243155
2656.000000	100.243813
2655.000000	100.244764
2654.000000	100.245850
2653.000000	100.246436
2652.000000	100.246204
2651.000000	100.245635
2650.000000	100.245549
2649.000000	100.246312
2648.000000	100.247625
2647.000000	100.248855
2646.000000	100.249497
2645.000000	100.249448
2644.000000	100.249036
2643.000000	100.248770
2642.000000	100.248863
2641.000000	100.249060
2640.000000	100.248977
2639.000000	100.248552
2638.000000	100.248083
2637.000000	100.247920
2636.000000	100.248183
2635.000000	100.248760
2634.000000	100.249384
2633.000000	100.249745
2632.000000	100.249655
2631.000000	100.249206
2630.000000	100.248759
2629.000000	100.248677
2628.000000	100.249065
2627.000000	100.249769
2626.000000	100.250537
2625.000000	100.251174
2624.000000	100.251579
2623.000000	100.251676
2622.000000	100.251397
2621.000000	100.250788
2620.000000	100.250097
2619.000000	100.249628
2618.000000	100.249482
2617.000000	100.249483
2616.000000	100.249415
2615.000000	100.249300
2614.000000	100.249312
2613.000000	100.249430
2612.000000	100.249399
2611.000000	100.249133
2610.000000	100.248976
2609.000000	100.249392
2608.000000	100.250479
2607.000000	100.251852
2606.000000	100.252924
2605.000000	100.253325
2604.000000	100.253043
2603.000000	100.252353
2602.000000	100.251663
2601.000000	100.251221
2600.000000	100.251023
2599.000000	100.250992
2598.000000	100.251141
2597.000000	100.251458
2596.000000	100.251751
2595.000000	100.251844
2594.000000	100.251897
2593.000000	100.252290
2592.000000	100.253113
2591.000000	100.253961
2590.000000	100.254291
2589.000000	100.253856
2588.000000	100.252813
2587.000000	100.251659
2586.000000	100.251108
2585.000000	100.251640
2584.000000	100.253008
2583.000000	100.254443
2582.000000	100.255504
2581.000000	100.256465
2580.000000	100.257711
2579.000000	100.259078
2578.000000	100.260077
2577.000000	100.260590
2576.000000	100.260973
2575.000000	100.261550
2574.000000	100.262294
2573.000000	100.262990
2572.000000	100.263499
2571.000000	100.263791
2570.000000	100.263915
2569.000000	100.263953
2568.000000	100.263962
2567.000000	100.263946
2566.000000	100.263974
2565.000000	100.264254
2564.000000	100.264952
2563.000000	100.265990
2562.000000	100.267068
2561.000000	100.267880
2560.000000	100.268350
2559.000000	100.268595
2558.000000	100.268806
2557.000000	100.269119
2556.000000	100.269530
2555.000000	100.269951
2554.000000	100.270319
2553.000000	100.270642
2552.000000	100.270954
2551.000000	100.271266
2550.000000	100.271569
2549.000000	100.271870
2548.000000	100.272178
2547.000000	100.272491
2546.000000	100.272806
2545.000000	100.273121
2544.000000	100.273438
2543.000000	100.273759
2542.000000	100.274083
2541.000000	100.274404
2540.000000	100.274714
2539.000000	100.275006
2538.000000	100.275282
2537.000000	100.275554
2536.000000	100.275833
2535.000000	100.276129
2534.000000	100.276441
2533.000000	100.276760
2532.000000	100.277082
2531.000000	100.277405
2530.000000	100.277739
2529.000000	100.278090
2528.000000	100.278461
2527.000000	100.278848
2526.000000	100.279244
2525.000000	100.279641
2524.000000	100.280042
2523.000000	100.280445
2522.000000	100.280846
2521.000000	100.281239
2520.000000	100.281621
2519.000000	100.281996
2518.000000	100.282375
2517.000000	100.282772
2516.000000	100.283194
2515.000000	100.283648
2514.000000	100.284133
2513.000000	100.284644
2512.000000	100.285180
2511.000000	100.285740
2510.000000	100.286315
2509.000000	100.286882
2508.000000	100.287425
2507.000000	100.287953
2506.000000	100.288493
2505.000000	100.289072
2504.000000	100.289720
2503.000000	100.290477
2502.000000	100.291322
2501.000000	100.292125
2500.000000	100.292730
2499.000000	100.293098
2498.000000	100.293328
2497.000000	100.293572
2496.000000	100.294010
2495.000000	100.294811
2494.000000	100.295977
2493.000000	100.297215
2492.000000	100.298124
2491.000000	100.298577
2490.000000	100.298796
2489.000000	100.299109
2488.000000	100.299657
2487.000000	100.300311
2486.000000	100.300797
2485.000000	100.300927
2484.000000	100.300832
2483.000000	100.300878
2482.000000	100.301242
2481.000000	100.301649
2480.000000	100.301719
2479.000000	100.301557
2478.000000	100.301765
2477.000000	100.302820
2476.000000	100.304668
2475.000000	100.306925
2474.000000	100.309230
2473.000000	100.311250
2472.000000	100.312594
2471.000000	100.313015
2470.000000	100.312682
2469.000000	100.312127
2468.000000	100.311839
2467.000000	100.312008
2466.000000	100.312643
2465.000000	100.313723
2464.000000	100.315139
2463.000000	100.316613
2462.000000	100.317840
2461.000000	100.318690
2460.000000	100.319194
2459.000000	100.319405
2458.000000	100.319422
2457.000000	100.319471
2456.000000	100.319781
2455.000000	100.320326
2454.000000	100.320848
2453.000000	100.321176
2452.000000	100.321452
2451.000000	100.321975
2450.000000	100.322898
2449.000000	100.324114
2448.000000	100.325367
2447.000000	100.326399
2446.000000	100.327062
2445.000000	100.327398
2444.000000	100.327660
2443.000000	100.328171
2442.000000	100.329073
2441.000000	100.330267
2440.000000	100.331520
2439.000000	100.332614
2438.000000	100.333417
2437.000000	100.333913
2436.000000	100.334221
2435.000000	100.334534
2434.000000	100.334981
2433.000000	100.335537
2432.000000	100.336080
2431.000000	100.336523
2430.000000	100.336894
2429.000000	100.337318
2428.000000	100.337940
2427.000000	100.338809
2426.000000	100.339817
2425.000000	100.340770
2424.000000	100.341577
2423.000000	100.342309
2422.000000	100.343020
2421.000000	100.343575
2420.000000	100.343763
2419.000000	100.343576
2418.000000	100.343276
2417.000000	100.343225
2416.000000	100.343666
2415.000000	100.344635
2414.000000	100.346026
2413.000000	100.347584
2412.000000	100.348927
2411.000000	100.349752
2410.000000	100.349991
2409.000000	100.349833
2408.000000	100.349584
2407.000000	100.349471
2406.000000	100.349578
2405.000000	100.349887
2404.000000	100.350307
2403.000000	100.350697
2402.000000	100.350960
2401.000000	100.351119
2400.000000	100.351284
2399.000000	100.351534
2398.000000	100.351847
2397.000000	100.352171
2396.000000	100.352500
2395.000000	100.352851
2394.000000	100.353210
2393.000000	100.353550
2392.000000	100.353872
2391.000000	100.354200
2390.000000	100.354537
2389.000000	100.354857
2388.000000	100.355138
2387.000000	100.355381
2386.000000	100.355598
2385.000000	100.355798
2384.000000	100.355987
2383.000000	100.356172
2382.000000	100.356353
2381.000000	100.356531
2380.000000	100.356704
2379.000000	100.356867
2378.000000	100.357014
2377.000000	100.357143
2376.000000	100.357255
2375.000000	100.357360
2374.000000	100.357467
2373.000000	100.357576
2372.000000	100.357678
2371.000000	100.357759
2370.000000	100.357816
2369.000000	100.357856
2368.000000	100.357891
2367.000000	100.357928
2366.000000	100.357967
2365.000000	100.358007
2364.000000	100.358045
2363.000000	100.358082
2362.000000	100.358115
2361.000000	100.358138
2360.000000	100.358143
2359.000000	100.358127
2358.000000	100.358092
2357.000000	100.358045
2356.000000	100.357994
2355.000000	100.357936
2354.000000	100.357864
2353.000000	100.357770
2352.000000	100.357653
2351.000000	100.357514
2350.000000	100.357352
2349.000000	100.357167
2348.000000	100.356959
2347.000000	100.356740
2346.000000	100.356529
2345.000000	100.356345
2344.000000	100.356190
2343.000000	100.356055
2342.000000	100.355924
2341.000000	100.355786
2340.000000	100.355638
2339.000000	100.355481
2338.000000	100.355319
2337.000000	100.355159
2336.000000	100.355011
2335.000000	100.354885
2334.000000	100.354782
2333.000000	100.354691
2332.000000	100.354597
2331.000000	100.354484
2330.000000	100.354348
2329.000000	100.354198
2328.000000	100.354043
2327.000000	100.353885
2326.000000	100.353716
2325.000000	100.353532
2324.000000	100.353335
2323.000000	100.353134
2322.000000	100.352934
2321.000000	100.352730
2320.000000	100.352513
2319.000000	100.352282
2318.000000	100.352042
2317.000000	100.351799
2316.000000	100.351554
2315.000000	100.351308
2314.000000	100.351057
2313.000000	100.350800
2312.000000	100.350532
2311.000000	100.350251
2310.000000	100.349950
2309.000000	100.349641
2308.000000	100.349333
2307.000000	100.349040
2306.000000	100.348752
2305.000000	100.348483
2304.000000	100.348262
2303.000000	100.348133
2302.000000	100.348108
2301.000000	100.348186
2300.000000	100.348247
2299.000000	100.348069
2298.000000	100.347467
2297.000000	100.346605
2296.000000	100.345865
2295.000000	100.345553
2294.000000	100.345569
2293.000000	100.345535
2292.000000	100.345067
2291.000000	100.344075
2290.000000	100.342831
2289.000000	100.341798
2288.000000	100.341215
2287.000000	100.340771
2286.000000	100.339864
2285.000000	100.338256
2284.000000	100.336440
2283.000000	100.335211
2282.000000	100.334979
2281.000000	100.335507
2280.000000	100.336287
2279.000000	100.336904
2278.000000	100.337231
2277.000000	100.337274
2276.000000	100.336975
2275.000000	100.336387
2274.000000	100.335924
2273.000000	100.336126
2272.000000	100.337004
2271.000000	100.337834
2270.000000	100.337869
2269.000000	100.337175
2268.000000	100.336503
2267.000000	100.336434
2266.000000	100.336834
2265.000000	100.337154
2264.000000	100.337015
2263.000000	100.336468
2262.000000	100.335839
2261.000000	100.335423
2260.000000	100.335258
2259.000000	100.335138
2258.000000	100.334932
2257.000000	100.334749
2256.000000	100.334708
2255.000000	100.334650
2254.000000	100.334321
2253.000000	100.333766
2252.000000	100.333275
2251.000000	100.332968
2250.000000	100.332670
2249.000000	100.332255
2248.000000	100.331887
2247.000000	100.331808
2246.000000	100.331999
2245.000000	100.332194
2244.000000	100.332176
2243.000000	100.331992
2242.000000	100.331856
2241.000000	100.331906
2240.000000	100.332084
2239.000000	100.332217
2238.000000	100.332185
2237.000000	100.332022
2236.000000	100.331858
2235.000000	100.331781
2234.000000	100.331772
2233.000000	100.331806
2232.000000	100.331914
2231.000000	100.332111
2230.000000	100.332308
2229.000000	100.332385
2228.000000	100.332332
2227.000000	100.332254
2226.000000	100.332266
2225.000000	100.332393
2224.000000	100.332598
2223.000000	100.332842
2222.000000	100.333115
2221.000000	100.333411
2220.000000	100.333703
2219.000000	100.333938
2218.000000	100.334061
2217.000000	100.334069
2216.000000	100.334036
2215.000000	100.334091
2214.000000	100.334314
2213.000000	100.334696
2212.000000	100.335129
2211.000000	100.335479
2210.000000	100.335700
2209.000000	100.335833
2208.000000	100.335928
2207.000000	100.335993
2206.000000	100.336038
2205.000000	100.336117
2204.000000	100.336291
2203.000000	100.336550
2202.000000	100.336803
2201.000000	100.336974
2200.000000	100.337101
2199.000000	100.337305
2198.000000	100.337649
2197.000000	100.338053
2196.000000	100.338366
2195.000000	100.338515
2194.000000	100.338541
2193.000000	100.338548
2192.000000	100.338648
2191.000000	100.338930
2190.000000	100.339398
2189.000000	100.339904
2188.000000	100.340236
2187.000000	100.340331
2186.000000	100.340331
2185.000000	100.340383
2184.000000	100.340456
2183.000000	100.340498
2182.000000	100.340646
2181.000000	100.341080
2180.000000	100.341740
2179.000000	100.342385
2178.000000	100.342928
2177.000000	100.343505
2176.000000	100.344213
2175.000000	100.344952
2174.000000	100.345568
2173.000000	100.346021
2172.000000	100.346324
2171.000000	100.346495
2170.000000	100.346637
2169.000000	100.346921
2168.000000	100.347415
2167.000000	100.348018
2166.000000	100.348595
2165.000000	100.349121
2164.000000	100.349635
2163.000000	100.350122
2162.000000	100.350514
2161.000000	100.350804
2160.000000	100.351068
2159.000000	100.351396
2158.000000	100.351830
2157.000000	100.352355
2156.000000	100.352914
2155.000000	100.353436
2154.000000	100.353900
2153.000000	100.354351
2152.000000	100.354844
2151.000000	100.355385
2150.000000	100.355946
2149.000000	100.356506
2148.000000	100.357057
2147.000000	100.357595
2146.000000	100.358122
2145.000000	100.358648
2144.000000	100.359184
2143.000000	100.359735
2142.000000	100.360299
2141.000000	100.360873
2140.000000	100.361448
2139.000000	100.362012
2138.000000	100.362558
2137.000000	100.363085
2136.000000	100.363600
2135.000000	100.364112
2134.000000	100.364627
2133.000000	100.365149
2132.000000	100.365684
2131.000000	100.366234
2130.000000	100.366798
2129.000000	100.367373
2128.000000	100.367956
2127.000000	100.368544
2126.000000	100.369135
2125.000000	100.369726
2124.000000	100.370318
2123.000000	100.370911
2122.000000	100.371506
2121.000000	100.372102
2120.000000	100.372705
2119.000000	100.373318
2118.000000	100.373945
2117.000000	100.374584
2116.000000	100.375227
2115.000000	100.375859
2114.000000	100.376471
2113.000000	100.377088
2112.000000	100.377747
2111.000000	100.378463
2110.000000	100.379216
2109.000000	100.379973
2108.000000	100.380701
2107.000000	100.381377
2106.000000	100.382005
2105.000000	100.382609
2104.000000	100.383208
2103.000000	100.383819
2102.000000	100.384524
2101.000000	100.385435
2100.000000	100.386515
2099.000000	100.387489
2098.000000	100.388118
2097.000000	100.388447
2096.000000	100.388695
2095.000000	100.389008
2094.000000	100.389452
2093.000000	100.390173
2092.000000	100.391254
2091.000000	100.392397
2090.000000	100.393069
2089.000000	100.393118
2088.000000	100.392991
2087.000000	100.393124
2086.000000	100.393373
2085.000000	100.393314
2084.000000	100.392934
2083.000000	100.392673
2082.000000	100.392882
2081.000000	100.393551
2080.000000	100.394530
2079.000000	100.395710
2078.000000	100.396981
2077.000000	100.398211
2076.000000	100.399277
2075.000000	100.399944
2074.000000	100.399937
2073.000000	100.399349
2072.000000	100.398848
2071.000000	100.399041
2070.000000	100.399657
2069.000000	100.399852
2068.000000	100.399371
2067.000000	100.398925
2066.000000	100.399207
2065.000000	100.399909
2064.000000	100.400097
2063.000000	100.399370
2062.000000	100.398162
2061.000000	100.397145
2060.000000	100.396555
2059.000000	100.396213
2058.000000	100.395916
2057.000000	100.395644
2056.000000	100.395452
2055.000000	100.395320
2054.000000	100.395118
2053.000000	100.394709
2052.000000	100.394092
2051.000000	100.393386
2050.000000	100.392676
2049.000000	100.391941
2048.000000	100.391184
2047.000000	100.390523
2046.000000	100.390058
2045.000000	100.389689
2044.000000	100.389192
2043.000000	100.388473
2042.000000	100.387655
2041.000000	100.386915
2040.000000	100.386294
2039.000000	100.385727
2038.000000	100.385144
2037.000000	100.384486
2036.000000	100.383649
2035.000000	100.382554
2034.000000	100.381321
2033.000000	100.380277
2032.000000	100.379664
2031.000000	100.379385
2030.000000	100.379050
2029.000000	100.378351
2028.000000	100.377309
2027.000000	100.376242
2026.000000	100.375513
2025.000000	100.375270
2024.000000	100.375288
2023.000000	100.375081
2022.000000	100.374340
2021.000000	100.373145
2020.000000	100.371731
2019.000000	100.370170
2018.000000	100.368495
2017.000000	100.367021
2016.000000	100.366150
2015.000000	100.365823
2014.000000	100.365435
2013.000000	100.364402
2012.000000	100.362660
2011.000000	100.360643
2010.000000	100.358923
2009.000000	100.357880
2008.000000	100.357495
2007.000000	100.357378
2006.000000	100.357098
2005.000000	100.356500
2004.000000	100.355607
2003.000000	100.354371
2002.000000	100.352804
2001.000000	100.351193
2000.000000	100.349795
1999.000000	100.348453
1998.000000	100.347061
1997.000000	100.346200
1996.000000	100.346620
1995.000000	100.348155
1994.000000	100.349786
1993.000000	100.350897
1992.000000	100.351793
1991.000000	100.352649
1990.000000	100.352813
1989.000000	100.351812
1988.000000	100.350408
1987.000000	100.349834
1986.000000	100.350207
1985.000000	100.350472
1984.000000	100.349935
1983.000000	100.349147
1982.000000	100.349050
1981.000000	100.349760
1980.000000	100.350593
1979.000000	100.350968
1978.000000	100.350889
1977.000000	100.350599
1976.000000	100.350130
1975.000000	100.349339
1974.000000	100.348222
1973.000000	100.347001
1972.000000	100.345907
1971.000000	100.344979
1970.000000	100.344166
1969.000000	100.343601
1968.000000	100.343673
1967.000000	100.344678
1966.000000	100.346314
1965.000000	100.347651
1964.000000	100.347860
1963.000000	100.346895
1962.000000	100.345537
1961.000000	100.344676
1960.000000	100.344435
1959.000000	100.344200
1958.000000	100.343443
1957.000000	100.342244
1956.000000	100.341023
1955.000000	100.339994
1954.000000	100.339065
1953.000000	100.338121
1952.000000	100.337182
1951.000000	100.336320
1950.000000	100.335598
1949.000000	100.335125
1948.000000	100.335028
1947.000000	100.335287
1946.000000	100.335655
1945.000000	100.335754
1944.000000	100.335202
1943.000000	100.333780
1942.000000	100.331746
1941.000000	100.329951
1940.000000	100.329220
1939.000000	100.329640
1938.000000	100.330650
1937.000000	100.331635
1936.000000	100.332290
1935.000000	100.332407
1934.000000	100.331700
1933.000000	100.330117
1932.000000	100.328160
1931.000000	100.326579
1930.000000	100.325702
1929.000000	100.325235
1928.000000	100.324624
1927.000000	100.323427
1926.000000	100.321576
1925.000000	100.319561
1924.000000	100.318333
1923.000000	100.318528
1922.000000	100.319652
1921.000000	100.320405
1920.000000	100.319805
1919.000000	100.317808
1918.000000	100.315168
1917.000000	100.312805
1916.000000	100.311133
1915.000000	100.309902
1914.000000	100.308666
1913.000000	100.307292
1912.000000	100.305944
1911.000000	100.304624
1910.000000	100.302976
1909.000000	100.300774
1908.000000	100.298490
1907.000000	100.296900
1906.000000	100.295999
1905.000000	100.294617
1904.000000	100.291596
1903.000000	100.287342
1902.000000	100.283741
1901.000000	100.282070
1900.000000	100.281345
1899.000000	100.279452
1898.000000	100.275676
1897.000000	100.271143
1896.000000	100.266882
1895.000000	100.262689
1894.000000	100.258701
1893.000000	100.256596
1892.000000	100.257724
1891.000000	100.260984
1890.000000	100.263510
1889.000000	100.263553
1888.000000	100.261997
1887.000000	100.260325
1886.000000	100.258563
1885.000000	100.256032
1884.000000	100.252798
1883.000000	100.249665
1882.000000	100.247370
1881.000000	100.246170
1880.000000	100.245730
1879.000000	100.245198
1878.000000	100.243916
1877.000000	100.242245
1876.000000	100.241267
1875.000000	100.241725
1874.000000	100.243627
1873.000000	100.246562
1872.000000	100.249740
1871.000000	100.251912
1870.000000	100.252271
1869.000000	100.251643
1868.000000	100.251591
1867.000000	100.252111
1866.000000	100.251696
1865.000000	100.249844
1864.000000	100.248228
1863.000000	100.248867
1862.000000	100.251903
1861.000000	100.255716
1860.000000	100.258757
1859.000000	100.260474
1858.000000	100.260776
1857.000000	100.259894
1856.000000	100.258937
1855.000000	100.259645
1854.000000	100.263182
1853.000000	100.269230
1852.000000	100.276101
1851.000000	100.281672
1850.000000	100.284536
1849.000000	100.284752
1848.000000	100.283770
1847.000000	100.283291
1846.000000	100.284129
1845.000000	100.286180
1844.000000	100.288874
1843.000000	100.291690
1842.000000	100.294370
1841.000000	100.296462
1840.000000	100.297467
1839.000000	100.297483
1838.000000	100.297378
1837.000000	100.298073
1836.000000	100.299573
1835.000000	100.300893
1834.000000	100.301137
1833.000000	100.300492
1832.000000	100.300017
1831.000000	100.300549
1830.000000	100.301656
1829.000000	100.302131
1828.000000	100.302106
1827.000000	100.302921
1826.000000	100.305248
1825.000000	100.308191
1824.000000	100.310010
1823.000000	100.309865
1822.000000	100.308120
1821.000000	100.305613
1820.000000	100.303342
1819.000000	100.302214
1818.000000	100.302614
1817.000000	100.304219
1816.000000	100.306211
1815.000000	100.307674
1814.000000	100.307917
1813.000000	100.306812
1812.000000	100.305115
1811.000000	100.304091
1810.000000	100.304327
1809.000000	100.305275
1808.000000	100.306037
1807.000000	100.306179
1806.000000	100.305900
1805.000000	100.305869
1804.000000	100.306840
1803.000000	100.308983
1802.000000	100.311356
1801.000000	100.312433
1800.000000	100.311645
1799.000000	100.310064
1798.000000	100.309139
1797.000000	100.309413
1796.000000	100.310687
1795.000000	100.312672
1794.000000	100.315082
1793.000000	100.317390
1792.000000	100.318862
1791.000000	100.319279
1790.000000	100.319256
1789.000000	100.319468
1788.000000	100.320400
1787.000000	100.322612
1786.000000	100.326373
1785.000000	100.330866
1784.000000	100.334526
1783.000000	100.336698
1782.000000	100.338149
1781.000000	100.339849
1780.000000	100.341545
1779.000000	100.342278
1778.000000	100.342064
1777.000000	100.342043
1776.000000	100.343288
1775.000000	100.346071
1774.000000	100.350296
1773.000000	100.355846
1772.000000	100.361286
1771.000000	100.364646
1770.000000	100.366219
1769.000000	100.367503
1768.000000	100.369359
1767.000000	100.371576
1766.000000	100.373296
1765.000000	100.373995
1764.000000	100.374146
1763.000000	100.375312
1762.000000	100.378692
1761.000000	100.383479
1760.000000	100.388498
1759.000000	100.394082
1758.000000	100.400999
1757.000000	100.408190
1756.000000	100.412637
1755.000000	100.413209
1754.000000	100.412292
1753.000000	100.412988
1752.000000	100.416427
1751.000000	100.421141
1750.000000	100.425675
1749.000000	100.430809
1748.000000	100.436849
1747.000000	100.441574
1746.000000	100.442986
1745.000000	100.442096
1744.000000	100.441996
1743.000000	100.444433
1742.000000	100.447714
1741.000000	100.448644
1740.000000	100.446447
1739.000000	100.444191
1738.000000	100.445156
1737.000000	100.448716
1736.000000	100.451500
1735.000000	100.450410
1734.000000	100.445079
1733.000000	100.439055
1732.000000	100.435866
1731.000000	100.433467
1730.000000	100.428767
1729.000000	100.422334
1728.000000	100.417338
1727.000000	100.415839
1726.000000	100.416875
1725.000000	100.417635
1724.000000	100.415719
1723.000000	100.411083
1722.000000	100.405785
1721.000000	100.401467
1720.000000	100.397977
1719.000000	100.394647
1718.000000	100.391864
1717.000000	100.390333
1716.000000	100.390757
1715.000000	100.392160
1714.000000	100.391937
1713.000000	100.388979
1712.000000	100.384321
1711.000000	100.379282
1710.000000	100.374541
1709.000000	100.370678
1708.000000	100.368272
1707.000000	100.367174
1706.000000	100.366025
1705.000000	100.363052
1704.000000	100.358157
1703.000000	100.352716
1702.000000	100.347913
1701.000000	100.344650
1700.000000	100.342809
1699.000000	100.340592
1698.000000	100.336927
1697.000000	100.332101
1696.000000	100.327198
1695.000000	100.323264
1694.000000	100.320368
1693.000000	100.317666
1692.000000	100.314541
1691.000000	100.311073
1690.000000	100.307596
1689.000000	100.304252
1688.000000	100.300979
1687.000000	100.297670
1686.000000	100.294134
1685.000000	100.290450
1684.000000	100.286973
1683.000000	100.283785
1682.000000	100.281246
1681.000000	100.279066
1680.000000	100.276819
1679.000000	100.274632
1678.000000	100.272643
1677.000000	100.270798
1676.000000	100.269153
1675.000000	100.267659
1674.000000	100.265583
1673.000000	100.261937
1672.000000	100.256203
1671.000000	100.249399
1670.000000	100.244282
1669.000000	100.242326
1668.000000	100.242060
1667.000000	100.241656
1666.000000	100.240535
1665.000000	100.238674
1664.000000	100.236227
1663.000000	100.233771
1662.000000	100.231886
1661.000000	100.230577
1660.000000	100.229053
1659.000000	100.226502
1658.000000	100.223353
1657.000000	100.220727
1656.000000	100.218577
1655.000000	100.214964
1654.000000	100.208654
1653.000000	100.199796
1652.000000	100.192345
1651.000000	100.190456
1650.000000	100.188474
1649.000000	100.180640
1648.000000	100.169333
1647.000000	100.162149
1646.000000	100.161616
1645.000000	100.164281
1644.000000	100.167742
1643.000000	100.171332
1642.000000	100.174313
1641.000000	100.175672
1640.000000	100.174905
1639.000000	100.172371
1638.000000	100.169120
1637.000000	100.167023
1636.000000	100.167408
1635.000000	100.167332
1634.000000	100.165235
1633.000000	100.163076
1632.000000	100.161946
1631.000000	100.161700
1630.000000	100.161720
1629.000000	100.161978
1628.000000	100.163731
1627.000000	100.167614
1626.000000	100.171899
1625.000000	100.174240
1624.000000	100.174792
1623.000000	100.175790
1622.000000	100.178019
1621.000000	100.180356
1620.000000	100.181772
1619.000000	100.182657
1618.000000	100.184459
1617.000000	100.187803
1616.000000	100.191621
1615.000000	100.196125
1614.000000	100.202016
1613.000000	100.208285
1612.000000	100.213598
1611.000000	100.217080
1610.000000	100.218040
1609.000000	100.216699
1608.000000	100.215172
1607.000000	100.216495
1606.000000	100.221990
1605.000000	100.230077
1604.000000	100.238108
1603.000000	100.244567
1602.000000	100.249393
1601.000000	100.253085
1600.000000	100.256369
1599.000000	100.260288
1598.000000	100.265669
1597.000000	100.272474
1596.000000	100.280071
1595.000000	100.287628
1594.000000	100.293927
1593.000000	100.297778
1592.000000	100.299368
1591.000000	100.300861
1590.000000	100.304792
1589.000000	100.311513
1588.000000	100.318895
1587.000000	100.324721
1586.000000	100.328813
1585.000000	100.332569
1584.000000	100.336939
1583.000000	100.341398
1582.000000	100.344967
1581.000000	100.347498
1580.000000	100.349517
1579.000000	100.351443
1578.000000	100.353534
1577.000000	100.355927
1576.000000	100.357710
1575.000000	100.358677
1574.000000	100.360846
1573.000000	100.364588
1572.000000	100.368622
1571.000000	100.372484
1570.000000	100.376835
1569.000000	100.381589
1568.000000	100.386049
1567.000000	100.390285
1566.000000	100.394555
1565.000000	100.398614
1564.000000	100.401302
1563.000000	100.401639
1562.000000	100.399733
1561.000000	100.396833
1560.000000	100.395815
1559.000000	100.400871
1558.000000	100.403542
1557.000000	100.403876
1556.000000	100.407346
1555.000000	100.413386
1554.000000	100.419953
1553.000000	100.424701
1552.000000	100.426795
1551.000000	100.426582
1550.000000	100.425339
1549.000000	100.424484
1548.000000	100.424997
1547.000000	100.426822
1546.000000	100.428778
1545.000000	100.429686
1544.000000	100.429526
1543.000000	100.429294
1542.000000	100.429705
1541.000000	100.430066
1540.000000	100.427675
1539.000000	100.421508
1538.000000	100.416845
1537.000000	100.415726
1536.000000	100.415137
1535.000000	100.413177
1534.000000	100.410464
1533.000000	100.408013
1532.000000	100.405780
1531.000000	100.403894
1530.000000	100.402745
1529.000000	100.402502
1528.000000	100.402969
1527.000000	100.403566
1526.000000	100.403634
1525.000000	100.402664
1524.000000	100.400248
1523.000000	100.396306
1522.000000	100.392100
1521.000000	100.389676
1520.000000	100.389876
1519.000000	100.391599
1518.000000	100.393040
1517.000000	100.393172
1516.000000	100.391938
1515.000000	100.390260
1514.000000	100.389124
1513.000000	100.388619
1512.000000	100.388240
1511.000000	100.387522
1510.000000	100.386424
1509.000000	100.385549
1508.000000	100.386278
1507.000000	100.389010
1506.000000	100.389878
1505.000000	100.388081
1504.000000	100.386656
1503.000000	100.386430
1502.000000	100.386724
1501.000000	100.386680
1500.000000	100.385583
1499.000000	100.383454
1498.000000	100.381580
1497.000000	100.381553
1496.000000	100.383163
1495.000000	100.384476
1494.000000	100.383905
1493.000000	100.381390
1492.000000	100.378719
1491.000000	100.379026
1490.000000	100.383663
1489.000000	100.389166
1488.000000	100.391732
1487.000000	100.392048
1486.000000	100.392493
1485.000000	100.393789
1484.000000	100.395129
1483.000000	100.395794
1482.000000	100.395805
1481.000000	100.395093
1480.000000	100.393520
1479.000000	100.392045
1478.000000	100.392675
1477.000000	100.396591
1476.000000	100.402360
1475.000000	100.407531
1474.000000	100.412160
1473.000000	100.418363
1472.000000	100.425497
1471.000000	100.431367
1470.000000	100.436515
1469.000000	100.442177
1468.000000	100.447744
1467.000000	100.451289
1466.000000	100.451379
1465.000000	100.448774
1464.000000	100.445823
1463.000000	100.444495
1462.000000	100.445093
1461.000000	100.446529
1460.000000	100.447483
1459.000000	100.447485
1458.000000	100.447395
1457.000000	100.446251
1456.000000	100.442415
1455.000000	100.438912
1454.000000	100.437043
1453.000000	100.434787
1452.000000	100.431220
1451.000000	100.427191
1450.000000	100.424700
1449.000000	100.425141
1448.000000	100.427283
1447.000000	100.427226
1446.000000	100.422437
1445.000000	100.414417
1444.000000	100.406645
1443.000000	100.401588
1442.000000	100.399749
1441.000000	100.400576
1440.000000	100.403246
1439.000000	100.406230
1438.000000	100.406738
1437.000000	100.401951
1436.000000	100.392668
1435.000000	100.384058
1434.000000	100.379361
1433.000000	100.377603
1432.000000	100.377057
1431.000000	100.377060
1430.000000	100.378069
1429.000000	100.380653
1428.000000	100.384156
1427.000000	100.386572
1426.000000	100.386143
1425.000000	100.383534
1424.000000	100.381584
1423.000000	100.382027
1422.000000	100.383699
1421.000000	100.384554
1420.000000	100.384003
1419.000000	100.383300
1418.000000	100.383403
1417.000000	100.384348
1416.000000	100.386177
1415.000000	100.388708
1414.000000	100.391052
1413.000000	100.392319
1412.000000	100.392980
1411.000000	100.394617
1410.000000	100.397960
1409.000000	100.402043
1408.000000	100.405689
1407.000000	100.408799
1406.000000	100.411735
1405.000000	100.414175
1404.000000	100.415372
1403.000000	100.415671
1402.000000	100.416484
1401.000000	100.418921
1400.000000	100.423222
1399.000000	100.428359
1398.000000	100.432329
1397.000000	100.433855
1396.000000	100.433246
1395.000000	100.431877
1394.000000	100.430954
1393.000000	100.430653
1392.000000	100.430717
1391.000000	100.431350
1390.000000	100.433073
1389.000000	100.435980
1388.000000	100.439324
1387.000000	100.441929
1386.000000	100.443134
1385.000000	100.443073
1384.000000	100.442185
1383.000000	100.441146
1382.000000	100.440895
1381.000000	100.442016
1380.000000	100.444165
1379.000000	100.446238
1378.000000	100.447226
1377.000000	100.446964
1376.000000	100.446152
1375.000000	100.445843
1374.000000	100.446475
1373.000000	100.447306
1372.000000	100.447283
1371.000000	100.446225
1370.000000	100.444905
1369.000000	100.444284
1368.000000	100.444616
1367.000000	100.445467
1366.000000	100.446479
1365.000000	100.447647
1364.000000	100.448786
1363.000000	100.449194
1362.000000	100.448381
1361.000000	100.446925
1360.000000	100.445903
1359.000000	100.445598
1358.000000	100.445464
1357.000000	100.444956
1356.000000	100.444036
1355.000000	100.443087
1354.000000	100.442645
1353.000000	100.443141
1352.000000	100.444552
1351.000000	100.446214
1350.000000	100.447271
1349.000000	100.447516
1348.000000	100.447487
1347.000000	100.447707
1346.000000	100.448146
1345.000000	100.448435
1344.000000	100.448232
1343.000000	100.447313
1342.000000	100.445683
1341.000000	100.443767
1340.000000	100.442203
1339.000000	100.441263
1338.000000	100.440826
1337.000000	100.440784
1336.000000	100.440850
1335.000000	100.440402
1334.000000	100.439344
1333.000000	100.438842
1332.000000	100.440299
1331.000000	100.443518
1330.000000	100.446754
1329.000000	100.448795
1328.000000	100.449953
1327.000000	100.450624
1326.000000	100.450151
1325.000000	100.448107
1324.000000	100.445726
1323.000000	100.444979
1322.000000	100.446454
1321.000000	100.448738
1320.000000	100.449829
1319.000000	100.448897
1318.000000	100.446838
1317.000000	100.445378
1316.000000	100.445555
1315.000000	100.446857
1314.000000	100.447806
1313.000000	100.447501
1312.000000	100.446567
1311.000000	100.446381
1310.000000	100.447445
1309.000000	100.448729
1308.000000	100.448677
1307.000000	100.446772
1306.000000	100.444152
1305.000000	100.442664
1304.000000	100.443302
1303.000000	100.445608
1302.000000	100.448323
1301.000000	100.450281
1300.000000	100.450760
1299.000000	100.449576
1298.000000	100.447226
1297.000000	100.444598
1296.000000	100.442186
1295.000000	100.439926
1294.000000	100.438121
1293.000000	100.437802
1292.000000	100.439566
1291.000000	100.442528
1290.000000	100.445214
1289.000000	100.447026
1288.000000	100.447746
1287.000000	100.446124
1286.000000	100.440744
1285.000000	100.432497
1284.000000	100.424717
1283.000000	100.420102
1282.000000	100.418431
1281.000000	100.417678
1280.000000	100.416328
1279.000000	100.414198
1278.000000	100.412319
1277.000000	100.412633
1276.000000	100.416385
1275.000000	100.421956
1274.000000	100.425614
1273.000000	100.425348
1272.000000	100.422613
1271.000000	100.419595
1270.000000	100.416721
1269.000000	100.414239
1268.000000	100.413840
1267.000000	100.416018
1266.000000	100.417383
1265.000000	100.413949
1264.000000	100.406784
1263.000000	100.401450
1262.000000	100.401334
1261.000000	100.404061
1260.000000	100.405498
1259.000000	100.405119
1258.000000	100.405467
1257.000000	100.407210
1256.000000	100.406881
1255.000000	100.400451
1254.000000	100.388603
1253.000000	100.377171
1252.000000	100.371351
1251.000000	100.369998
1250.000000	100.367080
1249.000000	100.358676
1248.000000	100.346725
1247.000000	100.335474
1246.000000	100.326310
1245.000000	100.317446
1244.000000	100.307115
1243.000000	100.295300
1242.000000	100.283335
1241.000000	100.273533
1240.000000	100.268377
1239.000000	100.268161
1238.000000	100.269500
1237.000000	100.267425
1236.000000	100.258746
1235.000000	100.243190
1234.000000	100.222910
1233.000000	100.201969
1232.000000	100.184565
1231.000000	100.171727
1230.000000	100.160379
1229.000000	100.146872
1228.000000	100.130106
1227.000000	100.109941
1226.000000	100.084679
1225.000000	100.052765
1224.000000	100.015899
1223.000000	99.977980
1222.000000	99.941387
1221.000000	99.906011
1220.000000	99.870716
1219.000000	99.833658
1218.000000	99.792726
1217.000000	99.748441
1216.000000	99.705016
1215.000000	99.665273
1214.000000	99.625661
1213.000000	99.580047
1212.000000	99.527475
1211.000000	99.472146
1210.000000	99.416455
1209.000000	99.358903
1208.000000	99.299416
1207.000000	99.241769
1206.000000	99.189184
1205.000000	99.141140
1204.000000	99.095656
1203.000000	99.051096
1202.000000	99.005078
1201.000000	98.955643
1200.000000	98.904666
1199.000000	98.856484
1198.000000	98.811852
1197.000000	98.766658
1196.000000	98.717572
1195.000000	98.665475
1194.000000	98.612494
1193.000000	98.559361
1192.000000	98.506849
1191.000000	98.456214
1190.000000	98.406674
1189.000000	98.355371
1188.000000	98.300862
1187.000000	98.243854
1186.000000	98.184316
1185.000000	98.121581
1184.000000	98.057961
1183.000000	97.998124
1182.000000	97.943263
1181.000000	97.889205
1180.000000	97.831511
1179.000000	97.769302
1178.000000	97.703552
1177.000000	97.635346
1176.000000	97.566597
1175.000000	97.498568
1174.000000	97.428668
1173.000000	97.352657
1172.000000	97.270972
1171.000000	97.188934
1170.000000	97.110011
1169.000000	97.033130
1168.000000	96.957527
1167.000000	96.885991
1166.000000	96.822631
1165.000000	96.771786
1164.000000	96.739270
1163.000000	96.729234
1162.000000	96.738836
1161.000000	96.760516
1160.000000	96.788920
1159.000000	96.819832
1158.000000	96.843784
1157.000000	96.849060
1156.000000	96.832226
1155.000000	96.799416
1154.000000	96.756836
1153.000000	96.706576
1152.000000	96.652292
1151.000000	96.600291
1150.000000	96.551464
1149.000000	96.499554
1148.000000	96.441234
1147.000000	96.381334
1146.000000	96.324504
1145.000000	96.268405
1144.000000	96.209810
1143.000000	96.151222
1142.000000	96.095998
1141.000000	96.041478
1140.000000	95.982107
1139.000000	95.916189
1138.000000	95.846222
1137.000000	95.776049
1136.000000	95.710209
1135.000000	95.651806
1134.000000	95.598133
1133.000000	95.542503
1132.000000	95.482552
1131.000000	95.422268
1130.000000	95.364088
1129.000000	95.304312
1128.000000	95.238817
1127.000000	95.168288
1126.000000	95.095670
1125.000000	95.023718
1124.000000	94.956828
1123.000000	94.898784
1122.000000	94.845452
1121.000000	94.785698
1120.000000	94.713521
1119.000000	94.634962
1118.000000	94.560531
1117.000000	94.495444
1116.000000	94.439082
1115.000000	94.387604
1114.000000	94.334104
1113.000000	94.272283
1112.000000	94.203515
1111.000000	94.135518
1110.000000	94.071996
1109.000000	94.009395
1108.000000	93.945495
1107.000000	93.883714
1106.000000	93.825875
1105.000000	93.768117
1104.000000	93.707893
1103.000000	93.648366
1102.000000	93.592069
1101.000000	93.536192
1100.000000	93.477704
1099.000000	93.417604
1098.000000	93.357704
1097.000000	93.299142
1096.000000	93.245350
1095.000000	93.199661
1094.000000	93.158606
1093.000000	93.115170
1092.000000	93.069735
1091.000000	93.028965
1090.000000	92.992208
1089.000000	92.949106
1088.000000	92.894433
1087.000000	92.836617
1086.000000	92.787536
1085.000000	92.751253
1084.000000	92.725699
1083.000000	92.707122
1082.000000	92.689222
1081.000000	92.665430
1080.000000	92.635432
1079.000000	92.603699
1078.000000	92.570948
1077.000000	92.534261
1076.000000	92.494836
1075.000000	92.455536
1074.000000	92.410795
1073.000000	92.350704
1072.000000	92.276416
1071.000000	92.199532
1070.000000	92.123112
1069.000000	92.035440
1068.000000	91.927466
1067.000000	91.804833
1066.000000	91.677261
1065.000000	91.546663
1064.000000	91.413128
1063.000000	91.283372
1062.000000	91.165128
1061.000000	91.059576
1060.000000	90.964685
1059.000000	90.879055
1058.000000	90.798270
1057.000000	90.714937
1056.000000	90.626186
1055.000000	90.534067
1054.000000	90.436568
1053.000000	90.327379
1052.000000	90.207729
1051.000000	90.088149
1050.000000	89.973494
1049.000000	89.857105
1048.000000	89.734756
1047.000000	89.612177
1046.000000	89.493695
1045.000000	89.374619
1044.000000	89.249213
1043.000000	89.116831
1042.000000	88.977546
1041.000000	88.831420
1040.000000	88.684963
1039.000000	88.548673
1038.000000	88.425197
1037.000000	88.308900
1036.000000	88.198300
1035.000000	88.098175
1034.000000	88.008235
1033.000000	87.922147
1032.000000	87.839936
1031.000000	87.768768
1030.000000	87.708893
1029.000000	87.651440
1028.000000	87.593064
1027.000000	87.540060
1026.000000	87.494767
1025.000000	87.450480
1024.000000	87.403105
1023.000000	87.355628
1022.000000	87.308255
1021.000000	87.257097
1020.000000	87.205507
1019.000000	87.163150
1018.000000	87.129830
1017.000000	87.093094
1016.000000	87.046016
1015.000000	86.995318
1014.000000	86.948205
1013.000000	86.903451
1012.000000	86.859102
1011.000000	86.816731
1010.000000	86.774217
1009.000000	86.726468
1008.000000	86.677313
1007.000000	86.639051
1006.000000	86.616311
1005.000000	86.600935
1004.000000	86.585274
1003.000000	86.569415
1002.000000	86.553230
1001.000000	86.533698
1000.000000	86.513098
999.000000	86.498085
998.000000	86.487997
997.000000	86.475884
996.000000	86.463385
995.000000	86.461666
994.000000	86.474035
993.000000	86.489761
992.000000	86.499080
991.000000	86.503690
990.000000	86.509019
989.000000	86.516861
988.000000	86.529030
987.000000	86.548609
986.000000	86.575078
985.000000	86.607065
984.000000	86.649972
983.000000	86.710352
982.000000	86.783172
981.000000	86.856478
980.000000	86.929006
979.000000	87.010732
978.000000	87.105574
977.000000	87.206650
976.000000	87.309803
975.000000	87.418907
974.000000	87.535463
973.000000	87.654794
972.000000	87.774991
971.000000	87.899345
970.000000	88.028643
969.000000	88.160929
968.000000	88.298452
967.000000	88.443767
966.000000	88.589743
965.000000	88.725646
964.000000	88.853118
963.000000	88.983961
962.000000	89.121977
961.000000	89.259108
960.000000	89.389598
959.000000	89.515118
958.000000	89.635427
957.000000	89.747375
956.000000	89.854721
955.000000	89.965826
954.000000	90.078940
953.000000	90.182265
952.000000	90.271223
951.000000	90.353395
950.000000	90.433924
949.000000	90.508985
948.000000	90.577922
947.000000	90.648757
946.000000	90.725191
945.000000	90.798910
944.000000	90.861857
943.000000	90.917399
942.000000	90.973321
941.000000	91.031102
940.000000	91.087791
939.000000	91.142195
938.000000	91.194101
937.000000	91.242346
936.000000	91.287206
935.000000	91.330577
934.000000	91.372402
933.000000	91.411751
932.000000	91.451640
931.000000	91.496908
930.000000	91.547668
929.000000	91.601130
928.000000	91.658316
927.000000	91.720975
926.000000	91.783424
925.000000	91.837269
924.000000	91.884190
923.000000	91.934363
922.000000	91.991357
921.000000	92.047577
920.000000	92.095578
919.000000	92.135321
918.000000	92.169784
917.000000	92.202362
916.000000	92.239175
915.000000	92.284906
914.000000	92.335647
913.000000	92.384414
912.000000	92.433606
911.000000	92.492613
910.000000	92.563984
909.000000	92.642752
908.000000	92.728961
907.000000	92.828409
906.000000	92.939555
905.000000	93.052254
904.000000	93.162876
903.000000	93.279597
902.000000	93.409078
901.000000	93.548070
900.000000	93.690930
899.000000	93.835756
898.000000	93.980017
897.000000	94.119477
896.000000	94.254758
895.000000	94.390729
894.000000	94.526508
893.000000	94.654013
892.000000	94.769275
891.000000	94.877873
890.000000	94.986538
889.000000	95.096122
888.000000	95.205061
887.000000	95.312753
886.000000	95.416940
885.000000	95.514356
884.000000	95.606595
883.000000	95.699452
882.000000	95.794326
881.000000	95.886049
880.000000	95.971424
879.000000	96.054802
878.000000	96.143711
877.000000	96.243280
876.000000	96.354464
875.000000	96.471651
874.000000	96.582855
873.000000	96.679530
872.000000	96.766351
871.000000	96.855681
870.000000	96.953503
869.000000	97.056402
868.000000	97.159390
867.000000	97.258637
866.000000	97.349372
865.000000	97.431054
864.000000	97.514063
863.000000	97.611191
862.000000	97.720405
861.000000	97.824918
860.000000	97.912682
859.000000	97.987469
858.000000	98.058362
857.000000	98.126633
856.000000	98.188279
855.000000	98.243667
854.000000	98.298455
853.000000	98.357178
852.000000	98.419728
851.000000	98.482891
850.000000	98.543387
849.000000	98.600000
848.000000	98.652097
847.000000	98.694886
846.000000	98.719623
845.000000	98.723316
844.000000	98.716017
843.000000	98.712146
842.000000	98.714623
841.000000	98.713172
840.000000	98.697608
839.000000	98.666124
838.000000	98.620945
837.000000	98.564278
836.000000	98.501870
835.000000	98.444543
834.000000	98.401388
833.000000	98.373825
832.000000	98.358021
831.000000	98.349505
830.000000	98.344385
829.000000	98.340349
828.000000	98.338136
827.000000	98.339299
826.000000	98.343381
825.000000	98.351048
824.000000	98.366332
823.000000	98.387858
822.000000	98.401477
821.000000	98.392202
820.000000	98.362070
819.000000	98.327663
818.000000	98.300945
817.000000	98.279162
816.000000	98.251558
815.000000	98.207671
814.000000	98.139223
813.000000	98.041616
812.000000	97.914952
811.000000	97.758114
810.000000	97.562789
809.000000	97.320971
808.000000	97.038135
807.000000	96.730020
806.000000	96.405525
805.000000	96.063865
804.000000	95.712119
803.000000	95.373537
802.000000	95.071526
801.000000	94.815098
800.000000	94.606255
799.000000	94.450961
798.000000	94.355207
797.000000	94.318457
796.000000	94.335947
795.000000	94.398021
794.000000	94.483017
793.000000	94.562424
792.000000	94.620829
791.000000	94.663939
790.000000	94.702421
789.000000	94.735021
788.000000	94.751322
787.000000	94.742759
786.000000	94.705001
785.000000	94.635811
784.000000	94.537359
783.000000	94.418743
782.000000	94.293588
781.000000	94.177426
780.000000	94.086411
779.000000	94.031891
778.000000	94.015357
777.000000	94.034478
776.000000	94.091969
775.000000	94.189154
774.000000	94.312717
773.000000	94.440566
772.000000	94.562411
771.000000	94.683185
770.000000	94.804469
769.000000	94.914353
768.000000	94.999518
767.000000	95.057792
766.000000	95.095645
765.000000	95.122548
764.000000	95.150824
763.000000	95.190729
762.000000	95.239977
761.000000	95.285980
760.000000	95.323043
759.000000	95.360382
758.000000	95.410036
757.000000	95.475003
756.000000	95.552432
755.000000	95.638709
754.000000	95.726138
753.000000	95.803001
752.000000	95.863188
751.000000	95.910612
750.000000	95.951195
749.000000	95.987576
748.000000	96.025060
747.000000	96.073993
746.000000	96.139866
745.000000	96.217611
744.000000	96.301488
743.000000	96.393874
742.000000	96.497570
741.000000	96.606035
740.000000	96.710063
739.000000	96.810477
738.000000	96.915678
737.000000	97.027277
736.000000	97.134806
735.000000	97.225680
734.000000	97.296315
733.000000	97.353056
732.000000	97.404990
731.000000	97.456066
730.000000	97.502830
729.000000	97.539686
728.000000	97.566059
727.000000	97.587423
726.000000	97.610223
725.000000	97.638289
724.000000	97.673582
723.000000	97.716420
722.000000	97.764038
721.000000	97.812467
720.000000	97.861652
719.000000	97.916133
718.000000	97.978979
717.000000	98.047025
716.000000	98.112982
715.000000	98.170437
714.000000	98.216991
713.000000	98.255023
712.000000	98.289545
711.000000	98.323062
710.000000	98.351833
709.000000	98.368882
708.000000	98.370721
707.000000	98.359475
706.000000	98.338967
705.000000	98.310739
704.000000	98.273453
703.000000	98.223218
702.000000	98.153226
701.000000	98.054753
700.000000	97.920372
699.000000	97.748471
698.000000	97.549238
697.000000	97.349353
696.000000	97.187428
695.000000	97.098070
694.000000	97.095886
693.000000	97.170634
692.000000	97.292478
691.000000	97.424543
690.000000	97.541635
689.000000	97.642357
688.000000	97.738306
687.000000	97.830081
686.000000	97.903406
685.000000	97.952353
684.000000	97.992782
683.000000	98.043618
682.000000	98.104327
681.000000	98.160422
680.000000	98.204529
679.000000	98.242032
678.000000	98.279901
677.000000	98.320608
676.000000	98.364420
675.000000	98.408153
674.000000	98.446189
673.000000	98.479436
672.000000	98.517794
671.000000	98.565898
670.000000	98.613134
669.000000	98.645773
668.000000	98.673165
667.000000	98.720696
666.000000	98.787225
665.000000	98.851833
664.000000	98.905836
663.000000	98.950522
662.000000	98.984399
661.000000	99.002198
660.000000	99.004103
659.000000	98.998672
658.000000	98.994502
657.000000	98.995328
656.000000	99.003164
655.000000	99.017586
654.000000	99.031054
653.000000	99.033194
652.000000	99.022090
651.000000	99.006535
650.000000	98.998531
649.000000	99.010094
648.000000	99.052677
647.000000	99.126841
646.000000	99.213107
645.000000	99.287152
644.000000	99.345085
643.000000	99.401726
642.000000	99.465309
641.000000	99.526183
640.000000	99.570650
639.000000	99.594036
638.000000	99.600693
637.000000	99.602038
636.000000	99.615600
635.000000	99.655335
634.000000	99.719449
633.000000	99.796457
632.000000	99.880839
631.000000	99.971210
630.000000	100.056633
629.000000	100.118839
628.000000	100.148256
627.000000	100.150868
626.000000	100.144531
625.000000	100.153410
624.000000	100.197618
623.000000	100.276429
622.000000	100.363958
621.000000	100.433096
620.000000	100.476829
619.000000	100.497056
618.000000	100.491271
617.000000	100.466216
616.000000	100.448242
615.000000	100.456860
614.000000	100.476952
613.000000	100.481752
612.000000	100.471941
611.000000	100.466146
610.000000	100.462436
609.000000	100.437907
608.000000	100.387360
607.000000	100.339068
606.000000	100.324725
605.000000	100.350038
604.000000	100.401374
603.000000	100.461932
602.000000	100.512750
601.000000	100.531943
600.000000	100.504128
599.000000	100.433309
598.000000	100.348118
597.000000	100.289279
596.000000	100.283676
595.000000	100.321568
594.000000	100.358761
593.000000	100.356242
592.000000	100.317641
591.000000	100.279234
590.000000	100.268845
589.000000	100.285504
588.000000	100.313604
587.000000	100.337973
586.000000	100.350337
585.000000	100.357877
584.000000	100.378029
583.000000	100.410900
582.000000	100.429567
581.000000	100.417567
580.000000	100.401005
579.000000	100.419317
578.000000	100.475486
577.000000	100.539943
576.000000	100.588297
575.000000	100.604711
574.000000	100.570059
573.000000	100.483016
572.000000	100.383846
571.000000	100.329643
570.000000	100.342064
569.000000	100.401417
568.000000	100.483133
567.000000	100.564451
566.000000	100.607364
565.000000	100.583344
564.000000	100.509146
563.000000	100.427721
562.000000	100.355718
561.000000	100.282947
560.000000	100.221769
559.000000	100.207561
558.000000	100.239886
557.000000	100.270656
556.000000	100.268419
555.000000	100.254188
554.000000	100.259952
553.000000	100.288884
552.000000	100.328943
551.000000	100.371495
550.000000	100.404358
