4000	76.980247
3999	76.974888
3998	76.967955
3997	76.961479
3996	76.956896
3995	76.954667
3994	76.954712
3993	76.956476
3992	76.958659
3991	76.95983
3990	76.959536
3989	76.958361
3988	76.957185
3987	76.956472
3986	76.956064
3985	76.955506
3984	76.954544
3983	76.953121
3982	76.951203
3981	76.948646
3980	76.945336
3979	76.941655
3978	76.938434
3977	76.936241
3976	76.934854
3975	76.933593
3974	76.932143
3973	76.930792
3972	76.929821
3971	76.929
3970	76.927811
3969	76.926004
3968	76.923737
3967	76.921311
3966	76.918864
3965	76.916362
3964	76.913811
3963	76.911382
3962	76.90927
3961	76.90744
3960	76.905633
3959	76.903728
3958	76.901918
3957	76.900426
3956	76.899137
3955	76.897664
3954	76.895729
3953	76.893332
3952	76.890666
3951	76.887994
3950	76.885582
3949	76.883562
3948	76.881806
3947	76.880006
3946	76.877983
3945	76.875927
3944	76.874249
3943	76.873165
3942	76.872423
3941	76.871369
3940	76.869564
3939	76.867084
3938	76.864403
3937	76.861948
3936	76.859736
3935	76.857598
3934	76.855526
3933	76.853614
3932	76.8518
3931	76.849866
3930	76.847793
3929	76.845886
3928	76.844359
3927	76.843009
3926	76.841449
3925	76.839592
3924	76.837608
3923	76.835538
3922	76.833337
3921	76.831177
3920	76.829312
3919	76.82773
3918	76.826261
3917	76.824939
3916	76.82388
3915	76.822959
3914	76.821892
3913	76.820581
3912	76.81906
3911	76.817368
3910	76.815507
3909	76.813647
3908	76.811989
3907	76.810585
3906	76.8093
3905	76.807972
3904	76.806526
3903	76.804983
3902	76.803397
3901	76.801818
3900	76.800283
3899	76.798805
3898	76.797392
3897	76.796056
3896	76.794797
3895	76.793607
3894	76.792473
3893	76.791378
3892	76.790295
3891	76.789205
3890	76.788101
3889	76.786985
3888	76.785857
3887	76.784724
3886	76.783594
3885	76.78247
3884	76.781348
3883	76.780226
3882	76.779111
3881	76.778015
3880	76.776935
3879	76.775853
3878	76.774746
3877	76.773603
3876	76.772431
3875	76.77125
3874	76.770077
3873	76.768929
3872	76.767816
3871	76.766754
3870	76.765755
3869	76.764816
3868	76.763912
3867	76.763021
3866	76.762149
3865	76.761312
3864	76.760509
3863	76.759724
3862	76.75895
3861	76.758199
3860	76.757475
3859	76.756768
3858	76.756061
3857	76.755341
3856	76.754597
3855	76.753814
3854	76.752977
3853	76.752095
3852	76.751179
3851	76.750226
3850	76.74924
3849	76.748237
3848	76.747237
3847	76.746247
3846	76.74527
3845	76.744304
3844	76.743363
3843	76.742459
3842	76.741578
3841	76.740696
3840	76.739807
3839	76.738926
3838	76.738033
3837	76.737135
3836	76.73632
3835	76.735666
3834	76.735144
3833	76.734625
3832	76.734017
3831	76.733326
3830	76.732584
3829	76.731789
3828	76.730896
3827	76.729902
3826	76.728883
3825	76.727874
3824	76.726763
3823	76.725488
3822	76.724107
3821	76.722837
3820	76.721736
3819	76.720428
3818	76.718736
3817	76.716836
3816	76.715053
3815	76.713465
3814	76.711857
3813	76.710057
3812	76.70816
3811	76.706364
3810	76.704708
3809	76.703058
3808	76.701323
3807	76.699637
3806	76.698146
3805	76.696749
3804	76.695229
3803	76.693518
3802	76.691682
3801	76.689912
3800	76.688232
3799	76.686411
3798	76.684427
3797	76.682526
3796	76.68087
3795	76.679291
3794	76.677493
3793	76.675385
3792	76.673214
3791	76.671181
3790	76.669129
3789	76.666765
3788	76.664022
3787	76.661019
3786	76.658006
3785	76.655607
3784	76.654351
3783	76.653532
3782	76.651493
3781	76.647797
3780	76.644155
3779	76.642714
3778	76.643235
3777	76.643175
3776	76.641019
3775	76.638244
3774	76.637014
3773	76.637342
3772	76.63733
3771	76.636085
3770	76.634729
3769	76.634143
3768	76.632984
3767	76.630026
3766	76.626588
3765	76.625123
3764	76.625828
3763	76.626044
3762	76.623951
3761	76.621247
3760	76.619859
3759	76.619119
3758	76.617708
3757	76.616629
3756	76.616883
3755	76.617162
3754	76.616467
3753	76.616487
3752	76.618295
3751	76.618343
3750	76.613663
3749	76.607342
3748	76.603043
3747	76.599862
3746	76.595475
3745	76.590139
3744	76.587459
3743	76.585477
3742	76.577063
3741	76.563545
3740	76.552918
3739	76.548608
3738	76.546633
3737	76.542248
3736	76.536642
3735	76.533296
3734	76.531736
3733	76.529394
3732	76.526691
3731	76.524712
3730	76.52159
3729	76.515037
3728	76.505998
3727	76.498075
3726	76.493662
3725	76.491109
3724	76.487219
3723	76.480657
3722	76.471874
3721	76.462221
3720	76.453236
3719	76.445987
3718	76.440378
3717	76.435772
3716	76.430996
3715	76.425175
3714	76.419221
3713	76.414636
3712	76.410921
3711	76.405956
3710	76.398093
3709	76.387077
3708	76.373902
3707	76.36069
3706	76.349058
3705	76.338867
3704	76.328834
3703	76.318165
3702	76.307988
3701	76.300976
3700	76.298269
3699	76.297758
3698	76.296913
3697	76.295775
3696	76.294957
3695	76.292724
3694	76.287108
3693	76.279012
3692	76.270243
3691	76.260496
3690	76.249222
3689	76.240347
3688	76.239167
3687	76.243688
3686	76.245799
3685	76.241298
3684	76.232759
3683	76.224074
3682	76.215555
3681	76.205702
3680	76.196468
3679	76.190686
3678	76.186735
3677	76.180043
3676	76.171179
3675	76.167387
3674	76.167715
3673	76.161621
3672	76.146838
3671	76.130004
3670	76.116621
3669	76.10619
3668	76.09428
3667	76.079635
3666	76.065332
3665	76.053781
3664	76.044647
3663	76.036653
3662	76.028984
3661	76.020954
3660	76.011488
3659	75.998917
3658	75.983134
3657	75.967063
3656	75.95605
3655	75.951164
3654	75.947063
3653	75.940166
3652	75.933943
3651	75.932286
3650	75.932392
3649	75.927781
3648	75.916096
3647	75.89961
3646	75.880445
3645	75.860927
3644	75.844903
3643	75.836282
3642	75.834578
3641	75.834373
3640	75.829672
3639	75.81963
3638	75.808782
3637	75.800745
3636	75.794945
3635	75.789585
3634	75.785463
3633	75.783548
3632	75.782059
3631	75.778831
3630	75.772934
3629	75.766294
3628	75.762091
3627	75.756406
3626	75.744397
3625	75.729666
3624	75.716476
3623	75.703689
3622	75.689585
3621	75.677882
3620	75.675281
3619	75.683848
3618	75.698944
3617	75.713584
3616	75.724087
3615	75.731162
3614	75.737566
3613	75.744585
3612	75.750161
3611	75.751692
3610	75.751727
3609	75.757356
3608	75.772329
3607	75.791726
3606	75.805995
3605	75.81048
3604	75.808278
3603	75.805278
3602	75.805077
3601	75.807381
3600	75.809939
3599	75.810512
3598	75.810584
3597	75.814426
3596	75.82451
3595	75.838088
3594	75.850179
3593	75.857231
3592	75.859506
3591	75.860051
3590	75.86205
3589	75.86664
3588	75.872893
3587	75.879507
3586	75.884688
3585	75.88621
3584	75.883359
3583	75.87746
3582	75.870875
3581	75.866088
3580	75.864832
3579	75.866888
3578	75.870813
3577	75.875622
3576	75.881382
3575	75.888014
3574	75.894033
3573	75.897143
3572	75.896179
3571	75.892348
3570	75.88811
3569	75.885261
3568	75.883892
3567	75.883288
3566	75.883304
3565	75.884393
3564	75.887109
3563	75.891561
3562	75.896791
3561	75.901335
3560	75.904344
3559	75.905871
3558	75.906198
3557	75.905776
3556	75.905427
3555	75.906183
3554	75.908571
3553	75.912167
3552	75.915425
3551	75.916263
3550	75.913311
3549	75.907107
3548	75.899873
3547	75.894076
3546	75.891294
3545	75.892054
3544	75.895925
3543	75.901675
3542	75.907627
3541	75.912397
3540	75.915424
3539	75.91707
3538	75.918369
3537	75.920309
3536	75.923011
3535	75.925599
3534	75.927271
3533	75.92817
3532	75.929082
3531	75.930354
3530	75.931611
3529	75.932414
3528	75.932776
3527	75.932905
3526	75.932911
3525	75.932986
3524	75.933525
3523	75.934805
3522	75.936703
3521	75.938863
3520	75.941028
3519	75.943078
3518	75.944893
3517	75.946275
3516	75.947086
3515	75.947407
3514	75.947575
3513	75.948047
3512	75.949184
3511	75.951059
3510	75.953394
3509	75.955675
3508	75.957447
3507	75.958588
3506	75.959294
3505	75.959971
3504	75.960997
3503	75.962472
3502	75.964264
3501	75.966151
3500	75.967971
3499	75.969642
3498	75.971116
3497	75.972373
3496	75.973441
3495	75.974395
3494	75.975339
3493	75.976415
3492	75.977783
3491	75.979547
3490	75.981659
3489	75.983873
3488	75.985851
3487	75.987368
3486	75.988444
3485	75.989306
3484	75.990183
3483	75.991126
3482	75.992064
3481	75.99303
3480	75.994257
3479	75.995948
3478	75.997926
3477	75.999645
3476	76.000689
3475	76.001213
3474	76.001813
3473	76.002882
3472	76.004244
3471	76.005469
3470	76.006358
3469	76.006971
3468	76.007378
3467	76.00768
3466	76.008229
3465	76.009516
3464	76.011598
3463	76.013806
3462	76.015314
3461	76.015806
3460	76.015614
3459	76.015293
3458	76.015189
3457	76.015423
3456	76.016097
3455	76.017269
3454	76.018789
3453	76.020455
3452	76.022316
3451	76.02452
3450	76.026891
3449	76.028867
3448	76.030167
3447	76.031215
3446	76.032567
3445	76.034123
3444	76.035304
3443	76.03587
3442	76.036162
3441	76.036647
3440	76.037393
3439	76.038101
3438	76.038557
3437	76.038902
3436	76.039465
3435	76.040364
3434	76.041354
3433	76.042066
3432	76.042389
3431	76.04257
3430	76.042996
3429	76.043829
3428	76.044911
3427	76.045929
3426	76.046702
3425	76.047272
3424	76.047775
3423	76.048288
3422	76.048795
3421	76.049273
3420	76.049755
3419	76.050329
3418	76.051038
3417	76.051809
3416	76.052469
3415	76.052919
3414	76.05326
3413	76.05373
3412	76.054415
3411	76.055062
3410	76.055309
3409	76.055088
3408	76.054685
3407	76.054476
3406	76.05458
3405	76.0549
3404	76.055252
3403	76.055464
3402	76.055396
3401	76.055005
3400	76.054463
3399	76.054139
3398	76.054295
3397	76.054861
3396	76.055451
3395	76.055714
3394	76.055625
3393	76.055399
3392	76.055258
3391	76.055269
3390	76.055353
3389	76.055364
3388	76.055219
3387	76.055049
3386	76.055161
3385	76.055724
3384	76.056517
3383	76.057066
3382	76.057111
3381	76.056819
3380	76.056529
3379	76.056392
3378	76.056283
3377	76.05598
3376	76.055357
3375	76.054519
3374	76.053786
3373	76.053401
3372	76.053179
3371	76.052614
3370	76.051427
3369	76.049906
3368	76.048598
3367	76.047741
3366	76.047151
3365	76.046567
3364	76.045949
3363	76.045379
3362	76.044832
3361	76.044138
3360	76.043152
3359	76.04194
3358	76.040787
3357	76.039949
3356	76.039377
3355	76.038673
3354	76.037424
3353	76.035545
3352	76.033366
3351	76.031439
3350	76.030087
3349	76.029281
3348	76.028708
3347	76.027989
3346	76.026927
3345	76.025594
3344	76.024235
3343	76.023015
3342	76.021848
3341	76.020518
3340	76.018919
3339	76.017092
3338	76.015067
3337	76.012831
3336	76.010476
3335	76.008262
3334	76.006411
3333	76.004905
3332	76.003536
3331	76.002128
3330	76.000622
3329	75.998904
3328	75.996727
3327	75.993946
3326	75.990864
3325	75.988178
3324	75.986429
3323	75.985472
3322	75.984453
3321	75.982501
3320	75.979392
3319	75.975516
3318	75.971434
3317	75.967571
3316	75.964233
3315	75.961517
3314	75.959098
3313	75.956351
3312	75.952954
3311	75.949265
3310	75.945961
3309	75.943296
3308	75.940837
3307	75.937859
3306	75.933941
3305	75.929245
3304	75.924491
3303	75.92053
3302	75.917662
3301	75.915328
3300	75.912561
3299	75.908842
3298	75.904349
3297	75.899483
3296	75.894463
3295	75.889462
3294	75.8848
3293	75.88072
3292	75.877126
3291	75.873784
3290	75.870584
3289	75.867329
3288	75.863466
3287	75.858508
3286	75.852798
3285	75.847493
3284	75.843414
3283	75.840253
3282	75.837185
3281	75.833984
3280	75.83099
3279	75.828251
3278	75.825295
3277	75.821776
3276	75.817892
3275	75.813926
3274	75.80971
3273	75.804949
3272	75.79996
3271	75.795638
3270	75.792592
3269	75.790609
3268	75.788966
3267	75.787021
3266	75.78441
3265	75.781044
3264	75.777242
3263	75.773741
3262	75.771107
3261	75.768936
3260	75.765988
3259	75.761554
3258	75.756549
3257	75.752817
3256	75.75115
3255	75.750225
3254	75.747912
3253	75.743663
3252	75.739247
3251	75.736883
3250	75.736835
3249	75.737158
3248	75.735707
3247	75.732004
3246	75.727172
3245	75.722653
3244	75.719051
3243	75.715749
3242	75.711215
3241	75.704114
3240	75.694781
3239	75.68553
3238	75.678673
3237	75.674317
3236	75.670802
3235	75.667159
3234	75.664153
3233	75.662493
3232	75.66128
3231	75.659186
3230	75.65647
3229	75.654635
3228	75.654375
3227	75.654857
3226	75.654866
3225	75.65379
3224	75.6515
3223	75.648333
3222	75.645447
3221	75.644059
3220	75.643625
3219	75.641683
3218	75.636553
3217	75.629706
3216	75.624525
3215	75.622492
3214	75.621574
3213	75.618824
3212	75.613751
3211	75.608295
3210	75.604094
3209	75.60079
3208	75.597093
3207	75.592419
3206	75.586975
3205	75.581008
3204	75.57468
3203	75.568435
3202	75.56289
3201	75.558441
3200	75.555357
3199	75.553969
3198	75.554234
3197	75.555214
3196	75.555544
3195	75.554622
3194	75.552929
3193	75.551101
3192	75.548969
3191	75.545691
3190	75.540674
3189	75.534296
3188	75.52787
3187	75.522858
3186	75.519845
3185	75.518157
3184	75.516426
3183	75.513715
3182	75.510112
3181	75.506362
3180	75.503133
3179	75.500566
3178	75.498369
3177	75.496219
3176	75.494036
3175	75.491789
3174	75.489155
3173	75.48569
3172	75.481435
3171	75.476959
3170	75.472567
3169	75.46797
3168	75.463187
3167	75.459303
3166	75.45743
3165	75.456994
3164	75.455765
3163	75.452099
3162	75.446605
3161	75.441416
3160	75.437993
3159	75.436026
3158	75.434099
3157	75.431059
3156	75.427064
3155	75.423556
3154	75.421995
3153	75.422415
3152	75.423318
3151	75.423135
3150	75.421751
3149	75.420162
3148	75.41896
3147	75.417644
3146	75.415452
3145	75.412409
3144	75.409276
3143	75.406669
3142	75.404528
3141	75.402486
3140	75.400527
3139	75.399067
3138	75.39838
3137	75.398118
3136	75.397562
3135	75.396344
3134	75.394765
3133	75.393372
3132	75.392351
3131	75.391405
3130	75.390144
3129	75.388507
3128	75.386783
3127	75.385275
3126	75.383966
3125	75.382597
3124	75.381018
3123	75.379392
3122	75.377981
3121	75.37682
3120	75.375672
3119	75.374316
3118	75.372809
3117	75.371439
3116	75.370427
3115	75.369748
3114	75.36918
3113	75.368448
3112	75.367429
3111	75.366165
3110	75.364824
3109	75.36363
3108	75.36271
3107	75.362002
3106	75.361303
3105	75.360453
3104	75.359451
3103	75.358379
3102	75.357295
3101	75.356259
3100	75.355413
3099	75.354874
3098	75.354502
3097	75.353917
3096	75.352869
3095	75.351478
3094	75.35002
3093	75.348519
3092	75.346862
3091	75.34524
3090	75.344136
3089	75.343759
3088	75.34376
3087	75.343592
3086	75.343047
3085	75.342308
3084	75.341661
3083	75.341245
3082	75.340943
3081	75.340468
3080	75.339666
3079	75.338803
3078	75.338382
3077	75.338574
3076	75.338929
3075	75.338832
3074	75.338149
3073	75.337307
3072	75.336897
3071	75.337269
3070	75.338303
3069	75.339352
3068	75.339685
3067	75.339131
3066	75.33818
3065	75.337478
3064	75.337442
3063	75.338313
3062	75.339946
3061	75.341327
3060	75.341084
3059	75.339036
3058	75.336728
3057	75.335542
3056	75.334807
3055	75.33319
3054	75.331536
3053	75.33235
3052	75.336162
3051	75.340053
3050	75.340883
3049	75.338913
3048	75.336894
3047	75.336417
3046	75.336775
3045	75.337112
3044	75.337892
3043	75.339651
3042	75.341446
3041	75.341529
3040	75.33934
3039	75.336289
3038	75.334619
3037	75.335896
3036	75.34046
3035	75.347516
3034	75.355243
3033	75.361619
3032	75.366317
3031	75.371484
3030	75.379214
3029	75.387944
3028	75.393091
3027	75.39216
3026	75.3878
3025	75.384458
3024	75.383101
3023	75.381219
3022	75.377487
3021	75.374022
3020	75.373725
3019	75.377314
3018	75.38377
3017	75.39192
3016	75.400315
3015	75.40691
3014	75.410524
3013	75.412364
3012	75.41511
3011	75.420592
3010	75.428684
3009	75.437895
3008	75.446502
3007	75.453466
3006	75.458768
3005	75.462934
3004	75.466268
3003	75.468889
3002	75.471436
3001	75.475244
3000	75.481649
2999	75.491343
2998	75.503889
2997	75.517055
2996	75.52722
2995	75.53226
2994	75.534719
2993	75.540955
2992	75.556276
2991	75.58113
2990	75.611818
2989	75.643748
2988	75.673737
2987	75.700655
2986	75.725325
2985	75.749544
2984	75.774522
2983	75.800398
2982	75.827289
2981	75.855711
2980	75.884999
2979	75.911952
2978	75.932337
2977	75.944136
2976	75.949314
2975	75.952698
2974	75.958591
2973	75.966855
2972	75.971341
2971	75.963524
2970	75.939287
2969	75.902448
2968	75.861301
2967	75.822127
2966	75.786681
2965	75.754614
2964	75.725732
2963	75.699736
2962	75.675821
2961	75.653621
2960	75.633703
2959	75.616735
2958	75.603082
2957	75.59357
2956	75.589339
2955	75.590023
2954	75.59281
2953	75.594333
2952	75.593262
2951	75.590591
2950	75.587786
2949	75.58518
2948	75.581842
2947	75.576661
2946	75.570243
2945	75.566095
2944	75.568837
2943	75.579902
2942	75.595212
2941	75.608369
2940	75.616373
2939	75.621556
2938	75.627923
2937	75.636922
2936	75.647194
2935	75.657295
2934	75.667395
2933	75.678187
2932	75.688729
2931	75.695902
2930	75.696542
2929	75.690365
2928	75.680618
2927	75.671468
2926	75.665067
2925	75.661567
2924	75.661148
2923	75.664137
2922	75.668976
2921	75.671845
2920	75.669441
2919	75.661376
2918	75.64951
2917	75.636064
2916	75.623014
2915	75.61197
2914	75.603159
2913	75.595153
2912	75.586934
2911	75.579795
2910	75.575714
2909	75.574257
2908	75.572907
2907	75.570921
2906	75.570888
2905	75.575193
2904	75.582418
2903	75.588813
2902	75.592779
2901	75.595927
2900	75.599591
2899	75.601948
2898	75.599942
2897	75.59326
2896	75.58527
2895	75.579857
2894	75.577846
2893	75.57659
2892	75.572663
2891	75.564869
2890	75.555089
2889	75.546511
2888	75.540975
2887	75.537773
2886	75.534879
2885	75.531152
2884	75.527195
2883	75.52422
2882	75.522508
2881	75.521179
2880	75.519202
2879	75.516375
2878	75.513292
2877	75.51051
2876	75.507654
2875	75.503344
2874	75.496297
2873	75.486751
2872	75.476758
2871	75.46871
2870	75.463461
2869	75.459927
2868	75.456258
2867	75.451325
2866	75.445334
2865	75.439337
2864	75.434158
2863	75.429654
2862	75.425087
2861	75.420233
2860	75.415734
2859	75.412053
2858	75.408451
2857	75.403524
2856	75.396566
2855	75.388024
2854	75.3791
2853	75.3714
2852	75.366487
2851	75.364476
2850	75.362849
2849	75.357989
2848	75.348721
2847	75.337705
2846	75.328665
2845	75.322477
2844	75.31699
2843	75.310068
2842	75.301796
2841	75.293769
2840	75.287431
2839	75.283424
2838	75.281577
2837	75.28082
2836	75.279521
2835	75.276483
2834	75.271639
2833	75.265834
2832	75.260118
2831	75.25519
2830	75.251221
2829	75.248061
2828	75.245563
2827	75.243631
2826	75.242095
2825	75.240805
2824	75.23972
2823	75.238512
2822	75.236225
2821	75.232081
2820	75.226752
2819	75.221983
2818	75.218613
2817	75.215801
2816	75.212648
2815	75.20957
2814	75.207303
2813	75.205512
2812	75.203515
2811	75.201637
2810	75.200567
2809	75.19993
2808	75.198852
2807	75.197572
2806	75.196882
2805	75.196146
2804	75.193611
2803	75.188944
2802	75.184146
2801	75.18146
2800	75.181392
2799	75.183052
2798	75.185293
2797	75.186938
2796	75.18676
2795	75.184169
2794	75.17984
2793	75.175276
2792	75.171842
2791	75.170236
2790	75.170585
2789	75.172562
2788	75.175448
2787	75.178488
2786	75.181139
2785	75.182985
2784	75.183647
2783	75.182955
2782	75.181159
2781	75.178948
2780	75.17722
2779	75.176543
2778	75.17664
2777	75.176545
2776	75.175504
2775	75.173645
2774	75.171651
2773	75.170013
2772	75.168781
2771	75.167778
2770	75.166749
2769	75.165515
2768	75.164269
2767	75.163526
2766	75.163492
2765	75.163676
2764	75.163403
2763	75.162591
2762	75.161706
2761	75.161081
2760	75.160594
2759	75.160021
2758	75.159384
2757	75.15885
2756	75.158482
2755	75.158166
2754	75.157719
2753	75.157049
2752	75.156222
2751	75.155437
2750	75.154874
2749	75.154527
2748	75.154262
2747	75.153926
2746	75.153489
2745	75.153017
2744	75.152594
2743	75.152232
2742	75.151865
2741	75.151406
2740	75.150814
2739	75.150135
2738	75.149481
2737	75.148941
2736	75.148543
2735	75.148325
2734	75.148335
2733	75.14847
2732	75.148417
2731	75.147974
2730	75.147367
2729	75.14709
2728	75.147332
2727	75.147755
2726	75.147885
2725	75.147557
2724	75.146868
2723	75.145939
2722	75.144841
2721	75.143607
2720	75.142224
2719	75.140746
2718	75.139476
2717	75.138883
2716	75.139286
2715	75.140696
2714	75.14286
2713	75.14519
2712	75.146748
2711	75.146639
2710	75.144706
2709	75.141841
2708	75.139349
2707	75.13804
2706	75.137795
2705	75.137784
2704	75.137234
2703	75.136114
2702	75.134959
2701	75.134033
2700	75.132964
2699	75.131302
2698	75.129077
2697	75.12665
2696	75.124347
2695	75.122496
2694	75.121423
2693	75.121004
2692	75.120442
2691	75.118955
2690	75.11662
2689	75.114222
2688	75.112375
2687	75.111168
2686	75.110621
2685	75.110882
2684	75.111822
2683	75.112768
2682	75.112994
2681	75.11244
2680	75.111705
2679	75.111266
2678	75.110872
2677	75.109914
2676	75.108292
2675	75.106595
2674	75.105416
2673	75.104828
2672	75.104678
2671	75.10496
2670	75.105533
2669	75.105782
2668	75.10508
2667	75.103536
2666	75.101997
2665	75.101254
2664	75.101452
2663	75.102288
2662	75.103364
2661	75.10423
2660	75.104494
2659	75.104113
2658	75.103469
2657	75.102975
2656	75.102617
2655	75.102135
2654	75.10149
2653	75.100936
2652	75.100671
2651	75.100604
2650	75.100494
2649	75.100228
2648	75.099904
2647	75.099697
2646	75.099668
2645	75.099707
2644	75.09964
2643	75.09936
2642	75.098869
2641	75.098224
2640	75.097534
2639	75.096984
2638	75.096724
2637	75.096701
2636	75.096632
2635	75.096267
2634	75.095658
2633	75.095098
2632	75.094786
2631	75.094669
2630	75.094587
2629	75.094482
2628	75.094405
2627	75.094386
2626	75.094385
2625	75.094333
2624	75.094161
2623	75.093803
2622	75.093232
2621	75.092555
2620	75.092034
2619	75.091942
2618	75.092302
2617	75.092706
2616	75.092613
2615	75.091877
2614	75.090846
2613	75.08998
2612	75.089333
2611	75.088653
2610	75.087871
2609	75.087244
2608	75.086957
2607	75.086772
2606	75.086246
2605	75.085281
2604	75.084294
2603	75.083741
2602	75.083596
2601	75.083442
2600	75.08305
2599	75.082664
2598	75.0826
2597	75.082803
2596	75.082978
2595	75.083024
2594	75.083094
2593	75.08324
2592	75.083242
2591	75.082892
2590	75.082267
2589	75.081658
2588	75.081292
2587	75.081178
2586	75.081149
2585	75.080989
2584	75.080594
2583	75.08004
2582	75.079512
2581	75.079133
2580	75.078906
2579	75.078823
2578	75.078909
2577	75.079123
2576	75.079308
2575	75.079329
2574	75.079207
2573	75.079053
2572	75.078961
2571	75.078958
2570	75.079025
2569	75.079121
2568	75.079184
2567	75.079165
2566	75.079061
2565	75.07893
2564	75.078849
2563	75.07884
2562	75.078851
2561	75.078802
2560	75.07866
2559	75.078457
2558	75.078249
2557	75.078058
2556	75.077878
2555	75.077712
2554	75.077562
2553	75.077392
2552	75.077158
2551	75.076878
2550	75.076634
2549	75.076465
2548	75.076294
2547	75.076028
2546	75.075699
2545	75.075445
2544	75.075322
2543	75.075206
2542	75.074932
2541	75.074506
2540	75.074129
2539	75.073979
2538	75.074014
2537	75.073982
2536	75.073656
2535	75.07302
2534	75.072224
2533	75.071373
2532	75.070454
2531	75.06951
2530	75.068711
2529	75.068172
2528	75.067815
2527	75.067518
2526	75.067272
2525	75.067097
2524	75.066998
2523	75.067123
2522	75.067767
2521	75.068938
2520	75.069967
2519	75.069934
2518	75.068462
2517	75.066077
2516	75.063901
2515	75.062752
2514	75.062626
2513	75.062859
2512	75.062767
2511	75.06221
2510	75.06145
2509	75.060716
2508	75.060144
2507	75.05995
2506	75.060179
2505	75.060301
2504	75.059628
2503	75.058293
2502	75.057226
2501	75.056835
2500	75.056322
2499	75.054793
2498	75.052558
2497	75.050681
2496	75.049607
2495	75.048854
2494	75.047897
2493	75.046732
2492	75.045599
2491	75.044784
2490	75.044645
2489	75.045287
2488	75.046247
2487	75.046838
2486	75.04682
2485	75.046454
2484	75.045914
2483	75.045054
2482	75.043828
2481	75.042656
2480	75.042153
2479	75.042545
2478	75.043485
2477	75.044384
2476	75.044895
2475	75.045064
2474	75.045084
2473	75.045016
2472	75.044917
2471	75.045115
2470	75.045998
2469	75.047413
2468	75.048479
2467	75.048273
2466	75.046662
2465	75.044433
2464	75.04271
2463	75.042032
2462	75.041983
2461	75.041668
2460	75.040671
2459	75.03951
2458	75.038955
2457	75.039018
2456	75.038975
2455	75.038396
2454	75.037714
2453	75.037517
2452	75.037634
2451	75.037299
2450	75.036184
2449	75.034956
2448	75.034683
2447	75.035766
2446	75.037564
2445	75.038947
2444	75.039429
2443	75.039448
2442	75.039495
2441	75.039254
2440	75.038105
2439	75.036224
2438	75.034619
2437	75.033909
2436	75.033678
2435	75.03322
2434	75.032482
2433	75.031925
2432	75.031791
2431	75.031977
2430	75.032406
2429	75.0331
2428	75.033936
2427	75.034612
2426	75.034823
2425	75.034347
2424	75.03313
2423	75.03142
2422	75.029686
2421	75.028264
2420	75.027321
2419	75.027131
2418	75.028043
2417	75.02996
2416	75.032206
2415	75.03404
2414	75.035093
2413	75.035201
2412	75.034426
2411	75.033411
2410	75.033114
2409	75.033851
2408	75.034902
2407	75.035321
2406	75.034966
2405	75.034447
2404	75.034244
2403	75.034223
2402	75.034085
2401	75.033882
2400	75.033929
2399	75.034407
2398	75.035045
2397	75.035154
2396	75.034271
2395	75.032675
2394	75.03112
2393	75.030191
2392	75.02986
2391	75.029886
2390	75.030155
2389	75.030536
2388	75.030822
2387	75.030906
2386	75.030849
2385	75.03079
2384	75.030833
2383	75.031021
2382	75.031299
2381	75.031502
2380	75.031519
2379	75.031431
2378	75.031418
2377	75.03153
2376	75.031675
2375	75.031794
2374	75.031974
2373	75.032332
2372	75.032855
2371	75.033381
2370	75.033783
2369	75.034063
2368	75.034314
2367	75.034653
2366	75.035174
2365	75.035907
2364	75.036813
2363	75.037836
2362	75.038913
2361	75.039958
2360	75.040912
2359	75.041812
2358	75.042743
2357	75.04376
2356	75.044834
2355	75.045893
2354	75.046837
2353	75.047669
2352	75.048593
2351	75.049793
2350	75.051279
2349	75.052885
2348	75.054381
2347	75.055607
2346	75.056562
2345	75.057501
2344	75.058648
2343	75.059991
2342	75.061321
2341	75.062497
2340	75.063469
2339	75.064336
2338	75.065344
2337	75.066675
2336	75.06833
2335	75.069918
2334	75.071049
2333	75.071733
2332	75.072639
2331	75.073681
2330	75.074116
2329	75.073288
2328	75.071978
2327	75.071123
2326	75.071119
2325	75.071677
2324	75.072579
2323	75.073708
2322	75.074948
2321	75.076187
2320	75.077414
2319	75.078238
2318	75.078288
2317	75.077156
2316	75.075256
2315	75.073135
2314	75.071915
2313	75.072015
2312	75.073153
2311	75.073601
2310	75.072281
2309	75.069439
2308	75.066714
2307	75.064887
2306	75.063614
2305	75.062198
2304	75.060859
2303	75.059843
2302	75.059178
2301	75.058435
2300	75.057524
2299	75.056338
2298	75.055151
2297	75.054176
2296	75.053709
2295	75.053447
2294	75.052893
2293	75.051706
2292	75.050134
2291	75.048524
2290	75.047011
2289	75.045602
2288	75.044389
2287	75.043509
2286	75.042866
2285	75.042192
2284	75.041233
2283	75.039989
2282	75.038688
2281	75.037698
2280	75.037194
2279	75.036964
2278	75.036533
2277	75.035663
2276	75.034632
2275	75.033876
2274	75.033385
2273	75.032547
2272	75.030803
2271	75.028371
2270	75.026271
2269	75.025243
2268	75.02519
2267	75.025455
2266	75.025492
2265	75.02524
2264	75.024846
2263	75.024375
2262	75.023808
2261	75.02316
2260	75.022548
2259	75.022205
2258	75.022333
2257	75.022922
2256	75.023683
2255	75.024237
2254	75.024385
2253	75.024182
2252	75.023843
2251	75.023547
2250	75.023348
2249	75.023181
2248	75.022978
2247	75.022717
2246	75.022358
2245	75.021843
2244	75.021289
2243	75.021079
2242	75.021519
2241	75.022445
2240	75.023264
2239	75.023568
2238	75.023516
2237	75.023541
2236	75.023791
2235	75.024027
2234	75.024062
2233	75.02402
2232	75.024136
2231	75.024456
2230	75.024876
2229	75.025302
2228	75.025682
2227	75.026
2226	75.026319
2225	75.02675
2224	75.027326
2223	75.027976
2222	75.028582
2221	75.029094
2220	75.029538
2219	75.029959
2218	75.030377
2217	75.0308
2216	75.03123
2215	75.031659
2214	75.03208
2213	75.032508
2212	75.032976
2211	75.0335
2210	75.034062
2209	75.034635
2208	75.035214
2207	75.035803
2206	75.036401
2205	75.036997
2204	75.037583
2203	75.038152
2202	75.038707
2201	75.039256
2200	75.039804
2199	75.04036
2198	75.040925
2197	75.041497
2196	75.042074
2195	75.042652
2194	75.043232
2193	75.043812
2192	75.044386
2191	75.04495
2190	75.045495
2189	75.046022
2188	75.046538
2187	75.047052
2186	75.047566
2185	75.048074
2184	75.048564
2183	75.049026
2182	75.049458
2181	75.049861
2180	75.05024
2179	75.050599
2178	75.050941
2177	75.05127
2176	75.051593
2175	75.051917
2174	75.052247
2173	75.05258
2172	75.052914
2171	75.053244
2170	75.05357
2169	75.053895
2168	75.054216
2167	75.054529
2166	75.054831
2165	75.055119
2164	75.055392
2163	75.055653
2162	75.055904
2161	75.056148
2160	75.056389
2159	75.056631
2158	75.056878
2157	75.057133
2156	75.057392
2155	75.057647
2154	75.057896
2153	75.058137
2152	75.058373
2151	75.058604
2150	75.058832
2149	75.05906
2148	75.059295
2147	75.059535
2146	75.059777
2145	75.060021
2144	75.060273
2143	75.060535
2142	75.0608
2141	75.061066
2140	75.061337
2139	75.06162
2138	75.06192
2137	75.062241
2136	75.062583
2135	75.062942
2134	75.06331
2133	75.063675
2132	75.064025
2131	75.064358
2130	75.064678
2129	75.064989
2128	75.065298
2127	75.065604
2126	75.065904
2125	75.066194
2124	75.066473
2123	75.066747
2122	75.067026
2121	75.067323
2120	75.067643
2119	75.067986
2118	75.068345
2117	75.06871
2116	75.069074
2115	75.069435
2114	75.069795
2113	75.070155
2112	75.070515
2111	75.070872
2110	75.071223
2109	75.071567
2108	75.071901
2107	75.072227
2106	75.072551
2105	75.072879
2104	75.073198
2103	75.073481
2102	75.073711
2101	75.073908
2100	75.074122
2099	75.074385
2098	75.074678
2097	75.07495
2096	75.075191
2095	75.075447
2094	75.075729
2093	75.075939
2092	75.075954
2091	75.075773
2090	75.075589
2089	75.075606
2088	75.075888
2087	75.076396
2086	75.077075
2085	75.077776
2084	75.078212
2083	75.078246
2082	75.078155
2081	75.078406
2080	75.079139
2079	75.080063
2078	75.080762
2077	75.080943
2076	75.080496
2075	75.079608
2074	75.078797
2073	75.078472
2072	75.078459
2071	75.078253
2070	75.077682
2069	75.077023
2068	75.076513
2067	75.076108
2066	75.07578
2065	75.0757
2064	75.075938
2063	75.076251
2062	75.076324
2061	75.076052
2060	75.075464
2059	75.0746
2058	75.073574
2057	75.072635
2056	75.071995
2055	75.071683
2054	75.071638
2053	75.071817
2052	75.072122
2051	75.072351
2050	75.072376
2049	75.072312
2048	75.072322
2047	75.072274
2046	75.07174
2045	75.070421
2044	75.068472
2043	75.066477
2042	75.065072
2041	75.064471
2040	75.064343
2039	75.064076
2038	75.063318
2037	75.062223
2036	75.061214
2035	75.060569
2034	75.060258
2033	75.060095
2032	75.059971
2031	75.059873
2030	75.059706
2029	75.059222
2028	75.058227
2027	75.056859
2026	75.055585
2025	75.054854
2024	75.054734
2023	75.054852
2022	75.05467
2021	75.053843
2020	75.052383
2019	75.050581
2018	75.048836
2017	75.047518
2016	75.046935
2015	75.047229
2014	75.048193
2013	75.049252
2012	75.049825
2011	75.04978
2010	75.049392
2009	75.048868
2008	75.048098
2007	75.046991
2006	75.045816
2005	75.045038
2004	75.044831
2003	75.045038
2002	75.045494
2001	75.046191
2000	75.047106
1999	75.047822
1998	75.047706
1997	75.046491
1996	75.044671
1995	75.043265
1994	75.043006
1993	75.043815
1992	75.045062
1991	75.046307
1990	75.047568
1989	75.048887
1988	75.050067
1987	75.051002
1986	75.051862
1985	75.052768
1984	75.05361
1983	75.054433
1982	75.055608
1981	75.057211
1980	75.058623
1979	75.059127
1978	75.058986
1977	75.059304
1976	75.060754
1975	75.062823
1974	75.064386
1973	75.064798
1972	75.064339
1971	75.063909
1970	75.064317
1969	75.06564
1968	75.067246
1967	75.0686
1966	75.06999
1965	75.07206
1964	75.074806
1963	75.077536
1962	75.079757
1961	75.081573
1960	75.08303
1959	75.083709
1958	75.0835
1957	75.0833
1956	75.08414
1955	75.085787
1954	75.086982
1953	75.087051
1952	75.086626
1951	75.086892
1950	75.088133
1949	75.089386
1948	75.089474
1947	75.088195
1946	75.086614
1945	75.086204
1944	75.087554
1943	75.089954
1942	75.092147
1941	75.093548
1940	75.094545
1939	75.095773
1938	75.097348
1937	75.098773
1936	75.099375
1935	75.098997
1934	75.098436
1933	75.098878
1932	75.100477
1931	75.102106
1930	75.102423
1929	75.101594
1928	75.101262
1927	75.102295
1926	75.103906
1925	75.104425
1924	75.10353
1923	75.102575
1922	75.102927
1921	75.104691
1920	75.107012
1919	75.108286
1918	75.106636
1917	75.101612
1916	75.095559
1915	75.091617
1914	75.090843
1913	75.091678
1912	75.09179
1911	75.09022
1910	75.087509
1909	75.084793
1908	75.082774
1907	75.080902
1906	75.078006
1905	75.073211
1904	75.067812
1903	75.064649
1902	75.065049
1901	75.067507
1900	75.069381
1899	75.069299
1898	75.067895
1897	75.066147
1896	75.064585
1895	75.063616
1894	75.063587
1893	75.064499
1892	75.065958
1891	75.067343
1890	75.06813
1889	75.068226
1888	75.067825
1887	75.067003
1886	75.065965
1885	75.065534
1884	75.066829
1883	75.069924
1882	75.073055
1881	75.074343
1880	75.07379
1879	75.072813
1878	75.07262
1877	75.073341
1876	75.074819
1875	75.077496
1874	75.081401
1873	75.085037
1872	75.086488
1871	75.085332
1870	75.08313
1869	75.0823
1868	75.084185
1867	75.087955
1866	75.09167
1865	75.09431
1864	75.096309
1863	75.098655
1862	75.101761
1861	75.105146
1860	75.108147
1859	75.110654
1858	75.113081
1857	75.115766
1856	75.118566
1855	75.120961
1854	75.122554
1853	75.123711
1852	75.125531
1851	75.128005
1850	75.130235
1849	75.131788
1848	75.133356
1847	75.135672
1846	75.138585
1845	75.141708
1844	75.14553
1843	75.150901
1842	75.15686
1841	75.161393
1840	75.163485
1839	75.1635
1838	75.162955
1837	75.163225
1836	75.164905
1835	75.167487
1834	75.169828
1833	75.171809
1832	75.174757
1831	75.179018
1830	75.182972
1829	75.18446
1828	75.183242
1827	75.181115
1826	75.179596
1825	75.178593
1824	75.178006
1823	75.17905
1822	75.182235
1821	75.185864
1820	75.18797
1819	75.189245
1818	75.191497
1817	75.193489
1816	75.193484
1815	75.193144
1814	75.194552
1813	75.196003
1812	75.194215
1811	75.191829
1810	75.194706
1809	75.20267
1808	75.210842
1807	75.217097
1806	75.222915
1805	75.228787
1804	75.233245
1803	75.235717
1802	75.236998
1801	75.238181
1800	75.238313
1799	75.23774
1798	75.238246
1797	75.240293
1796	75.243069
1795	75.246816
1794	75.252946
1793	75.261502
1792	75.26957
1791	75.275552
1790	75.279263
1789	75.282259
1788	75.288397
1787	75.300095
1786	75.314224
1785	75.324224
1784	75.328243
1783	75.330921
1782	75.335961
1781	75.343477
1780	75.349405
1779	75.352437
1778	75.355073
1777	75.359379
1776	75.364778
1775	75.370844
1774	75.381287
1773	75.399613
1772	75.42126
1771	75.439832
1770	75.456961
1769	75.476209
1768	75.49708
1767	75.516625
1766	75.533899
1765	75.550998
1764	75.569588
1763	75.590649
1762	75.614516
1761	75.639826
1760	75.662351
1759	75.682467
1758	75.704422
1757	75.730648
1756	75.756401
1755	75.776122
1754	75.792896
1753	75.812766
1752	75.835059
1751	75.85401
1750	75.870609
1749	75.889246
1748	75.908495
1747	75.922808
1746	75.933072
1745	75.945738
1744	75.961435
1743	75.976056
1742	75.988227
1741	75.999417
1740	76.00766
1739	76.009734
1738	76.005817
1737	75.996997
1736	75.980391
1735	75.94954
1734	75.905884
1733	75.871592
1732	75.859239
1731	75.860394
1730	75.865455
1729	75.869287
1728	75.867983
1727	75.8586
1726	75.842988
1725	75.826171
1724	75.810305
1723	75.79647
1722	75.784869
1721	75.774073
1720	75.761247
1719	75.743743
1718	75.721288
1717	75.696841
1716	75.67656
1715	75.663152
1714	75.651687
1713	75.635173
1712	75.612392
1711	75.586964
1710	75.562141
1709	75.539245
1708	75.517913
1707	75.496869
1706	75.476699
1705	75.459179
1704	75.445944
1703	75.436306
1702	75.429326
1701	75.421135
1700	75.404485
1699	75.388061
1698	75.380698
1697	75.380554
1696	75.384078
1695	75.387746
1694	75.387833
1693	75.38305
1692	75.375849
1691	75.370739
1690	75.369655
1689	75.370181
1688	75.368441
1687	75.363697
1686	75.362314
1685	75.365664
1684	75.365521
1683	75.361118
1682	75.356041
1681	75.353923
1680	75.356763
1679	75.363236
1678	75.371929
1677	75.38329
1676	75.394324
1675	75.398397
1674	75.396478
1673	75.396611
1672	75.399623
1671	75.402056
1670	75.402299
1669	75.405278
1668	75.413082
1667	75.418971
1666	75.418871
1665	75.415545
1664	75.413403
1663	75.414294
1662	75.416857
1661	75.421311
1660	75.427176
1659	75.432084
1658	75.435009
1657	75.436772
1656	75.437194
1655	75.43525
1654	75.430839
1653	75.425459
1652	75.426997
1651	75.434655
1650	75.441893
1649	75.445607
1648	75.446443
1647	75.445567
1646	75.445003
1645	75.445993
1644	75.447895
1643	75.449325
1642	75.449023
1641	75.447613
1640	75.446493
1639	75.44603
1638	75.445887
1637	75.445822
1636	75.445775
1635	75.445081
1634	75.444357
1633	75.443832
1632	75.44359
1631	75.443584
1630	75.443512
1629	75.443419
1628	75.44389
1627	75.444546
1626	75.443785
1625	75.441465
1624	75.439166
1623	75.438413
1622	75.439016
1621	75.44042
1620	75.442122
1619	75.443536
1618	75.444046
1617	75.442931
1616	75.441414
1615	75.440965
1614	75.44109
1613	75.441695
1612	75.443699
1611	75.446537
1610	75.44809
1609	75.44871
1608	75.450656
1607	75.453706
1606	75.455087
1605	75.454143
1604	75.45229
1603	75.450987
1602	75.45136
1601	75.453926
1600	75.457822
1599	75.461069
1598	75.462725
1597	75.463795
1596	75.465569
1595	75.46825
1594	75.471416
1593	75.475119
1592	75.479337
1591	75.483139
1590	75.4855
1589	75.486767
1588	75.488082
1587	75.489785
1586	75.491293
1585	75.492508
1584	75.494125
1583	75.495934
1582	75.497987
1581	75.501301
1580	75.506064
1579	75.510449
1578	75.51358
1577	75.516853
1576	75.521246
1575	75.525053
1574	75.526359
1573	75.525553
1572	75.524023
1571	75.523312
1570	75.524095
1569	75.526855
1568	75.53123
1567	75.534968
1566	75.537588
1565	75.540129
1564	75.542892
1563	75.543996
1562	75.543275
1561	75.54434
1560	75.549985
1559	75.552744
1558	75.551153
1557	75.55248
1556	75.555686
1555	75.556774
1554	75.555518
1553	75.555744
1552	75.558221
1551	75.559773
1550	75.55844
1549	75.55542
1548	75.55309
1547	75.551516
1546	75.550018
1545	75.549143
1544	75.550439
1543	75.553987
1542	75.558787
1541	75.56153
1540	75.558059
1539	75.550011
1538	75.543493
1537	75.540393
1536	75.538304
1535	75.534516
1534	75.528699
1533	75.524504
1532	75.524155
1531	75.525
1530	75.524086
1529	75.520821
1528	75.516771
1527	75.51387
1526	75.512501
1525	75.511784
1524	75.510597
1523	75.508777
1522	75.507077
1521	75.506871
1520	75.509182
1519	75.51247
1518	75.515209
1517	75.516659
1516	75.5163
1515	75.514494
1514	75.512925
1513	75.513532
1512	75.515534
1511	75.51755
1510	75.518773
1509	75.519503
1508	75.520411
1507	75.522741
1506	75.524657
1505	75.523159
1504	75.521616
1503	75.523031
1502	75.52743
1501	75.53358
1500	75.539423
1499	75.545013
1498	75.553896
1497	75.566391
1496	75.575866
1495	75.577942
1494	75.574439
1493	75.569102
1492	75.564553
1491	75.563037
1490	75.565926
1489	75.571413
1488	75.575599
1487	75.579319
1486	75.584909
1485	75.591841
1484	75.598506
1483	75.602852
1482	75.605145
1481	75.606955
1480	75.610337
1479	75.616583
1478	75.625361
1477	75.633594
1476	75.638465
1475	75.642029
1474	75.648825
1473	75.661135
1472	75.674237
1471	75.683277
1470	75.689343
1469	75.695767
1468	75.702894
1467	75.709228
1466	75.714369
1465	75.720751
1464	75.729446
1463	75.73757
1462	75.743247
1461	75.747055
1460	75.750802
1459	75.756347
1458	75.766548
1457	75.780353
1456	75.789677
1455	75.789958
1454	75.786353
1453	75.784768
1452	75.785721
1451	75.786566
1450	75.785751
1449	75.783571
1448	75.779933
1447	75.775161
1446	75.770653
1445	75.769126
1444	75.76972
1443	75.769253
1442	75.766558
1441	75.763737
1440	75.763325
1439	75.766308
1438	75.772847
1437	75.779666
1436	75.782196
1435	75.780202
1434	75.777903
1433	75.778084
1432	75.78071
1431	75.784325
1430	75.788195
1429	75.791313
1428	75.792355
1427	75.792457
1426	75.794246
1425	75.7994
1424	75.80443
1423	75.805264
1422	75.80389
1421	75.804611
1420	75.805258
1419	75.798803
1418	75.789583
1417	75.787816
1416	75.795179
1415	75.806412
1414	75.815373
1413	75.819486
1412	75.820277
1411	75.821831
1410	75.828017
1409	75.838666
1408	75.850113
1407	75.859461
1406	75.865902
1405	75.871587
1404	75.877568
1403	75.882478
1402	75.885929
1401	75.888969
1400	75.892058
1399	75.895007
1398	75.898887
1397	75.904309
1396	75.910846
1395	75.918855
1394	75.930564
1393	75.947637
1392	75.967218
1391	75.985753
1390	76.003905
1389	76.026367
1388	76.05634
1387	76.091063
1386	76.123932
1385	76.152357
1384	76.178476
1383	76.204415
1382	76.230665
1381	76.256156
1380	76.27801
1379	76.292216
1378	76.298063
1377	76.300076
1376	76.303199
1375	76.30763
1374	76.310558
1373	76.310303
1372	76.305482
1371	76.295352
1370	76.282636
1369	76.274854
1368	76.277565
1367	76.286444
1366	76.29018
1365	76.2809
1364	76.259855
1363	76.236668
1362	76.221473
1361	76.215343
1360	76.2124
1359	76.209128
1358	76.206927
1357	76.207834
1356	76.210555
1355	76.212122
1354	76.21167
1353	76.209571
1352	76.204079
1351	76.193148
1350	76.178666
1349	76.166438
1348	76.159416
1347	76.154945
1346	76.149513
1345	76.14281
1344	76.135146
1343	76.124492
1342	76.109018
1341	76.09129
1340	76.077285
1339	76.070109
1338	76.066253
1337	76.059873
1336	76.048899
1335	76.036007
1334	76.02558
1333	76.020251
1332	76.019321
1331	76.019806
1330	76.018822
1329	76.015216
1328	76.009643
1327	76.003905
1326	75.999687
1325	75.996922
1324	75.993421
1323	75.987021
1322	75.977922
1321	75.968286
1320	75.959959
1319	75.953562
1318	75.949314
1317	75.947451
1316	75.947416
1315	75.947413
1314	75.94555
1313	75.941294
1312	75.935523
1311	75.929479
1310	75.923894
1309	75.91893
1308	75.91468
1307	75.911451
1306	75.909165
1305	75.906758
1304	75.902809
1303	75.897007
1302	75.890565
1301	75.884792
1300	75.879641
1299	75.874168
1298	75.867929
1297	75.861409
1296	75.855428
1295	75.850585
1294	75.847061
1293	75.844383
1292	75.841543
1291	75.837813
1290	75.833339
1289	75.828598
1288	75.823472
1287	75.817407
1286	75.810513
1285	75.803932
1284	75.799015
1283	75.796439
1282	75.795778
1281	75.795396
1280	75.793266
1279	75.788682
1278	75.783166
1277	75.779121
1276	75.777531
1275	75.777315
1274	75.776709
1273	75.774401
1272	75.769318
1271	75.761125
1270	75.751766
1269	75.744944
1268	75.743135
1267	75.745852
1266	75.750464
1265	75.753267
1264	75.750449
1263	75.740547
1262	75.726273
1261	75.712191
1260	75.700775
1259	75.692002
1258	75.685935
1257	75.683075
1256	75.682154
1255	75.680145
1254	75.675238
1253	75.668193
1252	75.660727
1251	75.654471
1250	75.651194
1249	75.651356
1248	75.652087
1247	75.64919
1246	75.642174
1245	75.635288
1244	75.632892
1243	75.635617
1242	75.641377
1241	75.648115
1240	75.654944
1239	75.662659
1238	75.6738
1237	75.690096
1236	75.709109
1235	75.725758
1234	75.738192
1233	75.749538
1232	75.761924
1231	75.771112
1230	75.769986
1229	75.756231
1228	75.733894
1227	75.707438
1226	75.67631
1225	75.636595
1224	75.587998
1223	75.538606
1222	75.50168
1221	75.486475
1220	75.491248
1219	75.503714
1218	75.507625
1217	75.490589
1216	75.449063
1215	75.389072
1214	75.322153
1213	75.258206
1212	75.201149
1211	75.150498
1210	75.104765
1209	75.062428
1208	75.021629
1207	74.980816
1206	74.939097
1205	74.89514
1204	74.846869
1203	74.793363
1202	74.736145
1201	74.677739
1200	74.61986
1199	74.563226
1198	74.507442
1197	74.450647
1196	74.391252
1195	74.330866
1194	74.273643
1193	74.221905
1192	74.174161
1191	74.127902
1190	74.082202
1189	74.036967
1188	73.992179
1187	73.948806
1186	73.907747
1185	73.866686
1184	73.821199
1183	73.771119
1182	73.722824
1181	73.68212
1180	73.646858
1179	73.609343
1178	73.564143
1177	73.510409
1176	73.448555
1175	73.379523
1174	73.307388
1173	73.238465
1172	73.17639
1171	73.120046
1170	73.066345
1169	73.013036
1168	72.95894
1167	72.904343
1166	72.852758
1165	72.81087
1164	72.785242
1163	72.779072
1162	72.791533
1161	72.818311
1160	72.851664
1159	72.881622
1158	72.899823
1157	72.902652
1156	72.890195
1155	72.863777
1154	72.826139
1153	72.782479
1152	72.738291
1151	72.695464
1150	72.652033
1149	72.606252
1148	72.559213
1147	72.512501
1146	72.464941
1145	72.413826
1144	72.358932
1143	72.303425
1142	72.250599
1141	72.201062
1140	72.153114
1139	72.104182
1138	72.051804
1137	71.995319
1136	71.937287
1135	71.881375
1134	71.828075
1133	71.774487
1132	71.719207
1131	71.664682
1130	71.612811
1129	71.560692
1128	71.503701
1127	71.441435
1126	71.377898
1125	71.316628
1124	71.258297
1123	71.202555
1122	71.149531
1121	71.099356
1120	71.052034
1119	71.007705
1118	70.965634
1117	70.923532
1116	70.879439
1115	70.833865
1114	70.788835
1113	70.745704
1112	70.705253
1111	70.668752
1110	70.636896
1109	70.608142
1108	70.579333
1107	70.547702
1106	70.511933
1105	70.473108
1104	70.435949
1103	70.406953
1102	70.388652
1101	70.376759
1100	70.365252
1099	70.353047
1098	70.342699
1097	70.333472
1096	70.319427
1095	70.29516
1094	70.260233
1093	70.216578
1092	70.164743
1091	70.105751
1090	70.044599
1089	69.987786
1088	69.936622
1087	69.885686
1086	69.829378
1085	69.768657
1084	69.709962
1083	69.658329
1082	69.612993
1081	69.569395
1080	69.52383
1079	69.475962
1078	69.428651
1077	69.386235
1076	69.351418
1075	69.32208
1074	69.291337
1073	69.251562
1072	69.198411
1071	69.132104
1070	69.057314
1069	68.981758
1068	68.9115
1067	68.845555
1066	68.777247
1065	68.703216
1064	68.628963
1063	68.563261
1062	68.509834
1061	68.467812
1060	68.437716
1059	68.421968
1058	68.419839
1057	68.42549
1056	68.430633
1055	68.426643
1054	68.406116
1053	68.365879
1052	68.306675
1051	68.226649
1050	68.118758
1049	67.980363
1048	67.821742
1047	67.657436
1046	67.491211
1045	67.317715
1044	67.137829
1043	66.963431
1042	66.804967
1041	66.661282
1040	66.524845
1039	66.391372
1038	66.261702
1037	66.139634
1036	66.030886
1035	65.939315
1034	65.861622
1033	65.790462
1032	65.724867
1031	65.672823
1030	65.641369
1029	65.628151
1028	65.62346
1027	65.616029
1026	65.597232
1025	65.566368
1024	65.533902
1023	65.513829
1022	65.509264
1021	65.508474
1020	65.496877
1019	65.470004
1018	65.434451
1017	65.400916
1016	65.377956
1015	65.367754
1014	65.364493
1013	65.358871
1012	65.34592
1011	65.327532
1010	65.308603
1009	65.293603
1008	65.285594
1007	65.284341
1006	65.285365
1005	65.284418
1004	65.282667
1003	65.284572
1002	65.292065
1001	65.304356
1000	65.321685
999	65.344915
998	65.372647
997	65.402888
996	65.43606
995	65.472302
994	65.507536
993	65.536817
992	65.560617
991	65.584112
990	65.611852
989	65.646486
988	65.690105
987	65.742549
986	65.800397
985	65.861349
984	65.926837
983	65.997307
982	66.069831
981	66.144799
980	66.229235
979	66.327006
978	66.430898
977	66.53181
976	66.63137
975	66.737071
974	66.848783
973	66.959471
972	67.067269
971	67.177635
970	67.293979
969	67.414361
968	67.537494
967	67.664485
966	67.794123
965	67.92304
964	68.050966
963	68.17947
962	68.304936
961	68.419298
960	68.519744
959	68.613098
958	68.708571
957	68.809015
956	68.910418
955	69.006863
954	69.094404
953	69.17214
952	69.241179
951	69.302969
950	69.359351
949	69.413782
948	69.469826
947	69.527439
946	69.58351
945	69.636992
944	69.689668
943	69.740222
942	69.7827
941	69.814532
940	69.841737
939	69.871669
938	69.903849
937	69.932946
936	69.957821
935	69.981995
934	70.007389
933	70.033438
932	70.061197
931	70.092793
930	70.127482
929	70.163354
928	70.201917
927	70.245262
926	70.289136
925	70.325233
924	70.35169
923	70.375822
922	70.404133
921	70.434068
920	70.458826
919	70.477395
918	70.496326
917	70.522338
916	70.555645
915	70.590939
914	70.624114
913	70.657455
912	70.697258
911	70.746374
910	70.801232
909	70.857611
908	70.917411
907	70.987479
906	71.072712
905	71.171634
904	71.277436
903	71.382656
902	71.485273
901	71.591345
900	71.708983
899	71.838561
898	71.971068
897	72.097449
896	72.216013
895	72.329507
894	72.439423
893	72.545696
892	72.648379
891	72.746902
890	72.840765
889	72.933117
888	73.02978
887	73.13153
886	73.230673
885	73.319234
884	73.398131
883	73.474059
882	73.548413
881	73.613243
880	73.658359
879	73.680111
878	73.684156
877	73.682914
876	73.690471
875	73.715873
874	73.75789
873	73.807039
872	73.855312
871	73.904733
870	73.965248
869	74.043386
868	74.134011
867	74.224282
866	74.305122
865	74.377088
864	74.445593
863	74.513952
862	74.582084
861	74.648046
860	74.70808
859	74.758337
858	74.800039
857	74.840631
856	74.886532
855	74.936745
854	74.986321
853	75.032648
852	75.073914
851	75.105542
850	75.125873
849	75.144229
848	75.174967
847	75.220795
846	75.267354
845	75.297001
844	75.303977
843	75.295046
842	75.280762
841	75.268911
840	75.261486
839	75.252416
838	75.23012
837	75.188258
836	75.135669
835	75.092457
834	75.072814
833	75.071543
832	75.068894
831	75.049062
830	75.014371
829	74.982327
828	74.97005
827	74.981722
826	75.008206
825	75.034463
824	75.046821
823	75.038653
822	75.014608
821	74.987277
820	74.9649
819	74.942703
818	74.909194
817	74.860132
816	74.802615
815	74.7446
814	74.683471
813	74.60718
812	74.504233
811	74.369459
810	74.201905
809	74.001998
808	73.772699
807	73.520501
806	73.252346
805	72.973001
804	72.687867
803	72.406944
802	72.143869
801	71.912865
800	71.728178
799	71.602132
798	71.539237
797	71.533722
796	71.574485
795	71.649001
794	71.741244
793	71.832328
792	71.909551
791	71.973234
790	72.029466
789	72.075434
788	72.096208
787	72.07847
786	72.024596
785	71.949406
784	71.864316
783	71.769407
782	71.662561
781	71.553008
780	71.4623
779	71.411994
778	71.411864
777	71.458634
776	71.541368
775	71.645862
774	71.758634
773	71.872417
772	71.987172
771	72.10258
770	72.211194
769	72.303326
768	72.378592
767	72.44808
766	72.52242
765	72.599409
764	72.665802
763	72.711008
762	72.737627
761	72.758566
760	72.785621
759	72.822133
758	72.86507
757	72.910847
756	72.957369
755	73.002366
754	73.043577
753	73.082413
752	73.12618
751	73.184215
750	73.260024
749	73.346255
748	73.428238
747	73.494777
746	73.546694
745	73.594137
744	73.645701
743	73.702575
742	73.763802
741	73.832629
740	73.912943
739	74.001552
738	74.089199
737	74.169184
736	74.240498
735	74.301755
734	74.34769
733	74.376173
732	74.395883
731	74.422303
730	74.465486
729	74.523457
728	74.583673
727	74.630748
726	74.65881
725	74.676546
724	74.697973
723	74.728675
722	74.763804
721	74.798231
720	74.83296
719	74.87008
718	74.906593
717	74.937089
716	74.960617
715	74.980951
714	75.000255
713	75.01582
712	75.022942
711	75.018934
710	75.004322
709	74.982964
708	74.959175
707	74.935443
706	74.914011
705	74.895739
704	74.874883
703	74.8399
702	74.780055
701	74.691025
700	74.575479
699	74.436713
698	74.27931
697	74.11784
696	73.981367
695	73.90692
694	73.918187
693	74.00879
692	74.146353
691	74.291042
690	74.418759
689	74.526061
688	74.616676
687	74.692923
686	74.756887
685	74.814977
684	74.876453
683	74.944816
682	75.016717
681	75.089669
680	75.165682
679	75.243042
678	75.311225
677	75.36655
676	75.417715
675	75.473284
674	75.530009
673	75.576698
672	75.600883
671	75.591839
670	75.541661
669	75.472156
668	75.482553
667	75.630119
666	75.815029
665	75.97797
664	76.125103
663	76.253791
662	76.354275
661	76.433313
660	76.505498
659	76.574759
658	76.641357
657	76.715181
656	76.794646
655	76.857371
654	76.894218
653	76.925374
652	76.963045
651	76.992585
650	77.0076