##TITLE= 
##JCAMP-DX= 4.24
##DATA TYPE= INFRARED SPECTRUM
##ORIGIN= Exported PE Spectrum Data File
##OWNER= Administrator
##DATE= 22/12/06
##TIME= 16:39:46.00
##SPECTROMETER/DATA SYSTEM= PERKIN-ELMER Frontier FT-IR IR
##INSTRUMENT PARAMETERS=
  APODIZATION=Strong
  DETECTOR=MIR TGS
##RESOLUTION= 4.000000
##DELTAX= -1.000000
##XUNITS= 1/CM
##YUNITS= %T
##XFACTOR= 1.00
##YFACTOR= 0.00000023841857910156
##FIRSTX= 4000.00
##LASTX= 650.00
##NPOINTS= 3351
##FIRSTY= 82.92
##MAXY= 82.92
##MINY= 77.10
##XYDATA= (X++(Y..Y))
  4000.000000  347749076  347737395  347723444  347709115  347696830  
  3995.000000  347687784  347681253  347674570  347665339  347653522  
  3990.000000  347641502  347631938  347625288  347619654  347612530  
  3985.000000  347603097  347592188  347580770  347569186  347557310  
  3980.000000  347545143  347533231  347522422  347513103  347504629  
  3975.000000  347495833  347486315  347476864  347468404  347461016  
  3970.000000  347453927  347446066  347436646  347425498  347413113  
  3965.000000  347400388  347388162  347376912  347366780  347357605  
  3960.000000  347348945  347340359  347331723  347323025  347313809  
  3955.000000  347303291  347291136  347277884  347264796  347253086  
  3950.000000  347243154  347234188  347224632  347213423  347200786  
  3945.000000  347188261  347177841  347170567  347165281  347158892  
  3940.000000  347148626  347134008  347116947  347100053  347084862  
  3935.000000  347071984  347062261  347055870  347050153  347040443  
  3930.000000  347024620  347005902  346989422  346976198  346962949  
  3925.000000  346947458  346930791  346913631  346895193  346876894  
  3920.000000  346862372  346852881  346846544  346843086  346844372  
  3915.000000  346848872  346849987  346842660  346826350  346803359  
  3910.000000  346777016  346752072  346733611  346723046  346716670  
  3905.000000  346708838  346697859  346686066  346674516  346661112  
  3900.000000  346644784  346627697  346612142  346598635  346586889  
  3895.000000  346577440  346569725  346561625  346551785  346541151  
  3890.000000  346530930  346520897  346510715  346500574  346490563  
  3885.000000  346480655  346470858  346461164  346451569  346442078  
  3880.000000  346432665  346423248  346413720  346403996  346394061  
  3875.000000  346383974  346373831  346363723  346353691  346343773  
  3870.000000  346334037  346324549  346315292  346306192  346297240  
  3865.000000  346288496  346279969  346271568  346263219  346254945  
  3860.000000  346246803  346238797  346230868  346222940  346214923  
  3855.000000  346206709  346198241  346189617  346181015  346172498  
  3850.000000  346164011  346155490  346146891  346138213  346129505  
  3845.000000  346120833  346112216  346103625  346095032  346086443  
  3840.000000  346077880  346069375  346060997  346052862  346045084  
  3835.000000  346037701  346030646  346023788  346017005  346010219  
  3830.000000  346003409  345996583  345989738  345982848  345975891  
  3825.000000  345968860  345961703  345954312  345946606  345938619  
  3820.000000  345930464  345922170  345913670  345904953  345896129  
  3815.000000  345887352  345878689  345870130  345861686  345853372  
  3810.000000  345845125  345836830  345828441  345820036  345811749  
  3805.000000  345803635  345795604  345787519  345779320  345771072  
  3800.000000  345762866  345754685  345746606  345738708  345731040  
  3795.000000  345723405  345715068  345705284  345694253  345682840  
  3790.000000  345671476  345660077  345648544  345636808  345624726  
  3785.000000  345612635  345601510  345591388  345580595  345567999  
  3780.000000  345554858  345543898  345536289  345529940  345522446  
  3775.000000  345514507  345508532  345504616  345499176  345488843  
  3770.000000  345474128  345458380  345443226  345427905  345413117  
  3765.000000  345401758  345395167  345389901  345380691  345366920  
  3760.000000  345351578  345336612  345321937  345308428  345297075  
  3755.000000  345285732  345272064  345258338  345248708  345239403  
  3750.000000  345221846  345199321  345182844  345171260  345153108  
  3745.000000  345122800  345096331  345090195  345083627  345055178  
  3740.000000  345019021  344994424  344977818  344957750  344947710  
  3735.000000  344968055  345002195  345009420  344981496  344946008  
  3730.000000  344919392  344887292  344834945  344774185  344732271  
  3725.000000  344716272  344705812  344684458  344654616  344629139  
  3720.000000  344614803  344603060  344580570  344547916  344515945  
  3715.000000  344488229  344464605  344445495  344424031  344390686  
  3710.000000  344343723  344284579  344215742  344145528  344083018  
  3705.000000  344026989  343967341  343894924  343810316  343728370  
  3700.000000  343665402  343617277  343567568  343514177  343467041  
  3695.000000  343421594  343359299  343276766  343187134  343094547  
  3690.000000  342987944  342873322  342792160  342771051  342781834  
  3685.000000  342785415  342782299  342792634  342809975  342798524  
  3680.000000  342744230  342667604  342583392  342491089  342409801  
  3675.000000  342392851  342448423  342494319  342468507  342395415  
  3670.000000  342330967  342306054  342304130  342296542  342281026  
  3665.000000  342266443  342253385  342237353  342220552  342212129  
  3660.000000  342220037  342238918  342255043  342261845  342274431  
  3655.000000  342311956  342360380  342390982  342401087  342408060  
  3650.000000  342421833  342445724  342485369  342539433  342591526  
  3645.000000  342627672  342653071  342685157  342731211  342775836  
  3640.000000  342794918  342782999  342764917  342768736  342796625  
  3635.000000  342830993  342862441  342895129  342929111  342962029  
  3630.000000  342995058  343028978  343062950  343081244  343065027  
  3625.000000  343026386  342992867  342978801  342982723  343000091  
  3620.000000  343027064  343054663  343073680  343081988  343083388  
  3615.000000  343084067  343089482  343100265  343111351  343117705  
  3610.000000  343121624  343131141  343149523  343170420  343184896  
  3605.000000  343191298  343195166  343201392  343209196  343215008  
  3600.000000  343217946  343219886  343223867  343232423  343245272  
  3595.000000  343258890  343268857  343272693  343271293  343268523  
  3590.000000  343268907  343275110  343286312  343298314  343306219  
  3585.000000  343307763  343304004  343297960  343292561  343289505  
  3580.000000  343289365  343291704  343295599  343300601  343306704  
  3575.000000  343313486  343319373  343322155  343320443  343314958  
  3570.000000  343308496  343304889  343307238  343315711  343326781  
  3565.000000  343335698  343340320  343341923  343343460  343347248  
  3560.000000  343353380  343359761  343363825  343364984  343365378  
  3555.000000  343367988  343374079  343382112  343388698  343390836  
  3550.000000  343387575  343380529  343373370  343369987  343372600  
  3545.000000  343380867  343392510  343404595  343414569  343421303  
  3540.000000  343425402  343428603  343432756  343438778  343446273  
  3535.000000  343453935  343460662  343466395  343471863  343477503  
  3530.000000  343482822  343487075  343490201  343492788  343495413  
  3525.000000  343498639  343503167  343509324  343516620  343524133  
  3520.000000  343531532  343539186  343547166  343554502  343559877  
  3515.000000  343562956  343564894  343567754  343573127  343581259  
  3510.000000  343591169  343601303  343610287  343617528  343623294  
  3505.000000  343628471  343634087  343640549  343647616  343654805  
  3500.000000  343661737  343668257  343674300  343679821  343684900  
  3495.000000  343689858  343695177  343701173  343707761  343714412  
  3490.000000  343720469  343725656  343730257  343734838  343739752  
  3485.000000  343744997  343750378  343755649  343760633  343765343  
  3480.000000  343770031  343775012  343780359  343785761  343790860  
  3475.000000  343795718  343800814  343806467  343812378  343817956  
  3470.000000  343822886  343827043  343830304  343832934  343836104  
  3465.000000  343841330  343848922  343857124  343863684  343867735  
  3460.000000  343870109  343872578  343876507  343882318  343889736  
  3455.000000  343898019  343906025  343912730  343918139  343923255  
  3450.000000  343928578  343933404  343937571  343942956  343951396  
  3445.000000  343961557  343970000  343975689  343981487  343990153  
  3440.000000  344000189  344007383  344009840  344010081  344012408  
  3435.000000  344018430  344025127  344027657  344024465  344019127  
  3430.000000  344016899  344019707  344025404  344030813  344034074  
  3425.000000  344034357  344031559  344027491  344026033  344030213  
  3420.000000  344039833  344052509  344065870  344077507  344084198  
  3415.000000  344084256  344080800  344079871  344083315  344086084  
  3410.000000  344082587  344073637  344065229  344061567  344061884  
  3405.000000  344063339  344063725  344060952  344053088  344041214  
  3400.000000  344030839  344027959  344033423  344041779  344045601  
  3395.000000  344041157  344030074  344017812  344010535  344011362  
  3390.000000  344018372  344025869  344029531  344030496  344033474  
  3385.000000  344040782  344048938  344051764  344046426  344035673  
  3380.000000  344024853  344017239  344012103  344006794  344000307  
  3375.000000  343994580  343991783  343990449  343985516  343973123  
  3370.000000  343954790  343936508  343923229  343914947  343908135  
  3365.000000  343900481  343893692  343891096  343892719  343893593  
  3360.000000  343888015  343875336  343860702  343849522  343841586  
  3355.000000  343831449  343814155  343789957  343764690  343745777  
  3350.000000  343736920  343735937  343736177  343731414  343720346  
  3345.000000  343706520  343694528  343685913  343678530  343669179  
  3340.000000  343656470  343641292  343625602  343611555  343601211  
  3335.000000  343595404  343591972  343586389  343575874  343562201  
  3330.000000  343548867  343535586  343518017  343493733  343466432  
  3325.000000  343443226  343428049  343418818  343409879  343396542  
  3320.000000  343377586  343354479  343329648  343305803  343285727  
  3315.000000  343270748  343258565  343243899  343223229  343198373  
  3310.000000  343174281  343153187  343132852  343110372  343085738  
  3305.000000  343061361  343040135  343024474  343015142  343008905  
  3300.000000  342998861  342979767  342952162  342920731  342889401  
  3295.000000  342859204  342830162  342802837  342778006  342756104  
  3290.000000  342736735  342717940  342696717  342671592  342644476  
  3285.000000  342619094  342597155  342577017  342556160  342533873  
  3280.000000  342510791  342487115  342462675  342438165  342414977  
  3275.000000  342393649  342373226  342352322  342330428  342308087  
  3270.000000  342286300  342265873  342246827  342228021  342207537  
  3265.000000  342184287  342159050  342134098  342111088  342089569  
  3260.000000  342067737  342044476  342020380  341996812  341974418  
  3255.000000  341952765  341930987  341908707  341886364  341864444  
  3250.000000  341842608  341820016  341796351  341772104  341747974  
  3245.000000  341724361  341701436  341679101  341656658  341632995  
  3240.000000  341607764  341582187  341558008  341535465  341513053  
  3235.000000  341489384  341464382  341438312  341410891  341382577  
  3230.000000  341355920  341333547  341314961  341296618  341275296  
  3225.000000  341250625  341224577  341200049  341179821  341164992  
  3220.000000  341153526  341140492  341121877  341097666  341070861  
  3215.000000  341044417  341018868  340993366  340967847  340943209  
  3210.000000  340919773  340896669  340873266  340850507  340829913  
  3205.000000  340811402  340793058  340772984  340750714  340727113  
  3200.000000  340703770  340682385  340663739  340646941  340630268  
  3195.000000  340612985  340595680  340578624  340560527  340539705  
  3190.000000  340516069  340491425  340468058  340447110  340428311  
  3185.000000  340410299  340391212  340369884  340346792  340323988  
  3180.000000  340303493  340285616  340268715  340250738  340231202  
  3175.000000  340211031  340191014  340171009  340150704  340130136  
  3170.000000  340109044  340086783  340063795  340042335  340024280  
  3165.000000  340008445  339991021  339969457  339944764  339920231  
  3160.000000  339898193  339878817  339861079  339843708  339825655  
  3155.000000  339806750  339787954  339770333  339754061  339738742  
  3150.000000  339724311  339710845  339697539  339682744  339665455  
  3145.000000  339646443  339627659  339610151  339592791  339573854  
  3140.000000  339553864  339535799  339521740  339510377  339498423  
  3135.000000  339484364  339469440  339455299  339442081  339428819  
  3130.000000  339414729  339399835  339384873  339370690  339357405  
  3125.000000  339344163  339330006  339314930  339299766  339285089  
  3120.000000  339270739  339256403  339242273  339228856  339216429  
  3115.000000  339204835  339193484  339181463  339168092  339153546  
  3110.000000  339139036  339125949  339114778  339104895  339095066  
  3105.000000  339084360  339072365  339058892  339044016  339028644  
  3100.000000  339014829  339004654  338998261  338992862  338984727  
  3095.000000  338971989  338954616  338932416  338905686  338878476  
  3090.000000  338857789  338847286  338843380  338839295  338831947  
  3085.000000  338822695  338813465  338804550  338794494  338780106  
  3080.000000  338758927  338734563  338717267  338715328  338726550  
  3075.000000  338739926  338744160  338734122  338713308  338692123  
  3070.000000  338679494  338673079  338661288  338637722  338609970  
  3065.000000  338592318  338593597  338612248  338635781  338643457  
  3060.000000  338620181  338574191  338533014  338513715  338504212  
  3055.000000  338483292  338450269  338421747  338404166  338384617  
  3050.000000  338350598  338306335  338265003  338233436  338209595  
  3045.000000  338188238  338163118  338128210  338083138  338036629  
  3040.000000  338000291  337976767  337954806  337917913  337858968  
  3035.000000  337786184  337714016  337649382  337590208  337534275  
  3030.000000  337479802  337417113  337331921  337222909  337107783  
  3025.000000  337003195  336903388  336788137  336648633  336495823  
  3020.000000  336345010  336202228  336067293  335939944  335817397  
  3015.000000  335692862  335563024  335433361  335310207  335189512  
  3010.000000  335059132  334912486  334755689  334600370  334453015  
  3005.000000  334313417  334179846  334050593  333921519  333788787  
  3000.000000  333657018  333540054  333448913  333380267  333318254  
  2995.000000  333242456  333130413  332962984  332744621  332520489  
  2990.000000  332359070  332307921  332369117  332514833  332713541  
  2985.000000  332934613  333141123  333299956  333403646  333473891  
  2980.000000  333539894  333614797  333689999  333745260  333764809  
  2975.000000  333750786  333722563  333697487  333670706  333620175  
  2970.000000  333534935  333433809  333351805  333309930  333301423  
  2965.000000  333304662  333303574  333294877  333281594  333266828  
  2960.000000  333255458  333256730  333279189  333322168  333375493  
  2955.000000  333429242  333482569  333542057  333612654  333690271  
  2950.000000  333761278  333809219  333824632  333811421  333786211  
  2945.000000  333771486  333786045  333835913  333909347  333982714  
  2940.000000  334036715  334069809  334094209  334120688  334150940  
  2935.000000  334181386  334207316  334222532  334220659  334199510  
  2930.000000  334161909  334111667  334051435  333985167  333920229  
  2925.000000  333866023  333830083  333812044  333799983  333778457  
  2920.000000  333744690  333711633  333688917  333665833  333620942  
  2915.000000  333544547  333444784  333338192  333245398  333189215  
  2910.000000  333178066  333189407  333185889  333153957  333110924  
  2905.000000  333068620  333012151  332932689  332866227  332872377  
  2900.000000  332973142  333125952  333260153  333334659  333359111  
  2895.000000  333370106  333395418  333434752  333468064  333480293  
  2890.000000  333476830  333474197  333480456  333491233  333503750  
  2885.000000  333527027  333575075  333653869  333756642  333868334  
  2880.000000  333973132  334062034  334136584  334204253  334267415  
  2875.000000  334317330  334342128  334342626  334338585  334355329  
  2870.000000  334402093  334464931  334522975  334570796  334621924  
  2865.000000  334690854  334776109  334862970  334939332  335004965  
  2860.000000  335066308  335126148  335180177  335223242  335256365  
  2855.000000  335286361  335321886  335371524  335442209  335531584  
  2850.000000  335619650  335677498  335693400  335687659  335694518  
  2845.000000  335728509  335775540  335814939  335839516  335853809  
  2840.000000  335864826  335880061  335905954  335940348  335971240  
  2835.000000  335989434  335998694  336008312  336019890  336028598  
  2830.000000  336034671  336044912  336061899  336078340  336085286  
  2825.000000  336082454  336077279  336075250  336074467  336070399  
  2820.000000  336062703  336054241  336045550  336035777  336029376  
  2815.000000  336034668  336051395  336066051  336066875  336059294  
  2810.000000  336058397  336068217  336077430  336075284  336062872  
  2805.000000  336047908  336036028  336029919  336030579  336036044  
  2800.000000  336042949  336050566  336059707  336067702  336069064  
  2795.000000  336061931  336049978  336037588  336026870  336019442  
  2790.000000  336017115  336019674  336024232  336027552  336028281  
  2785.000000  336026725  336023600  336019549  336015168  336010971  
  2780.000000  336007328  336004374  336001895  335999416  335996584  
  2775.000000  335993501  335990542  335987891  335985398  335982808  
  2770.000000  335980021  335977107  335974193  335971416  335968834  
  2765.000000  335966398  335963964  335961425  335958795  335956149  
  2760.000000  335953494  335950781  335948007  335945267  335942662  
  2755.000000  335940202  335937808  335935375  335932802  335930075  
  2750.000000  335927451  335925273  335923613  335922145  335920528  
  2745.000000  335918636  335916378  335913722  335911095  335909264  
  2740.000000  335908433  335907778  335906415  335904578  335903439  
  2735.000000  335903974  335906056  335908209  335908479  335906282  
  2730.000000  335903319  335901871  335902326  335903201  335902649  
  2725.000000  335898949  335890995  335880322  335871230  335866632  
  2720.000000  335864828  335862035  335856985  335851045  335845665  
  2715.000000  335842544  335844756  335853836  335865748  335873037  
  2710.000000  335871812  335864412  335855522  335848482  335844758  
  2705.000000  335843509  335841227  335834485  335823657  335812322  
  2700.000000  335802654  335793448  335782930  335771587  335761666  
  2695.000000  335754771  335749985  335743659  335731826  335714483  
  2690.000000  335697507  335688281  335688924  335694873  335699901  
  2685.000000  335701816  335702241  335702490  335701928  335700064  
  2680.000000  335697761  335695082  335689753  335680080  335668533  
  2675.000000  335659852  335655551  335653140  335651168  335651523  
  2670.000000  335654666  335655896  335650094  335638390  335627219  
  2665.000000  335621297  335620716  335624282  335631533  335640259  
  2660.000000  335645635  335644616  335638826  335631971  335625487  
  2655.000000  335618653  335611716  335606432  335604036  335604085  
  2650.000000  335604907  335604473  335601616  335597102  335592901  
  2645.000000  335589956  335587247  335583223  335577281  335569754  
  2640.000000  335561664  335554800  335550600  335548153  335544433  
  2635.000000  335537554  335528923  335521517  335516734  335514025  
  2630.000000  335512318  335510524  335507396  335502516  335497340  
  2625.000000  335493968  335492700  335491672  335488731  335483271  
  2620.000000  335476493  335470609  335467065  335465130  335462342  
  2615.000000  335457125  335450300  335443964  335438942  335434248  
  2610.000000  335429046  335423980  335419982  335416502  335411839  
  2605.000000  335405113  335397296  335390165  335384401  335379394  
  2600.000000  335374942  335372179  335371905  335372821  335372532  
  2595.000000  335370227  335367048  335363961  335360416  335355648  
  2590.000000  335350224  335345594  335342582  335340850  335339313  
  2585.000000  335336810  335332840  335327936  335323057  335318417  
  2580.000000  335313582  335309071  335306507  335306406  335307108  
  2575.000000  335306322  335303667  335300477  335298023  335296457  
  2570.000000  335295249  335293804  335291718  335288969  335286072  
  2565.000000  335283708  335281993  335280318  335277999  335274981  
  2560.000000  335271743  335268782  335266192  335263695  335260895  
  2555.000000  335257611  335253993  335250353  335246899  335243683  
  2550.000000  335240753  335238112  335235556  335232749  335229543  
  2545.000000  335226150  335222825  335219453  335215690  335211478  
  2540.000000  335207176  335203158  335199420  335195616  335191376  
  2535.000000  335186594  335181397  335175959  335170436  335165118  
  2530.000000  335160286  335155913  335151617  335147048  335142078  
  2525.000000  335136590  335130602  335124690  335119727  335115863  
  2520.000000  335112091  335107253  335101157  335094350  335087276  
  2515.000000  335080210  335073504  335067340  335061516  335055746  
  2510.000000  335049947  335044132  335038541  335033826  335030269  
  2505.000000  335026545  335020602  335012065  335002858  334995016  
  2500.000000  334988307  334981398  334974172  334967603  334961973  
  2495.000000  334956747  334951861  334947557  334943234  334937959  
  2490.000000  334931843  334925833  334920324  334915088  334910232  
  2485.000000  334906192  334902810  334899121  334894390  334888973  
  2480.000000  334883934  334879882  334876360  334872349  334867228  
  2475.000000  334861244  334855235  334849941  334845649  334842406  
  2470.000000  334840115  334838249  334835884  334832378  334827803  
  2465.000000  334822638  334817391  334812670  334809008  334806146  
  2460.000000  334802798  334797801  334791300  334784607  334778947  
  2455.000000  334774801  334772108  334770234  334767798  334763397  
  2450.000000  334756998  334750629  334747194  334748287  334752710  
  2445.000000  334756586  334756622  334752921  334748152  334743675  
  2440.000000  334737965  334729834  334720881  334713401  334707621  
  2435.000000  334702717  334699073  334697384  334696591  334695115  
  2430.000000  334693376  334692805  334692844  334691238  334687275  
  2425.000000  334682651  334678783  334674748  334668469  334659166  
  2420.000000  334648765  334641327  334640191  334645008  334652176  
  2415.000000  334658140  334661743  334662333  334658809  334652413  
  2410.000000  334647436  334646715  334647931  334646647  334642190  
  2405.000000  334637476  334634564  334632489  334629435  334625169  
  2400.000000  334620894  334617566  334614926  334611950  334607971  
  2395.000000  334603274  334598605  334594365  334590477  334586756  
  2390.000000  334583062  334579261  334575293  334571200  334567051  
  2385.000000  334562861  334558599  334554447  334550795  334547614  
  2380.000000  334544248  334540416  334536804  334533786  334530110  
  2375.000000  334524501  334518642  334516098  334517644  334519486  
  2370.000000  334517735  334512018  334503331  334492357  334482454  
  2365.000000  334479745  334486377  334496320  334502598  334504544  
  2360.000000  334504114  334500764  334492549  334481581  334473488  
  2355.000000  334471158  334472842  334475895  334480224  334485314  
  2350.000000  334488210  334485769  334475241  334456899  334434263  
  2345.000000  334414428  334406845  334417314  334443179  334471105  
  2340.000000  334490095  334502648  334518732  334540627  334558609  
  2335.000000  334562723  334555438  334549261  334552987  334560975  
  2330.000000  334560488  334547722  334527607  334508409  334494392  
  2325.000000  334486944  334485528  334488871  334498723  334516412  
  2320.000000  334539174  334558015  334564730  334556994  334538807  
  2315.000000  334518646  334505656  334504003  334508303  334508491  
  2310.000000  334498786  334481920  334463379  334446394  334432236  
  2305.000000  334423033  334420734  334424803  334432199  334438810  
  2300.000000  334440550  334435722  334426729  334418728  334414425  
  2295.000000  334411798  334407210  334400150  334393140  334388336  
  2290.000000  334385551  334383399  334380870  334377559  334373256  
  2285.000000  334367856  334361560  334354914  334348838  334344297  
  2280.000000  334341670  334340302  334338933  334336836  334334345  
  2275.000000  334332080  334329978  334327346  334323662  334319285  
  2270.000000  334315381  334312799  334311435  334310468  334308923  
  2265.000000  334306303  334302736  334298918  334295740  334293698  
  2260.000000  334292656  334292011  334291225  334290193  334289124  
  2255.000000  334288232  334287499  334286694  334285576  334284023  
  2250.000000  334281999  334279662  334277477  334275937  334274979  
  2245.000000  334273904  334272310  334270788  334270208  334270564  
  2240.000000  334270809  334270067  334268577  334267247  334266327  
  2235.000000  334265180  334263369  334261196  334259246  334257812  
  2230.000000  334256936  334256490  334256054  334255259  334254271  
  2225.000000  334253602  334253419  334253327  334252863  334252128  
  2220.000000  334251614  334251536  334251678  334251730  334251630  
  2215.000000  334251555  334251677  334252008  334252431  334252809  
  2210.000000  334253060  334253163  334253193  334253309  334253620  
  2205.000000  334254036  334254318  334254318  334254105  334253890  
  2200.000000  334253881  334254210  334254829  334255484  334255916  
  2195.000000  334256104  334256269  334256638  334257217  334257800  
  2190.000000  334258165  334258270  334258305  334258563  334259237  
  2185.000000  334260275  334261188  334261415  334260761  334259501  
  2180.000000  334258156  334257094  334256391  334255854  334255173  
  2175.000000  334254247  334253248  334252290  334251226  334249921  
  2170.000000  334248579  334247572  334246943  334246268  334245136  
  2165.000000  334243594  334241932  334240220  334238252  334235904  
  2160.000000  334233534  334231957  334231772  334232491  334232512  
  2155.000000  334230647  334227404  334224498  334222865  334221745  
  2150.000000  334219814  334216641  334212857  334209358  334206524  
  2145.000000  334204029  334201467  334199289  334198503  334199130  
  2140.000000  334199617  334198226  334194693  334190388  334187477  
  2135.000000  334187782  334191485  334196455  334199881  334201032  
  2130.000000  334201267  334201386  334200606  334198593  334196364  
  2125.000000  334194054  334189941  334183397  334177012  334174059  
  2120.000000  334174750  334176304  334175961  334173175  334169132  
  2115.000000  334165453  334163153  334162088  334161254  334160018  
  2110.000000  334158816  334158165  334157728  334157080  334156713  
  2105.000000  334157266  334158147  334157907  334156013  334153607  
  2100.000000  334152400  334152870  334154089  334154789  334154655  
  2095.000000  334154298  334154228  334154149  334153421  334151928  
  2090.000000  334150107  334148499  334147434  334147031  334147204  
  2085.000000  334147572  334147664  334147367  334146981  334146802  
  2080.000000  334146689  334146346  334145921  334145837  334146016  
  2075.000000  334145898  334145329  334144784  334144486  334143940  
  2070.000000  334142618  334140610  334138527  334137007  334136425  
  2065.000000  334136706  334137148  334136944  334136130  334135566  
  2060.000000  334135693  334135687  334134347  334131330  334127370  
  2055.000000  334123768  334121931  334122851  334126208  334130025  
  2050.000000  334132115  334132020  334131156  334130947  334130926  
  2045.000000  334129209  334124747  334118755  334113629  334110363  
  2040.000000  334107537  334103579  334099515  334098128  334100756  
  2035.000000  334106028  334111294  334114641  334115561  334114833  
  2030.000000  334114028  334113988  334113484  334110386  334104334  
  2025.000000  334097450  334091789  334087395  334083534  334080590  
  2020.000000  334079694  334080736  334081918  334081537  334079816  
  2015.000000  334078711  334079883  334082888  334085461  334085593  
  2010.000000  334083103  334079098  334074451  334069342  334063786  
  2005.000000  334058236  334053538  334050696  334050247  334051560  
  2000.000000  334052958  334052545  334049515  334044706  334040200  
  1995.000000  334037787  334037326  334036830  334034751  334032175  
  1990.000000  334031493  334033224  334035214  334035005  334032359  
  1985.000000  334029124  334027329  334027842  334030262  334033019  
  1980.000000  334034272  334033479  334032143  334032351  334034443  
  1975.000000  334036644  334036890  334034654  334031037  334027849  
  1970.000000  334026277  334026091  334026027  334025396  334025219  
  1965.000000  334027069  334031051  334035534  334038825  334040406  
  1960.000000  334040436  334039068  334037049  334036066  334037143  
  1955.000000  334038898  334038693  334035440  334030409  334025922  
  1950.000000  334023202  334021907  334021282  334021173  334021961  
  1945.000000  334023731  334025737  334026664  334025634  334023068  
  1940.000000  334020654  334020089  334021710  334024191  334025527  
  1935.000000  334024763  334022710  334021157  334021037  334021802  
  1930.000000  334022027  334020953  334019181  334017857  334017720  
  1925.000000  334018287  334018764  334019420  334021293  334024755  
  1920.000000  334028420  334029759  334027112  334021217  334015141  
  1915.000000  334011692  334011264  334012025  334011788  334010555  
  1910.000000  334010119  334011518  334013284  334013026  334010613  
  1905.000000  334007905  334006972  334008562  334011341  334013174  
  1900.000000  334012926  334011131  334009369  334008510  334008458  
  1895.000000  334009232  334011234  334014670  334018854  334022511  
  1890.000000  334024923  334026728  334029260  334033078  334037408  
  1885.000000  334041166  334044463  334048285  334052601  334056276  
  1880.000000  334058783  334060830  334063424  334066753  334070470  
  1875.000000  334074475  334078763  334083078  334087145  334091064  
  1870.000000  334095179  334099645  334104291  334108922  334113491  
  1865.000000  334118050  334122648  334127306  334132022  334136780  
  1860.000000  334141564  334146368  334151189  334156009  334160802  
  1855.000000  334165540  334170214  334174817  334179365  334183934  
  1850.000000  334188370  334192287  334195853  334199782  334204309  
  1845.000000  334209213  334214956  334222575  334231220  334238122  
  1840.000000  334241339  334241894  334243584  334248192  334253676  
  1835.000000  334257829  334260842  334265871  334275736  334287108  
  1830.000000  334293228  334291107  334284634  334280050  334279033  
  1825.000000  334278797  334277706  334280112  334291135  334309063  
  1820.000000  334326165  334338094  334346927  334350606  334345290  
  1815.000000  334334298  334323989  334314946  334303328  334296472  
  1810.000000  334307416  334332739  334356782  334373240  334391474  
  1805.000000  334417655  334443959  334457628  334457338  334457609  
  1800.000000  334464679  334472096  334477873  334486945  334503733  
  1795.000000  334526571  334551365  334575903  334600465  334624605  
  1790.000000  334640387  334644370  334649503  334671507  334712548  
  1785.000000  334757099  334793103  334821871  334844987  334859694  
  1780.000000  334857544  334844679  334842801  334863069  334896469  
  1775.000000  334928791  334962780  335009249  335060672  335107147  
  1770.000000  335164919  335250436  335355685  335455081  335535894  
  1765.000000  335610719  335693330  335783766  335874548  335958302  
  1760.000000  336030625  336101097  336183099  336277954  336365834  
  1755.000000  336429255  336482803  336551576  336637269  336722905  
  1750.000000  336804956  336888589  336967465  337025638  337068244  
  1745.000000  337123157  337198521  337274115  337329684  337363034  
  1740.000000  337380384  337385806  337379148  337351469  337283625  
  1735.000000  337153175  336983516  336860973  336830068  336859062  
  1730.000000  336901915  336922302  336902536  336845172  336771741  
  1725.000000  336705713  336652268  336611139  336580649  336549778  
  1720.000000  336497353  336405066  336284114  336175663  336107682  
  1715.000000  336069462  336032856  335976531  335898954  335812481  
  1710.000000  335725317  335642008  335565371  335494022  335429537  
  1705.000000  335374849  335332564  335300151  335274050  335242953  
  1700.000000  335184414  335114404  335073087  335072860  335104500  
  1695.000000  335139117  335153150  335149252  335137131  335133192  
  1690.000000  335147110  335167942  335174006  335160263  335159079  
  1685.000000  335196600  335245422  335258453  335235044  335209220  
  1680.000000  335205637  335229990  335280957  335354164  335426248  
  1675.000000  335458012  335448046  335438297  335446575  335458900  
  1670.000000  335462852  335471000  335498139  335529934  335548946  
  1665.000000  335554262  335557581  335571220  335595067  335624942  
  1660.000000  335655867  335682934  335708550  335738538  335766817  
  1655.000000  335778439  335764082  335726907  335698350  335705992  
  1650.000000  335734008  335759133  335777872  335793152  335803100  
  1645.000000  335805078  335804349  335803623  335798190  335790600  
  1640.000000  335787084  335787564  335785733  335777930  335769217  
  1635.000000  335764820  335766724  335769172  335766182  335759209  
  1630.000000  335752907  335750441  335751137  335749065  335736957  
  1625.000000  335716127  335696413  335687520  335688025  335690778  
  1620.000000  335691217  335688472  335684348  335676666  335662971  
  1615.000000  335646721  335632204  335621642  335619330  335625910  
  1610.000000  335633831  335636675  335634341  335627292  335615042  
  1605.000000  335603259  335597504  335595911  335593618  335588250  
  1600.000000  335581818  335577147  335575868  335578064  335582337  
  1595.000000  335587579  335593475  335599394  335603630  335604737  
  1590.000000  335602933  335599690  335595791  335591522  335587260  
  1585.000000  335584117  335583115  335583136  335583537  335585796  
  1580.000000  335590142  335593734  335594792  335594328  335594169  
  1575.000000  335594891  335595668  335595677  335595015  335594911  
  1570.000000  335596166  335598279  335599987  335600515  335600159  
  1565.000000  335599626  335599260  335598866  335598302  335597762  
  1560.000000  335596691  335594227  335591689  335590487  335590022  
  1555.000000  335589202  335587779  335586544  335585681  335584350  
  1550.000000  335581992  335578739  335575211  335571930  335569324  
  1545.000000  335568038  335568297  335569065  335568856  335566034  
  1540.000000  335559151  335549749  335542515  335538856  335536177  
  1535.000000  335531614  335525309  335520691  335518788  335516936  
  1530.000000  335513530  335509102  335504986  335502397  335501706  
  1525.000000  335502201  335501657  335497361  335488953  335480558  
  1520.000000  335476701  335477457  335480902  335484714  335485477  
  1515.000000  335481620  335476978  335476118  335478150  335480000  
  1510.000000  335480131  335478305  335475859  335478894  335481556  
  1505.000000  335474018  335467146  335469568  335481547  335502924  
  1500.000000  335529382  335554973  335578391  335597219  335600319  
  1495.000000  335583432  335557975  335538250  335531672  335540419  
  1490.000000  335561411  335582954  335593111  335599041  335612588  
  1485.000000  335629314  335637133  335629190  335613075  335603067  
  1480.000000  335608767  335632361  335670518  335710229  335735561  
  1475.000000  335744965  335753317  335777849  335811965  335837316  
  1470.000000  335857692  335887089  335924961  335961309  335992866  
  1465.000000  336028552  336066669  336093388  336112234  336140144  
  1460.000000  336184695  336233709  336262982  336247616  336183886  
  1455.000000  336103612  336044747  336019711  336018198  336027019  
  1450.000000  336048168  336088709  336137113  336168357  336175639  
  1445.000000  336180952  336192792  336194668  336175047  336143160  
  1440.000000  336116757  336110013  336134801  336185556  336225008  
  1435.000000  336220184  336187204  336159684  336150972  336155170  
  1430.000000  336158450  336143380  336100569  336042528  335990907  
  1425.000000  335956155  335924187  335876906  335817231  335756060  
  1420.000000  335682103  335572351  335438284  335312669  335207214  
  1415.000000  335109560  335002467  334882239  334763014  334664761  
  1410.000000  334595133  334544834  334506151  334486431  334499151  
  1405.000000  334553708  334640618  334731613  334806846  334870343  
  1400.000000  334936291  335000093  335019638  334939341  334749034  
  1395.000000  334536528  334452031  334569616  334829228  335111742  
  1390.000000  335330214  335464346  335540923  335593452  335635083  
  1385.000000  335668991  335704630  335753561  335822202  335908862  
  1380.000000  336004038  336095173  336178232  336262146  336357213  
  1375.000000  336460856  336558661  336636882  336691450  336731290  
  1370.000000  336774540  336839429  336929549  337025059  337096713  
  1365.000000  337128111  337124326  337111138  337117729  337147807  
  1360.000000  337182828  337212848  337248127  337300406  337360468  
  1355.000000  337403866  337419961  337421666  337421321  337415258  
  1350.000000  337400552  337386500  337378024  337369168  337357890  
  1345.000000  337350504  337346215  337330467  337290823  337232729  
  1340.000000  337176877  337141127  337123810  337106989  337074248  
  1335.000000  337025672  336979524  336954349  336947474  336939444  
  1330.000000  336919826  336898220  336888458  336893708  336908344  
  1325.000000  336922778  336925086  336906243  336869668  336831450  
  1320.000000  336807226  336801294  336808593  336822856  336838434  
  1315.000000  336847321  336841854  336822644  336799537  336781601  
  1310.000000  336767826  336750614  336728243  336710242  336706513  
  1305.000000  336713346  336717045  336710226  336698377  336688850  
  1300.000000  336679848  336664695  336642254  336618619  336601420  
  1295.000000  336595533  336599342  336602086  336590544  336562580  
  1290.000000  336528782  336497334  336464459  336425013  336385315  
  1285.000000  336358570  336352389  336364352  336382940  336389211  
  1280.000000  336367527  336321001  336269708  336228696  336194057  
  1275.000000  336154851  336108053  336054229  335988782  335908101  
  1270.000000  335817979  335727934  335644442  335575452  335529205  
  1265.000000  335498203  335454670  335375635  335268375  335161611  
  1260.000000  335077574  335020397  334983715  334959134  334940157  
  1255.000000  334924277  334907814  334878231  334825137  334766185  
  1250.000000  334745437  334791720  334888975  334995389  335077355  
  1245.000000  335114115  335094299  335040310  335022210  335106312  
  1240.000000  335285013  335479180  335617293  335691896  335733534  
  1235.000000  335763806  335791103  335825946  335872760  335915690  
  1230.000000  335934017  335928397  335917275  335910723  335900262  
  1225.000000  335873664  335832402  335797516  335804116  335883878  
  1220.000000  336040397  336236143  336408703  336507133  336517119  
  1215.000000  336461710  336384555  336324521  336296704  336292760  
  1210.000000  336295840  336294281  336286005  336276775  336273698  
  1205.000000  336274284  336261562  336215194  336128051  336010061  
  1200.000000  335880242  335759063  335661252  335586052  335516646  
  1195.000000  335436234  335343041  335246705  335157138  335082444  
  1190.000000  335028829  334993640  334964851  334934980  334907948  
  1185.000000  334884509  334852015  334801878  334748438  334714510  
  1180.000000  334703192  334697292  334679854  334640929  334572444  
  1175.000000  334477024  334378525  334302090  334244967  334186236  
  1170.000000  334121887  334069422  334037856  334015158  333990461  
  1165.000000  333971165  333970383  333990393  334024231  334062755  
  1160.000000  334096207  334119017  334134906  334146952  334144149  
  1155.000000  334111659  334053201  333987503  333922170  333848375  
  1150.000000  333764424  333686977  333631983  333597032  333567880  
  1145.000000  333531810  333481855  333419882  333358787  333310381  
  1140.000000  333268654  333215935  333146518  333072432  333003908  
  1135.000000  332937849  332870761  332808016  332751000  332686157  
  1130.000000  332596956  332482987  332361824  332253790  332165916  
  1125.000000  332087127  331998767  331892837  331778631  331669923  
  1120.000000  331571846  331484537  331409809  331343699  331268524  
  1115.000000  331164097  331025889  330866820  330707848  330572344  
  1110.000000  330477033  330415312  330356480  330275665  330180322  
  1105.000000  330098502  330050906  330042977  330071805  330125450  
  1100.000000  330187373  330251541  330327099  330413589  330482776  
  1095.000000  330499048  330441530  330292525  330029960  329663335  
  1090.000000  329259507  328890802  328559663  328209160  327804820  
  1085.000000  327372866  326958131  326579126  326232514  325912436  
  1080.000000  325612471  325329192  325076085  324878279  324743691  
  1075.000000  324654573  324597261  324581602  324608330  324621888  
  1070.000000  324521415  324243519  323846378  323504881  323393584  
  1065.000000  323555912  323883900  324215614  324443568  324536834  
  1060.000000  324511806  324431809  324409472  324539942  324810829  
  1055.000000  325108878  325329995  325455651  325510576  325490218  
  1050.000000  325370420  325165195  324930217  324712206  324519902  
  1045.000000  324339991  324163527  323997424  323855502  323735836  
  1040.000000  323615929  323491100  323413153  323455635  323628927  
  1035.000000  323857918  324060402  324218409  324343342  324408822  
  1030.000000  324376995  324286506  324256935  324377582  324617558  
  1025.000000  324865931  325046891  325171890  325289221  325412088  
  1020.000000  325507912  325549325  325561038  325605556  325725232  
  1015.000000  325909694  326117535  326314693  326484436  326616721  
  1010.000000  326712350  326796364  326907544  327065936  327255355  
  1005.000000  327440067  327596017  327727359  327857159  328002291  
  1000.000000  328157781  328308465  328451944  328599368  328753723  
  995.000000   328901848  329033900  329157958  329286119  329417196  
  990.000000   329543781  329667759  329797233  329934789  330079926  
  985.000000   330236267  330403734  330573303  330745124  330938125  
  980.000000   331163793  331399529  331607247  331774992  331922413  
  975.000000   332069958  332221419  332374997  332530432  332681077  
  970.000000   332816045  332936308  333057416  333192825  333343707  
  965.000000   333507229  333685041  333878208  334078195  334267103  
  960.000000   334427088  334552158  334653087  334746748  334840099  
  955.000000   334929160  335009391  335077250  335126019  335156911  
  950.000000   335194782  335272509  335392436  335520075  335623326  
  945.000000   335700965  335765350  335818078  335858020  335896037  
  940.000000   335942072  335987454  336016175  336026499  336029370  
  935.000000   336033814  336046008  336073335  336115701  336160149  
  930.000000   336196524  336232050  336278681  336331949  336374851  
  925.000000   336400572  336422240  336460104  336520937  336585852  
  920.000000   336619208  336601100  336555468  336533551  336561592  
  915.000000   336615154  336650641  336651699  336635856  336625735  
  910.000000   336626913  336630869  336632095  336643801  336694313  
  905.000000   336798050  336930812  337047324  337126885  337187591  
  900.000000   337254716  337338108  337444825  337585775  337750785  
  895.000000   337897832  337992619  338049739  338117012  338230409  
  890.000000   338401020  338630307  338908281  339198012  339450742  
  885.000000   339646101  339799883  339925408  340003943  340008203  
  880.000000   339946269  339864780  339803143  339757677  339704815  
  875.000000   339644340  339593427  339544252  339466685  339368522  
  870.000000   339316169  339362963  339481394  339596764  339676602  
  865.000000   339752507  339856843  339976558  340077553  340145546  
  860.000000   340189919  340228100  340275696  340335112  340389512  
  855.000000   340425516  340461823  340530890  340629110  340713797  
  850.000000   340759585  340789977  340839034  340906222  340966317  
  845.000000   341004688  341025594  341040747  341063578  341101433  
  840.000000   341142193  341161424  341153184  341142552  341159910  
  835.000000   341212966  341284428  341339531  341336100  341256260  
  830.000000   341142420  341078376  341114514  341224786  341343787  
  825.000000   341422398  341437594  341388105  341310966  341270245  
  820.000000   341294261  341338758  341334263  341258798  341149678  
  815.000000   341056956  341002167  340975520  340950340  340889603  
  810.000000   340749980  340500224  340150819  339763780  339413327  
  805.000000   339125836  338870190  338611513  338357053  338140209  
  800.000000   337982773  337892922  337880759  337949827  338081924  
  795.000000   338248404  338426009  338588174  338703969  338773099  
  790.000000   338840873  338942358  339046267  339090421  339060013  
  785.000000   338990889  338907573  338805955  338694658  338605648  
  780.000000   338557329  338546427  338579522  338672367  338811856  
  775.000000   338959106  339102185  339268814  339472590  339680943  
  770.000000   339853003  339981106  340081170  340170170  340265053  
  765.000000   340376626  340492048  340585130  340650037  340701614  
  760.000000   340742709  340762550  340769917  340793976  340843721  
  755.000000   340895045  340925630  340939689  340957369  341004518  
  750.000000   341109941  341279560  341467054  341603301  341667192  
  745.000000   341699558  341742894  341798751  341856439  341925838  
  740.000000   342017691  342118338  342207408  342281796  342345399  
  735.000000   342392401  342416678  342426210  342435410  342455651  
  730.000000   342503275  342597097  342732326  342872617  342980880  
  725.000000   343043142  343059688  343039810  343013648  343020225  
  720.000000   343067344  343126888  343180831  343240869  343312236  
  715.000000   343372216  343399847  343398469  343375294  343330487  
  710.000000   343283910  343273168  343304045  343335531  343336927  
  705.000000   343327685  343332495  343330024  343280995  343187419  
  700.000000   343088843  343004022  342906244  342760982  342581217  
  695.000000   342446996  342453858  342626371  342881609  343097105  
  690.000000   343229984  343330639  343442114  343545958  343620172  
  685.000000   343689764  343783492  343886647  343977288  344074744  
  680.000000   344213266  344385808  344545343  344655689  344718124  
  675.000000   344756770  344797126  344848352  344885635  344866899  
  670.000000   344782585  344722031  344853366  345143754  345407821  
  665.000000   345627328  345862502  346117400  346356490  346561589  
  660.000000   346739931  346900586  347067538  347271268  347484115  
  655.000000   347620646  347650849  347649960  347692634  347761365  
  650.000000   347817448  
##END= 
